# OpenSignals Text File Format. Version 1
# {"98:D3:B1:FD:3D:90": {"position": 0, "device": "bitalino_rev", "device name": "98:D3:B1:FD:3D:90", "device connection": "BTH98:D3:B1:FD:3D:90", "sampling rate": 1000, "resolution": [4, 1, 1, 1, 1, 10, 10], "firmware version": 1281, "comments": "", "keywords": "", "mode": 0, "sync interval": 2, "date": "2022-3-10", "time": "18:27:43.932", "channels": [2, 3], "sensor": ["ECGBIT", "EDABITREV"], "label": ["A2", "A3"], "column": ["nSeq", "I1", "I2", "O1", "O2", "A2", "A3"], "special": [{}, {}], "digital IO": [0, 0, 1, 1]}}
# EndOfHeader
0	0	0	0	0	564	135	
1	0	0	0	0	575	137	
2	0	0	0	0	587	137	
3	0	0	0	0	598	137	
4	0	0	0	0	608	136	
5	0	0	0	0	616	137	
6	0	0	0	0	623	135	
7	0	0	0	0	630	137	
8	0	0	0	0	636	137	
9	0	0	0	0	643	135	
10	0	0	0	0	648	137	
11	0	0	0	0	652	136	
12	0	0	0	0	656	136	
13	0	0	0	0	658	137	
14	0	0	0	0	659	135	
15	0	0	0	0	658	137	
0	0	0	0	0	655	136	
1	0	0	0	0	650	137	
2	0	0	0	0	643	137	
3	0	0	0	0	636	135	
4	0	0	0	0	627	137	
5	0	0	0	0	620	137	
6	0	0	0	0	612	136	
7	0	0	0	0	607	137	
8	0	0	0	0	600	137	
9	0	0	0	0	588	135	
10	0	0	0	0	575	136	
11	0	0	0	0	563	137	
12	0	0	0	0	550	137	
13	0	0	0	0	538	137	
14	0	0	0	0	526	137	
15	0	0	0	0	515	136	
0	0	0	0	0	505	137	
1	0	0	0	0	496	138	
2	0	0	0	0	488	137	
3	0	0	0	0	482	138	
4	0	0	0	0	476	137	
5	0	0	0	0	470	138	
6	0	0	0	0	463	137	
7	0	0	0	0	457	137	
8	0	0	0	0	454	138	
9	0	0	0	0	451	137	
10	0	0	0	0	450	138	
11	0	0	0	0	449	137	
12	0	0	0	0	449	137	
13	0	0	0	0	451	138	
14	0	0	0	0	451	137	
15	0	0	0	0	453	138	
0	0	0	0	0	455	137	
1	0	0	0	0	457	137	
2	0	0	0	0	462	137	
3	0	0	0	0	468	138	
4	0	0	0	0	473	138	
5	0	0	0	0	473	137	
6	0	0	0	0	471	138	
7	0	0	0	0	470	137	
8	0	0	0	0	470	137	
9	0	0	0	0	470	138	
10	0	0	0	0	471	137	
11	0	0	0	0	472	138	
12	0	0	0	0	472	137	
13	0	0	0	0	474	138	
14	0	0	0	0	475	138	
15	0	0	0	0	476	137	
0	0	0	0	0	477	138	
1	0	0	0	0	478	136	
2	0	0	0	0	480	138	
3	0	0	0	0	481	138	
4	0	0	0	0	483	137	
5	0	0	0	0	486	138	
6	0	0	0	0	487	136	
7	0	0	0	0	488	138	
8	0	0	0	0	488	137	
9	0	0	0	0	487	137	
10	0	0	0	0	487	138	
11	0	0	0	0	484	137	
12	0	0	0	0	483	138	
13	0	0	0	0	483	137	
14	0	0	0	0	482	137	
15	0	0	0	0	482	138	
0	0	0	0	0	482	137	
1	0	0	0	0	483	138	
2	0	0	0	0	484	137	
3	0	0	0	0	484	137	
4	0	0	0	0	486	138	
5	0	0	0	0	487	138	
6	0	0	0	0	488	137	
7	0	0	0	0	489	138	
8	0	0	0	0	490	136	
9	0	0	0	0	491	138	
10	0	0	0	0	493	138	
11	0	0	0	0	496	137	
12	0	0	0	0	497	138	
13	0	0	0	0	494	137	
14	0	0	0	0	492	137	
15	0	0	0	0	491	138	
0	0	0	0	0	489	138	
1	0	0	0	0	489	137	
2	0	0	0	0	488	138	
3	0	0	0	0	486	137	
4	0	0	0	0	485	138	
5	0	0	0	0	484	138	
6	0	0	0	0	484	137	
7	0	0	0	0	485	138	
8	0	0	0	0	486	137	
9	0	0	0	0	487	138	
10	0	0	0	0	488	137	
11	0	0	0	0	488	138	
12	0	0	0	0	487	138	
13	0	0	0	0	488	137	
14	0	0	0	0	489	138	
15	0	0	0	0	489	137	
0	0	0	0	0	491	138	
1	0	0	0	0	493	138	
2	0	0	0	0	494	137	
3	0	0	0	0	494	137	
4	0	0	0	0	493	138	
5	0	0	0	0	493	136	
6	0	0	0	0	493	138	
7	0	0	0	0	492	137	
8	0	0	0	0	492	137	
9	0	0	0	0	491	138	
10	0	0	0	0	490	137	
11	0	0	0	0	490	138	
12	0	0	0	0	489	137	
13	0	0	0	0	489	138	
14	0	0	0	0	490	138	
15	0	0	0	0	490	137	
0	0	0	0	0	492	138	
1	0	0	0	0	493	137	
2	0	0	0	0	493	138	
3	0	0	0	0	494	138	
4	0	0	0	0	495	137	
5	0	0	0	0	495	138	
6	0	0	0	0	495	137	
7	0	0	0	0	496	138	
8	0	0	0	0	496	138	
9	0	0	0	0	496	137	
10	0	0	0	0	500	138	
11	0	0	0	0	503	137	
12	0	0	0	0	501	138	
13	0	0	0	0	498	137	
14	0	0	0	0	496	137	
15	0	0	0	0	494	138	
0	0	0	0	0	494	137	
1	0	0	0	0	494	138	
2	0	0	0	0	495	138	
3	0	0	0	0	496	137	
4	0	0	0	0	496	138	
5	0	0	0	0	496	137	
6	0	0	0	0	497	138	
7	0	0	0	0	497	138	
8	0	0	0	0	496	136	
9	0	0	0	0	497	137	
10	0	0	0	0	500	138	
11	0	0	0	0	502	137	
12	0	0	0	0	504	138	
13	0	0	0	0	505	138	
14	0	0	0	0	504	137	
15	0	0	0	0	505	138	
0	0	0	0	0	504	138	
1	0	0	0	0	504	137	
2	0	0	0	0	504	138	
3	0	0	0	0	504	137	
4	0	0	0	0	505	138	
5	0	0	0	0	507	138	
6	0	0	0	0	508	137	
7	0	0	0	0	509	138	
8	0	0	0	0	509	136	
9	0	0	0	0	510	138	
10	0	0	0	0	512	137	
11	0	0	0	0	515	138	
12	0	0	0	0	513	138	
13	0	0	0	0	510	137	
14	0	0	0	0	508	138	
15	0	0	0	0	508	137	
0	0	0	0	0	508	138	
1	0	0	0	0	508	137	
2	0	0	0	0	508	137	
3	0	0	0	0	509	138	
4	0	0	0	0	509	137	
5	0	0	0	0	510	138	
6	0	0	0	0	512	137	
7	0	0	0	0	513	137	
8	0	0	0	0	514	138	
9	0	0	0	0	513	137	
10	0	0	0	0	513	137	
11	0	0	0	0	513	138	
12	0	0	0	0	513	137	
13	0	0	0	0	513	138	
14	0	0	0	0	513	138	
15	0	0	0	0	514	137	
0	0	0	0	0	513	138	
1	0	0	0	0	513	137	
2	0	0	0	0	514	137	
3	0	0	0	0	515	138	
4	0	0	0	0	515	137	
5	0	0	0	0	517	138	
6	0	0	0	0	517	138	
7	0	0	0	0	517	137	
8	0	0	0	0	517	138	
9	0	0	0	0	518	138	
10	0	0	0	0	520	137	
11	0	0	0	0	518	138	
12	0	0	0	0	515	137	
13	0	0	0	0	512	138	
14	0	0	0	0	510	138	
15	0	0	0	0	510	137	
0	0	0	0	0	509	138	
1	0	0	0	0	510	137	
2	0	0	0	0	511	138	
3	0	0	0	0	515	138	
4	0	0	0	0	518	137	
5	0	0	0	0	520	138	
6	0	0	0	0	521	138	
7	0	0	0	0	524	137	
8	0	0	0	0	526	138	
9	0	0	0	0	527	137	
10	0	0	0	0	527	137	
11	0	0	0	0	526	138	
12	0	0	0	0	526	137	
13	0	0	0	0	525	138	
14	0	0	0	0	525	137	
15	0	0	0	0	525	138	
0	0	0	0	0	526	138	
1	0	0	0	0	526	137	
2	0	0	0	0	527	138	
3	0	0	0	0	526	137	
4	0	0	0	0	525	138	
5	0	0	0	0	525	137	
6	0	0	0	0	524	138	
7	0	0	0	0	524	138	
8	0	0	0	0	526	137	
9	0	0	0	0	528	137	
10	0	0	0	0	527	138	
11	0	0	0	0	524	137	
12	0	0	0	0	521	137	
13	0	0	0	0	520	138	
14	0	0	0	0	520	137	
15	0	0	0	0	521	138	
0	0	0	0	0	523	138	
1	0	0	0	0	526	137	
2	0	0	0	0	527	138	
3	0	0	0	0	529	137	
4	0	0	0	0	531	138	
5	0	0	0	0	535	138	
6	0	0	0	0	536	137	
7	0	0	0	0	534	138	
8	0	0	0	0	532	138	
9	0	0	0	0	530	137	
10	0	0	0	0	528	138	
11	0	0	0	0	527	137	
12	0	0	0	0	526	138	
13	0	0	0	0	527	138	
14	0	0	0	0	527	137	
15	0	0	0	0	529	138	
0	0	0	0	0	531	138	
1	0	0	0	0	531	137	
2	0	0	0	0	531	138	
3	0	0	0	0	531	137	
4	0	0	0	0	534	138	
5	0	0	0	0	536	138	
6	0	0	0	0	538	137	
7	0	0	0	0	540	138	
8	0	0	0	0	539	138	
9	0	0	0	0	539	137	
10	0	0	0	0	538	138	
11	0	0	0	0	539	137	
12	0	0	0	0	539	138	
13	0	0	0	0	539	138	
14	0	0	0	0	539	137	
15	0	0	0	0	539	138	
0	0	0	0	0	539	137	
1	0	0	0	0	540	138	
2	0	0	0	0	546	138	
3	0	0	0	0	547	136	
4	0	0	0	0	546	138	
5	0	0	0	0	545	139	
6	0	0	0	0	546	137	
7	0	0	0	0	545	138	
8	0	0	0	0	543	137	
9	0	0	0	0	542	138	
10	0	0	0	0	542	138	
11	0	0	0	0	543	137	
12	0	0	0	0	545	138	
13	0	0	0	0	548	138	
14	0	0	0	0	550	137	
15	0	0	0	0	551	138	
0	0	0	0	0	551	137	
1	0	0	0	0	553	138	
2	0	0	0	0	552	139	
3	0	0	0	0	551	137	
4	0	0	0	0	551	138	
5	0	0	0	0	551	137	
6	0	0	0	0	551	138	
7	0	0	0	0	548	137	
8	0	0	0	0	545	138	
9	0	0	0	0	542	138	
10	0	0	0	0	539	137	
11	0	0	0	0	536	138	
12	0	0	0	0	535	139	
13	0	0	0	0	535	137	
14	0	0	0	0	535	138	
15	0	0	0	0	535	137	
0	0	0	0	0	540	138	
1	0	0	0	0	541	137	
2	0	0	0	0	538	138	
3	0	0	0	0	536	138	
4	0	0	0	0	536	137	
5	0	0	0	0	539	138	
6	0	0	0	0	541	138	
7	0	0	0	0	541	137	
8	0	0	0	0	541	138	
9	0	0	0	0	539	137	
10	0	0	0	0	536	138	
11	0	0	0	0	532	137	
12	0	0	0	0	530	138	
13	0	0	0	0	529	139	
14	0	0	0	0	527	137	
15	0	0	0	0	525	138	
0	0	0	0	0	523	137	
1	0	0	0	0	521	138	
2	0	0	0	0	519	139	
3	0	0	0	0	516	137	
4	0	0	0	0	519	139	
5	0	0	0	0	519	139	
6	0	0	0	0	517	137	
7	0	0	0	0	515	139	
8	0	0	0	0	512	137	
9	0	0	0	0	510	139	
10	0	0	0	0	509	138	
11	0	0	0	0	508	138	
12	0	0	0	0	507	139	
13	0	0	0	0	506	137	
14	0	0	0	0	505	139	
15	0	0	0	0	503	139	
0	0	0	0	0	502	137	
1	0	0	0	0	501	139	
2	0	0	0	0	499	137	
3	0	0	0	0	496	139	
4	0	0	0	0	493	139	
5	0	0	0	0	490	137	
6	0	0	0	0	487	139	
7	0	0	0	0	484	138	
8	0	0	0	0	482	138	
9	0	0	0	0	480	139	
10	0	0	0	0	479	137	
11	0	0	0	0	478	139	
12	0	0	0	0	477	137	
13	0	0	0	0	476	138	
14	0	0	0	0	473	139	
15	0	0	0	0	472	137	
0	0	0	0	0	470	139	
1	0	0	0	0	468	138	
2	0	0	0	0	467	138	
3	0	0	0	0	467	139	
4	0	0	0	0	467	138	
5	0	0	0	0	469	139	
6	0	0	0	0	470	139	
7	0	0	0	0	471	138	
8	0	0	0	0	472	139	
9	0	0	0	0	476	137	
10	0	0	0	0	479	139	
11	0	0	0	0	479	137	
12	0	0	0	0	478	139	
13	0	0	0	0	477	139	
14	0	0	0	0	476	138	
15	0	0	0	0	475	139	
0	0	0	0	0	472	137	
1	0	0	0	0	470	139	
2	0	0	0	0	468	139	
3	0	0	0	0	467	138	
4	0	0	0	0	465	139	
5	0	0	0	0	465	137	
6	0	0	0	0	464	139	
7	0	0	0	0	463	139	
8	0	0	0	0	464	138	
9	0	0	0	0	466	139	
10	0	0	0	0	467	137	
11	0	0	0	0	469	139	
12	0	0	0	0	471	139	
13	0	0	0	0	472	138	
14	0	0	0	0	473	139	
15	0	0	0	0	473	137	
0	0	0	0	0	475	139	
1	0	0	0	0	480	139	
2	0	0	0	0	487	138	
3	0	0	0	0	492	139	
4	0	0	0	0	492	137	
5	0	0	0	0	491	139	
6	0	0	0	0	491	139	
7	0	0	0	0	490	138	
8	0	0	0	0	491	139	
9	0	0	0	0	492	137	
10	0	0	0	0	492	139	
11	0	0	0	0	491	139	
12	0	0	0	0	491	138	
13	0	0	0	0	490	139	
14	0	0	0	0	489	138	
15	0	0	0	0	488	139	
0	0	0	0	0	488	139	
1	0	0	0	0	489	138	
2	0	0	0	0	489	139	
3	0	0	0	0	489	137	
4	0	0	0	0	489	139	
5	0	0	0	0	488	139	
6	0	0	0	0	487	137	
7	0	0	0	0	486	139	
8	0	0	0	0	483	138	
9	0	0	0	0	482	139	
10	0	0	0	0	481	139	
11	0	0	0	0	480	138	
12	0	0	0	0	479	139	
13	0	0	0	0	480	138	
14	0	0	0	0	481	139	
15	0	0	0	0	483	139	
0	0	0	0	0	486	138	
1	0	0	0	0	488	139	
2	0	0	0	0	490	138	
3	0	0	0	0	494	138	
4	0	0	0	0	499	139	
5	0	0	0	0	502	137	
6	0	0	0	0	501	139	
7	0	0	0	0	499	139	
8	0	0	0	0	497	138	
9	0	0	0	0	498	139	
10	0	0	0	0	497	137	
11	0	0	0	0	496	139	
12	0	0	0	0	495	138	
13	0	0	0	0	495	139	
14	0	0	0	0	495	139	
15	0	0	0	0	494	138	
0	0	0	0	0	494	139	
1	0	0	0	0	493	138	
2	0	0	0	0	492	138	
3	0	0	0	0	492	139	
4	0	0	0	0	493	137	
5	0	0	0	0	495	139	
6	0	0	0	0	496	139	
7	0	0	0	0	497	138	
8	0	0	0	0	497	139	
9	0	0	0	0	498	137	
10	0	0	0	0	498	139	
11	0	0	0	0	497	139	
12	0	0	0	0	497	138	
13	0	0	0	0	499	139	
14	0	0	0	0	502	137	
15	0	0	0	0	502	139	
0	0	0	0	0	499	139	
1	0	0	0	0	496	138	
2	0	0	0	0	495	139	
3	0	0	0	0	495	139	
4	0	0	0	0	494	138	
5	0	0	0	0	494	139	
6	0	0	0	0	492	138	
7	0	0	0	0	492	139	
8	0	0	0	0	490	139	
9	0	0	0	0	489	138	
10	0	0	0	0	489	139	
11	0	0	0	0	490	138	
12	0	0	0	0	491	139	
13	0	0	0	0	491	139	
14	0	0	0	0	490	138	
15	0	0	0	0	490	139	
0	0	0	0	0	490	139	
1	0	0	0	0	491	138	
2	0	0	0	0	490	139	
3	0	0	0	0	490	139	
4	0	0	0	0	489	138	
5	0	0	0	0	490	139	
6	0	0	0	0	492	138	
7	0	0	0	0	496	139	
8	0	0	0	0	499	139	
9	0	0	0	0	497	138	
10	0	0	0	0	496	139	
11	0	0	0	0	494	137	
12	0	0	0	0	492	139	
13	0	0	0	0	492	139	
14	0	0	0	0	492	138	
15	0	0	0	0	492	139	
0	0	0	0	0	492	138	
1	0	0	0	0	493	139	
2	0	0	0	0	493	139	
3	0	0	0	0	492	138	
4	0	0	0	0	493	139	
5	0	0	0	0	494	139	
6	0	0	0	0	494	138	
7	0	0	0	0	493	139	
8	0	0	0	0	492	139	
9	0	0	0	0	492	138	
10	0	0	0	0	493	139	
11	0	0	0	0	492	139	
12	0	0	0	0	491	138	
13	0	0	0	0	491	139	
14	0	0	0	0	491	139	
15	0	0	0	0	492	138	
0	0	0	0	0	492	139	
1	0	0	0	0	494	139	
2	0	0	0	0	494	138	
3	0	0	0	0	496	139	
4	0	0	0	0	497	138	
5	0	0	0	0	500	139	
6	0	0	0	0	502	139	
7	0	0	0	0	500	138	
8	0	0	0	0	497	139	
9	0	0	0	0	495	138	
10	0	0	0	0	493	139	
11	0	0	0	0	492	139	
12	0	0	0	0	492	138	
13	0	0	0	0	492	139	
14	0	0	0	0	492	139	
15	0	0	0	0	491	138	
0	0	0	0	0	491	139	
1	0	0	0	0	490	139	
2	0	0	0	0	492	138	
3	0	0	0	0	492	139	
4	0	0	0	0	493	139	
5	0	0	0	0	493	138	
6	0	0	0	0	492	139	
7	0	0	0	0	492	138	
8	0	0	0	0	492	139	
9	0	0	0	0	492	139	
10	0	0	0	0	491	138	
11	0	0	0	0	490	139	
12	0	0	0	0	489	139	
13	0	0	0	0	489	138	
14	0	0	0	0	490	139	
15	0	0	0	0	492	139	
0	0	0	0	0	492	138	
1	0	0	0	0	491	139	
2	0	0	0	0	489	139	
3	0	0	0	0	490	138	
4	0	0	0	0	493	139	
5	0	0	0	0	492	138	
6	0	0	0	0	489	139	
7	0	0	0	0	487	139	
8	0	0	0	0	487	138	
9	0	0	0	0	487	139	
10	0	0	0	0	486	139	
11	0	0	0	0	485	138	
12	0	0	0	0	485	139	
13	0	0	0	0	485	138	
14	0	0	0	0	485	139	
15	0	0	0	0	486	139	
0	0	0	0	0	486	138	
1	0	0	0	0	485	138	
2	0	0	0	0	486	139	
3	0	0	0	0	487	138	
4	0	0	0	0	487	139	
5	0	0	0	0	487	139	
6	0	0	0	0	487	138	
7	0	0	0	0	488	139	
8	0	0	0	0	490	139	
9	0	0	0	0	492	138	
10	0	0	0	0	494	139	
11	0	0	0	0	494	139	
12	0	0	0	0	495	138	
13	0	0	0	0	499	139	
14	0	0	0	0	500	139	
15	0	0	0	0	497	138	
0	0	0	0	0	495	139	
1	0	0	0	0	493	139	
2	0	0	0	0	492	138	
3	0	0	0	0	491	139	
4	0	0	0	0	491	139	
5	0	0	0	0	492	139	
6	0	0	0	0	492	139	
7	0	0	0	0	493	139	
8	0	0	0	0	493	139	
9	0	0	0	0	493	138	
10	0	0	0	0	492	139	
11	0	0	0	0	493	139	
12	0	0	0	0	493	138	
13	0	0	0	0	494	139	
14	0	0	0	0	494	139	
15	0	0	0	0	493	138	
0	0	0	0	0	493	139	
1	0	0	0	0	492	139	
2	0	0	0	0	492	139	
3	0	0	0	0	493	138	
4	0	0	0	0	492	139	
5	0	0	0	0	492	138	
6	0	0	0	0	492	139	
7	0	0	0	0	492	139	
8	0	0	0	0	492	138	
9	0	0	0	0	492	139	
10	0	0	0	0	494	139	
11	0	0	0	0	497	138	
12	0	0	0	0	496	139	
13	0	0	0	0	494	139	
14	0	0	0	0	492	138	
15	0	0	0	0	491	139	
0	0	0	0	0	490	138	
1	0	0	0	0	490	139	
2	0	0	0	0	490	139	
3	0	0	0	0	490	138	
4	0	0	0	0	489	139	
5	0	0	0	0	491	139	
6	0	0	0	0	492	138	
7	0	0	0	0	493	139	
8	0	0	0	0	495	139	
9	0	0	0	0	496	138	
10	0	0	0	0	496	139	
11	0	0	0	0	496	139	
12	0	0	0	0	496	138	
13	0	0	0	0	494	139	
14	0	0	0	0	496	139	
15	0	0	0	0	496	138	
0	0	0	0	0	496	139	
1	0	0	0	0	494	139	
2	0	0	0	0	493	138	
3	0	0	0	0	492	139	
4	0	0	0	0	492	139	
5	0	0	0	0	492	138	
6	0	0	0	0	493	139	
7	0	0	0	0	493	139	
8	0	0	0	0	497	138	
9	0	0	0	0	500	139	
10	0	0	0	0	499	138	
11	0	0	0	0	497	139	
12	0	0	0	0	495	139	
13	0	0	0	0	495	138	
14	0	0	0	0	495	139	
15	0	0	0	0	495	139	
0	0	0	0	0	495	138	
1	0	0	0	0	495	139	
2	0	0	0	0	496	139	
3	0	0	0	0	496	138	
4	0	0	0	0	497	139	
5	0	0	0	0	498	139	
6	0	0	0	0	499	139	
7	0	0	0	0	501	139	
8	0	0	0	0	502	138	
9	0	0	0	0	501	139	
10	0	0	0	0	501	139	
11	0	0	0	0	500	139	
12	0	0	0	0	499	138	
13	0	0	0	0	500	139	
14	0	0	0	0	499	139	
15	0	0	0	0	498	138	
0	0	0	0	0	498	139	
1	0	0	0	0	498	140	
2	0	0	0	0	498	138	
3	0	0	0	0	499	139	
4	0	0	0	0	500	138	
5	0	0	0	0	502	139	
6	0	0	0	0	502	139	
7	0	0	0	0	503	138	
8	0	0	0	0	502	139	
9	0	0	0	0	501	139	
10	0	0	0	0	502	138	
11	0	0	0	0	501	139	
12	0	0	0	0	500	138	
13	0	0	0	0	500	139	
14	0	0	0	0	500	140	
15	0	0	0	0	504	138	
0	0	0	0	0	503	139	
1	0	0	0	0	500	139	
2	0	0	0	0	497	139	
3	0	0	0	0	495	139	
4	0	0	0	0	494	139	
5	0	0	0	0	494	139	
6	0	0	0	0	494	139	
7	0	0	0	0	494	138	
8	0	0	0	0	492	139	
9	0	0	0	0	492	139	
10	0	0	0	0	493	138	
11	0	0	0	0	492	139	
12	0	0	0	0	493	139	
13	0	0	0	0	494	138	
14	0	0	0	0	495	139	
15	0	0	0	0	496	140	
0	0	0	0	0	497	139	
1	0	0	0	0	497	139	
2	0	0	0	0	497	138	
3	0	0	0	0	497	139	
4	0	0	0	0	498	139	
5	0	0	0	0	497	138	
6	0	0	0	0	496	139	
7	0	0	0	0	496	139	
8	0	0	0	0	496	139	
9	0	0	0	0	496	138	
10	0	0	0	0	497	139	
11	0	0	0	0	497	139	
12	0	0	0	0	497	140	
13	0	0	0	0	496	139	
14	0	0	0	0	496	139	
15	0	0	0	0	496	138	
0	0	0	0	0	496	139	
1	0	0	0	0	497	140	
2	0	0	0	0	497	139	
3	0	0	0	0	497	139	
4	0	0	0	0	500	138	
5	0	0	0	0	504	139	
6	0	0	0	0	503	140	
7	0	0	0	0	502	138	
8	0	0	0	0	500	139	
9	0	0	0	0	499	140	
10	0	0	0	0	499	138	
11	0	0	0	0	500	139	
12	0	0	0	0	501	140	
13	0	0	0	0	502	138	
14	0	0	0	0	502	139	
15	0	0	0	0	501	140	
0	0	0	0	0	501	138	
1	0	0	0	0	502	139	
2	0	0	0	0	504	140	
3	0	0	0	0	505	139	
4	0	0	0	0	504	140	
5	0	0	0	0	504	139	
6	0	0	0	0	503	139	
7	0	0	0	0	503	140	
8	0	0	0	0	503	138	
9	0	0	0	0	504	139	
10	0	0	0	0	504	140	
11	0	0	0	0	503	138	
12	0	0	0	0	501	140	
13	0	0	0	0	501	139	
14	0	0	0	0	502	139	
15	0	0	0	0	503	140	
0	0	0	0	0	504	138	
1	0	0	0	0	504	140	
2	0	0	0	0	504	140	
3	0	0	0	0	505	139	
4	0	0	0	0	508	140	
5	0	0	0	0	512	140	
6	0	0	0	0	512	138	
7	0	0	0	0	511	139	
8	0	0	0	0	510	140	
9	0	0	0	0	509	139	
10	0	0	0	0	510	139	
11	0	0	0	0	510	139	
12	0	0	0	0	510	138	
13	0	0	0	0	510	139	
14	0	0	0	0	509	140	
15	0	0	0	0	508	139	
0	0	0	0	0	505	139	
1	0	0	0	0	505	140	
2	0	0	0	0	506	138	
3	0	0	0	0	506	140	
4	0	0	0	0	507	140	
5	0	0	0	0	507	139	
6	0	0	0	0	506	140	
7	0	0	0	0	506	139	
8	0	0	0	0	507	139	
9	0	0	0	0	508	140	
10	0	0	0	0	508	138	
11	0	0	0	0	510	140	
12	0	0	0	0	510	140	
13	0	0	0	0	511	139	
14	0	0	0	0	513	140	
15	0	0	0	0	516	138	
0	0	0	0	0	515	139	
1	0	0	0	0	513	140	
2	0	0	0	0	512	139	
3	0	0	0	0	512	140	
4	0	0	0	0	512	140	
5	0	0	0	0	514	139	
6	0	0	0	0	513	140	
7	0	0	0	0	512	140	
8	0	0	0	0	511	139	
9	0	0	0	0	511	140	
10	0	0	0	0	510	140	
11	0	0	0	0	511	139	
12	0	0	0	0	512	140	
13	0	0	0	0	512	140	
14	0	0	0	0	512	139	
15	0	0	0	0	513	140	
0	0	0	0	0	514	139	
1	0	0	0	0	513	139	
2	0	0	0	0	515	140	
3	0	0	0	0	518	138	
4	0	0	0	0	518	140	
5	0	0	0	0	516	140	
6	0	0	0	0	514	138	
7	0	0	0	0	513	139	
8	0	0	0	0	512	140	
9	0	0	0	0	511	139	
10	0	0	0	0	511	139	
11	0	0	0	0	511	140	
12	0	0	0	0	511	139	
13	0	0	0	0	512	139	
14	0	0	0	0	513	140	
15	0	0	0	0	513	140	
0	0	0	0	0	514	139	
1	0	0	0	0	516	140	
2	0	0	0	0	515	140	
3	0	0	0	0	515	139	
4	0	0	0	0	513	140	
5	0	0	0	0	514	139	
6	0	0	0	0	513	139	
7	0	0	0	0	512	140	
8	0	0	0	0	513	139	
9	0	0	0	0	515	139	
10	0	0	0	0	516	140	
11	0	0	0	0	516	138	
12	0	0	0	0	515	139	
13	0	0	0	0	515	140	
14	0	0	0	0	516	139	
15	0	0	0	0	515	139	
0	0	0	0	0	515	140	
1	0	0	0	0	515	139	
2	0	0	0	0	518	140	
3	0	0	0	0	521	140	
4	0	0	0	0	520	139	
5	0	0	0	0	518	140	
6	0	0	0	0	515	140	
7	0	0	0	0	513	139	
8	0	0	0	0	514	140	
9	0	0	0	0	514	139	
10	0	0	0	0	515	140	
11	0	0	0	0	517	140	
12	0	0	0	0	517	139	
13	0	0	0	0	517	140	
14	0	0	0	0	517	140	
15	0	0	0	0	518	139	
0	0	0	0	0	517	139	
1	0	0	0	0	516	140	
2	0	0	0	0	515	139	
3	0	0	0	0	515	140	
4	0	0	0	0	515	140	
5	0	0	0	0	515	139	
6	0	0	0	0	515	140	
7	0	0	0	0	515	140	
8	0	0	0	0	515	139	
9	0	0	0	0	515	140	
10	0	0	0	0	515	140	
11	0	0	0	0	516	139	
12	0	0	0	0	517	140	
13	0	0	0	0	519	139	
14	0	0	0	0	522	139	
15	0	0	0	0	527	140	
0	0	0	0	0	528	139	
1	0	0	0	0	526	140	
2	0	0	0	0	524	140	
3	0	0	0	0	522	139	
4	0	0	0	0	519	140	
5	0	0	0	0	519	140	
6	0	0	0	0	521	139	
7	0	0	0	0	521	140	
8	0	0	0	0	523	139	
9	0	0	0	0	523	139	
10	0	0	0	0	523	140	
11	0	0	0	0	523	139	
12	0	0	0	0	523	140	
13	0	0	0	0	524	140	
14	0	0	0	0	524	139	
15	0	0	0	0	525	140	
0	0	0	0	0	525	140	
1	0	0	0	0	525	139	
2	0	0	0	0	524	140	
3	0	0	0	0	524	139	
4	0	0	0	0	524	139	
5	0	0	0	0	525	140	
6	0	0	0	0	523	140	
7	0	0	0	0	521	139	
8	0	0	0	0	522	140	
9	0	0	0	0	523	140	
10	0	0	0	0	523	139	
11	0	0	0	0	523	140	
12	0	0	0	0	523	140	
13	0	0	0	0	523	139	
14	0	0	0	0	522	140	
15	0	0	0	0	523	140	
0	0	0	0	0	524	139	
1	0	0	0	0	524	139	
2	0	0	0	0	524	140	
3	0	0	0	0	525	139	
4	0	0	0	0	524	139	
5	0	0	0	0	527	140	
6	0	0	0	0	528	139	
7	0	0	0	0	527	140	
8	0	0	0	0	524	140	
9	0	0	0	0	523	139	
10	0	0	0	0	521	140	
11	0	0	0	0	519	140	
12	0	0	0	0	520	139	
13	0	0	0	0	521	140	
14	0	0	0	0	521	140	
15	0	0	0	0	521	139	
0	0	0	0	0	521	140	
1	0	0	0	0	521	140	
2	0	0	0	0	523	139	
3	0	0	0	0	523	139	
4	0	0	0	0	522	140	
5	0	0	0	0	520	140	
6	0	0	0	0	519	139	
7	0	0	0	0	519	140	
8	0	0	0	0	520	139	
9	0	0	0	0	521	139	
10	0	0	0	0	522	140	
11	0	0	0	0	520	139	
12	0	0	0	0	519	140	
13	0	0	0	0	518	140	
14	0	0	0	0	518	139	
15	0	0	0	0	518	140	
0	0	0	0	0	518	140	
1	0	0	0	0	518	139	
2	0	0	0	0	518	140	
3	0	0	0	0	518	140	
4	0	0	0	0	518	139	
5	0	0	0	0	519	140	
6	0	0	0	0	522	139	
7	0	0	0	0	523	140	
8	0	0	0	0	520	140	
9	0	0	0	0	517	139	
10	0	0	0	0	515	140	
11	0	0	0	0	514	140	
12	0	0	0	0	513	139	
13	0	0	0	0	513	140	
14	0	0	0	0	512	140	
15	0	0	0	0	512	139	
0	0	0	0	0	511	140	
1	0	0	0	0	511	140	
2	0	0	0	0	510	139	
3	0	0	0	0	510	140	
4	0	0	0	0	511	139	
5	0	0	0	0	511	140	
6	0	0	0	0	512	140	
7	0	0	0	0	513	139	
8	0	0	0	0	513	139	
9	0	0	0	0	513	140	
10	0	0	0	0	513	139	
11	0	0	0	0	515	140	
12	0	0	0	0	516	140	
13	0	0	0	0	518	139	
14	0	0	0	0	518	140	
15	0	0	0	0	518	141	
0	0	0	0	0	519	139	
1	0	0	0	0	520	140	
2	0	0	0	0	520	139	
3	0	0	0	0	521	140	
4	0	0	0	0	523	140	
5	0	0	0	0	524	139	
6	0	0	0	0	524	140	
7	0	0	0	0	523	140	
8	0	0	0	0	525	139	
9	0	0	0	0	528	140	
10	0	0	0	0	527	140	
11	0	0	0	0	524	140	
12	0	0	0	0	523	140	
13	0	0	0	0	521	139	
14	0	0	0	0	520	140	
15	0	0	0	0	520	140	
0	0	0	0	0	520	140	
1	0	0	0	0	520	139	
2	0	0	0	0	519	140	
3	0	0	0	0	519	140	
4	0	0	0	0	518	139	
5	0	0	0	0	517	140	
6	0	0	0	0	516	141	
7	0	0	0	0	514	139	
8	0	0	0	0	512	140	
9	0	0	0	0	510	140	
10	0	0	0	0	509	140	
11	0	0	0	0	508	140	
12	0	0	0	0	508	140	
13	0	0	0	0	509	140	
14	0	0	0	0	509	140	
15	0	0	0	0	512	139	
0	0	0	0	0	514	140	
1	0	0	0	0	514	140	
2	0	0	0	0	515	139	
3	0	0	0	0	516	140	
4	0	0	0	0	518	141	
5	0	0	0	0	520	139	
6	0	0	0	0	523	140	
7	0	0	0	0	523	140	
8	0	0	0	0	523	139	
9	0	0	0	0	521	140	
10	0	0	0	0	521	140	
11	0	0	0	0	522	140	
12	0	0	0	0	525	140	
13	0	0	0	0	529	140	
14	0	0	0	0	532	139	
15	0	0	0	0	530	140	
0	0	0	0	0	528	141	
1	0	0	0	0	526	139	
2	0	0	0	0	524	140	
3	0	0	0	0	521	140	
4	0	0	0	0	520	139	
5	0	0	0	0	519	140	
6	0	0	0	0	518	140	
7	0	0	0	0	517	140	
8	0	0	0	0	518	140	
9	0	0	0	0	520	140	
10	0	0	0	0	520	140	
11	0	0	0	0	521	140	
12	0	0	0	0	522	141	
13	0	0	0	0	523	139	
14	0	0	0	0	525	140	
15	0	0	0	0	528	140	
0	0	0	0	0	531	139	
1	0	0	0	0	534	140	
2	0	0	0	0	537	140	
3	0	0	0	0	540	140	
4	0	0	0	0	541	140	
5	0	0	0	0	541	140	
6	0	0	0	0	541	140	
7	0	0	0	0	542	140	
8	0	0	0	0	541	140	
9	0	0	0	0	540	139	
10	0	0	0	0	540	140	
11	0	0	0	0	540	140	
12	0	0	0	0	542	139	
13	0	0	0	0	543	140	
14	0	0	0	0	543	140	
15	0	0	0	0	541	139	
0	0	0	0	0	539	140	
1	0	0	0	0	540	141	
2	0	0	0	0	540	140	
3	0	0	0	0	537	139	
4	0	0	0	0	534	140	
5	0	0	0	0	531	141	
6	0	0	0	0	529	140	
7	0	0	0	0	529	141	
8	0	0	0	0	529	141	
9	0	0	0	0	529	139	
10	0	0	0	0	529	140	
11	0	0	0	0	531	141	
12	0	0	0	0	530	139	
13	0	0	0	0	527	140	
14	0	0	0	0	528	140	
15	0	0	0	0	529	140	
0	0	0	0	0	529	140	
1	0	0	0	0	528	140	
2	0	0	0	0	529	140	
3	0	0	0	0	531	140	
4	0	0	0	0	535	141	
5	0	0	0	0	537	139	
6	0	0	0	0	537	140	
7	0	0	0	0	538	141	
8	0	0	0	0	540	139	
9	0	0	0	0	542	140	
10	0	0	0	0	543	141	
11	0	0	0	0	543	140	
12	0	0	0	0	543	140	
13	0	0	0	0	544	140	
14	0	0	0	0	543	141	
15	0	0	0	0	539	140	
0	0	0	0	0	536	140	
1	0	0	0	0	531	141	
2	0	0	0	0	527	140	
3	0	0	0	0	523	140	
4	0	0	0	0	520	141	
5	0	0	0	0	518	139	
6	0	0	0	0	517	141	
7	0	0	0	0	517	141	
8	0	0	0	0	518	139	
9	0	0	0	0	518	140	
10	0	0	0	0	521	141	
11	0	0	0	0	520	140	
12	0	0	0	0	518	140	
13	0	0	0	0	515	141	
14	0	0	0	0	514	140	
15	0	0	0	0	514	140	
0	0	0	0	0	515	141	
1	0	0	0	0	516	140	
2	0	0	0	0	518	140	
3	0	0	0	0	519	141	
4	0	0	0	0	519	139	
5	0	0	0	0	520	140	
6	0	0	0	0	521	141	
7	0	0	0	0	523	140	
8	0	0	0	0	521	140	
9	0	0	0	0	521	141	
10	0	0	0	0	521	141	
11	0	0	0	0	522	140	
12	0	0	0	0	521	141	
13	0	0	0	0	520	141	
14	0	0	0	0	518	140	
15	0	0	0	0	515	141	
0	0	0	0	0	513	140	
1	0	0	0	0	510	140	
2	0	0	0	0	509	141	
3	0	0	0	0	509	140	
4	0	0	0	0	508	140	
5	0	0	0	0	507	141	
6	0	0	0	0	504	141	
7	0	0	0	0	501	140	
8	0	0	0	0	500	140	
9	0	0	0	0	500	141	
10	0	0	0	0	500	140	
11	0	0	0	0	503	140	
12	0	0	0	0	505	141	
13	0	0	0	0	506	141	
14	0	0	0	0	508	140	
15	0	0	0	0	511	141	
0	0	0	0	0	511	141	
1	0	0	0	0	511	140	
2	0	0	0	0	509	141	
3	0	0	0	0	510	141	
4	0	0	0	0	511	140	
5	0	0	0	0	512	141	
6	0	0	0	0	511	140	
7	0	0	0	0	511	140	
8	0	0	0	0	512	141	
9	0	0	0	0	515	140	
10	0	0	0	0	518	140	
11	0	0	0	0	519	141	
12	0	0	0	0	520	141	
13	0	0	0	0	520	140	
14	0	0	0	0	522	141	
15	0	0	0	0	522	140	
0	0	0	0	0	519	140	
1	0	0	0	0	515	141	
2	0	0	0	0	512	141	
3	0	0	0	0	510	140	
4	0	0	0	0	510	140	
5	0	0	0	0	510	141	
6	0	0	0	0	510	141	
7	0	0	0	0	511	140	
8	0	0	0	0	511	141	
9	0	0	0	0	511	141	
10	0	0	0	0	513	140	
11	0	0	0	0	518	141	
12	0	0	0	0	524	141	
13	0	0	0	0	531	140	
14	0	0	0	0	539	140	
15	0	0	0	0	546	141	
0	0	0	0	0	553	140	
1	0	0	0	0	562	140	
2	0	0	0	0	572	141	
3	0	0	0	0	584	140	
4	0	0	0	0	594	140	
5	0	0	0	0	603	141	
6	0	0	0	0	611	141	
7	0	0	0	0	618	140	
8	0	0	0	0	622	141	
9	0	0	0	0	626	141	
10	0	0	0	0	630	140	
11	0	0	0	0	636	141	
12	0	0	0	0	642	140	
13	0	0	0	0	643	140	
14	0	0	0	0	642	141	
15	0	0	0	0	642	141	
0	0	0	0	0	641	139	
1	0	0	0	0	638	141	
2	0	0	0	0	634	141	
3	0	0	0	0	628	139	
4	0	0	0	0	621	141	
5	0	0	0	0	614	141	
6	0	0	0	0	607	139	
7	0	0	0	0	600	140	
8	0	0	0	0	592	141	
9	0	0	0	0	585	140	
10	0	0	0	0	578	141	
11	0	0	0	0	569	141	
12	0	0	0	0	560	140	
13	0	0	0	0	550	141	
14	0	0	0	0	540	141	
15	0	0	0	0	529	140	
0	0	0	0	0	518	141	
1	0	0	0	0	507	140	
2	0	0	0	0	496	141	
3	0	0	0	0	486	142	
4	0	0	0	0	477	140	
5	0	0	0	0	468	141	
6	0	0	0	0	460	141	
7	0	0	0	0	452	140	
8	0	0	0	0	446	141	
9	0	0	0	0	441	142	
10	0	0	0	0	438	142	
11	0	0	0	0	434	141	
12	0	0	0	0	432	142	
13	0	0	0	0	434	142	
14	0	0	0	0	434	141	
15	0	0	0	0	434	142	
0	0	0	0	0	434	142	
1	0	0	0	0	435	141	
2	0	0	0	0	436	142	
3	0	0	0	0	439	142	
4	0	0	0	0	440	141	
5	0	0	0	0	443	142	
6	0	0	0	0	447	142	
7	0	0	0	0	448	141	
8	0	0	0	0	450	142	
9	0	0	0	0	452	141	
10	0	0	0	0	453	141	
11	0	0	0	0	455	142	
12	0	0	0	0	455	142	
13	0	0	0	0	456	141	
14	0	0	0	0	457	142	
15	0	0	0	0	457	141	
0	0	0	0	0	456	141	
1	0	0	0	0	456	142	
2	0	0	0	0	455	141	
3	0	0	0	0	455	141	
4	0	0	0	0	455	142	
5	0	0	0	0	455	141	
6	0	0	0	0	455	141	
7	0	0	0	0	455	142	
8	0	0	0	0	456	140	
9	0	0	0	0	458	141	
10	0	0	0	0	462	142	
11	0	0	0	0	464	141	
12	0	0	0	0	463	141	
13	0	0	0	0	462	142	
14	0	0	0	0	459	140	
15	0	0	0	0	459	142	
0	0	0	0	0	458	142	
1	0	0	0	0	459	141	
2	0	0	0	0	460	141	
3	0	0	0	0	462	142	
4	0	0	0	0	462	141	
5	0	0	0	0	463	142	
6	0	0	0	0	464	142	
7	0	0	0	0	463	141	
8	0	0	0	0	463	142	
9	0	0	0	0	464	141	
10	0	0	0	0	466	141	
11	0	0	0	0	468	142	
12	0	0	0	0	472	141	
13	0	0	0	0	478	142	
14	0	0	0	0	480	142	
15	0	0	0	0	480	141	
0	0	0	0	0	478	142	
1	0	0	0	0	477	140	
2	0	0	0	0	477	142	
3	0	0	0	0	476	141	
4	0	0	0	0	476	141	
5	0	0	0	0	476	142	
6	0	0	0	0	477	142	
7	0	0	0	0	479	141	
8	0	0	0	0	478	142	
9	0	0	0	0	479	140	
10	0	0	0	0	480	141	
11	0	0	0	0	481	142	
12	0	0	0	0	480	141	
13	0	0	0	0	481	142	
14	0	0	0	0	481	141	
15	0	0	0	0	481	142	
0	0	0	0	0	482	142	
1	0	0	0	0	482	141	
2	0	0	0	0	483	142	
3	0	0	0	0	483	141	
4	0	0	0	0	485	142	
5	0	0	0	0	488	141	
6	0	0	0	0	491	141	
7	0	0	0	0	491	142	
8	0	0	0	0	492	141	
9	0	0	0	0	492	141	
10	0	0	0	0	492	142	
11	0	0	0	0	492	142	
12	0	0	0	0	492	141	
13	0	0	0	0	494	142	
14	0	0	0	0	494	141	
15	0	0	0	0	494	141	
0	0	0	0	0	495	142	
1	0	0	0	0	496	141	
2	0	0	0	0	498	142	
3	0	0	0	0	500	141	
4	0	0	0	0	503	141	
5	0	0	0	0	507	142	
6	0	0	0	0	506	140	
7	0	0	0	0	504	142	
8	0	0	0	0	502	142	
9	0	0	0	0	500	141	
10	0	0	0	0	499	142	
11	0	0	0	0	500	142	
12	0	0	0	0	500	141	
13	0	0	0	0	501	142	
14	0	0	0	0	502	142	
15	0	0	0	0	501	141	
0	0	0	0	0	500	142	
1	0	0	0	0	502	140	
2	0	0	0	0	503	142	
3	0	0	0	0	505	142	
4	0	0	0	0	507	141	
5	0	0	0	0	509	142	
6	0	0	0	0	510	142	
7	0	0	0	0	511	141	
8	0	0	0	0	511	142	
9	0	0	0	0	511	141	
10	0	0	0	0	511	142	
11	0	0	0	0	511	142	
12	0	0	0	0	511	141	
13	0	0	0	0	512	142	
14	0	0	0	0	512	142	
15	0	0	0	0	513	141	
0	0	0	0	0	515	142	
1	0	0	0	0	516	141	
2	0	0	0	0	517	142	
3	0	0	0	0	518	142	
4	0	0	0	0	518	141	
5	0	0	0	0	518	142	
6	0	0	0	0	517	142	
7	0	0	0	0	516	141	
8	0	0	0	0	516	142	
9	0	0	0	0	518	140	
10	0	0	0	0	519	142	
11	0	0	0	0	520	142	
12	0	0	0	0	519	141	
13	0	0	0	0	519	142	
14	0	0	0	0	522	141	
15	0	0	0	0	524	142	
0	0	0	0	0	523	142	
1	0	0	0	0	522	141	
2	0	0	0	0	520	142	
3	0	0	0	0	519	142	
4	0	0	0	0	519	141	
5	0	0	0	0	519	142	
6	0	0	0	0	519	141	
7	0	0	0	0	520	141	
8	0	0	0	0	521	142	
9	0	0	0	0	523	141	
10	0	0	0	0	524	142	
11	0	0	0	0	524	142	
12	0	0	0	0	524	140	
13	0	0	0	0	525	142	
14	0	0	0	0	526	142	
15	0	0	0	0	526	141	
0	0	0	0	0	527	142	
1	0	0	0	0	527	141	
2	0	0	0	0	528	142	
3	0	0	0	0	529	142	
4	0	0	0	0	531	141	
5	0	0	0	0	532	142	
6	0	0	0	0	534	142	
7	0	0	0	0	536	141	
8	0	0	0	0	537	142	
9	0	0	0	0	535	141	
10	0	0	0	0	532	142	
11	0	0	0	0	530	142	
12	0	0	0	0	528	141	
13	0	0	0	0	528	142	
14	0	0	0	0	528	141	
15	0	0	0	0	529	141	
0	0	0	0	0	529	142	
1	0	0	0	0	529	142	
2	0	0	0	0	529	141	
3	0	0	0	0	529	141	
4	0	0	0	0	529	142	
5	0	0	0	0	529	142	
6	0	0	0	0	529	142	
7	0	0	0	0	530	141	
8	0	0	0	0	530	142	
9	0	0	0	0	530	142	
10	0	0	0	0	531	141	
11	0	0	0	0	531	141	
12	0	0	0	0	531	142	
13	0	0	0	0	531	142	
14	0	0	0	0	532	141	
15	0	0	0	0	534	141	
0	0	0	0	0	538	142	
1	0	0	0	0	539	142	
2	0	0	0	0	538	141	
3	0	0	0	0	537	141	
4	0	0	0	0	536	142	
5	0	0	0	0	536	142	
6	0	0	0	0	536	141	
7	0	0	0	0	537	141	
8	0	0	0	0	537	142	
9	0	0	0	0	538	142	
10	0	0	0	0	538	141	
11	0	0	0	0	539	141	
12	0	0	0	0	539	142	
13	0	0	0	0	539	142	
14	0	0	0	0	538	142	
15	0	0	0	0	537	141	
0	0	0	0	0	538	141	
1	0	0	0	0	537	142	
2	0	0	0	0	536	142	
3	0	0	0	0	536	141	
4	0	0	0	0	537	142	
5	0	0	0	0	539	142	
6	0	0	0	0	541	141	
7	0	0	0	0	541	142	
8	0	0	0	0	542	142	
9	0	0	0	0	541	141	
10	0	0	0	0	542	142	
11	0	0	0	0	543	142	
12	0	0	0	0	544	141	
13	0	0	0	0	545	141	
14	0	0	0	0	546	142	
15	0	0	0	0	547	141	
0	0	0	0	0	547	141	
1	0	0	0	0	547	142	
2	0	0	0	0	547	141	
3	0	0	0	0	548	142	
4	0	0	0	0	551	141	
5	0	0	0	0	553	141	
6	0	0	0	0	551	142	
7	0	0	0	0	549	141	
8	0	0	0	0	547	142	
9	0	0	0	0	547	142	
10	0	0	0	0	546	141	
11	0	0	0	0	546	141	
12	0	0	0	0	546	142	
13	0	0	0	0	547	141	
14	0	0	0	0	548	141	
15	0	0	0	0	550	142	
0	0	0	0	0	551	142	
1	0	0	0	0	551	141	
2	0	0	0	0	551	141	
3	0	0	0	0	551	142	
4	0	0	0	0	552	142	
5	0	0	0	0	552	141	
6	0	0	0	0	554	142	
7	0	0	0	0	555	142	
8	0	0	0	0	556	141	
9	0	0	0	0	555	142	
10	0	0	0	0	553	141	
11	0	0	0	0	551	142	
12	0	0	0	0	550	142	
13	0	0	0	0	550	141	
14	0	0	0	0	552	142	
15	0	0	0	0	553	142	
0	0	0	0	0	552	142	
1	0	0	0	0	551	141	
2	0	0	0	0	550	142	
3	0	0	0	0	549	141	
4	0	0	0	0	550	142	
5	0	0	0	0	551	142	
6	0	0	0	0	553	141	
7	0	0	0	0	553	142	
8	0	0	0	0	553	142	
9	0	0	0	0	552	141	
10	0	0	0	0	551	142	
11	0	0	0	0	551	142	
12	0	0	0	0	550	141	
13	0	0	0	0	551	142	
14	0	0	0	0	551	142	
15	0	0	0	0	550	141	
0	0	0	0	0	549	142	
1	0	0	0	0	548	141	
2	0	0	0	0	547	142	
3	0	0	0	0	546	142	
4	0	0	0	0	545	142	
5	0	0	0	0	544	142	
6	0	0	0	0	543	141	
7	0	0	0	0	542	142	
8	0	0	0	0	542	142	
9	0	0	0	0	540	141	
10	0	0	0	0	542	142	
11	0	0	0	0	544	142	
12	0	0	0	0	541	142	
13	0	0	0	0	539	142	
14	0	0	0	0	536	141	
15	0	0	0	0	534	142	
0	0	0	0	0	531	143	
1	0	0	0	0	529	141	
2	0	0	0	0	526	142	
3	0	0	0	0	524	142	
4	0	0	0	0	522	142	
5	0	0	0	0	521	142	
6	0	0	0	0	519	142	
7	0	0	0	0	516	142	
8	0	0	0	0	515	142	
9	0	0	0	0	513	142	
10	0	0	0	0	512	142	
11	0	0	0	0	509	142	
12	0	0	0	0	507	142	
13	0	0	0	0	504	142	
14	0	0	0	0	501	143	
15	0	0	0	0	499	141	
0	0	0	0	0	497	143	
1	0	0	0	0	496	143	
2	0	0	0	0	495	142	
3	0	0	0	0	495	143	
4	0	0	0	0	492	143	
5	0	0	0	0	490	142	
6	0	0	0	0	486	143	
7	0	0	0	0	484	142	
8	0	0	0	0	484	143	
9	0	0	0	0	484	142	
10	0	0	0	0	481	142	
11	0	0	0	0	477	143	
12	0	0	0	0	475	142	
13	0	0	0	0	473	143	
14	0	0	0	0	471	143	
15	0	0	0	0	470	142	
0	0	0	0	0	469	143	
1	0	0	0	0	468	142	
2	0	0	0	0	467	142	
3	0	0	0	0	466	143	
4	0	0	0	0	468	142	
5	0	0	0	0	468	142	
6	0	0	0	0	466	143	
7	0	0	0	0	464	142	
8	0	0	0	0	463	143	
9	0	0	0	0	462	143	
10	0	0	0	0	462	142	
11	0	0	0	0	460	143	
12	0	0	0	0	460	142	
13	0	0	0	0	459	143	
14	0	0	0	0	459	143	
15	0	0	0	0	459	142	
0	0	0	0	0	458	143	
1	0	0	0	0	458	143	
2	0	0	0	0	459	142	
3	0	0	0	0	459	143	
4	0	0	0	0	460	142	
5	0	0	0	0	462	142	
6	0	0	0	0	463	143	
7	0	0	0	0	463	142	
8	0	0	0	0	463	142	
9	0	0	0	0	463	143	
10	0	0	0	0	463	143	
11	0	0	0	0	463	142	
12	0	0	0	0	462	143	
13	0	0	0	0	462	142	
14	0	0	0	0	463	142	
15	0	0	0	0	463	143	
0	0	0	0	0	463	142	
1	0	0	0	0	464	143	
2	0	0	0	0	463	143	
3	0	0	0	0	464	142	
4	0	0	0	0	464	143	
5	0	0	0	0	465	142	
6	0	0	0	0	465	142	
7	0	0	0	0	467	143	
8	0	0	0	0	471	142	
9	0	0	0	0	470	143	
10	0	0	0	0	468	143	
11	0	0	0	0	467	142	
12	0	0	0	0	465	143	
13	0	0	0	0	464	142	
14	0	0	0	0	464	143	
15	0	0	0	0	465	143	
0	0	0	0	0	466	142	
1	0	0	0	0	467	143	
2	0	0	0	0	467	142	
3	0	0	0	0	468	143	
4	0	0	0	0	468	143	
5	0	0	0	0	470	142	
6	0	0	0	0	471	143	
7	0	0	0	0	472	143	
8	0	0	0	0	473	142	
9	0	0	0	0	474	143	
10	0	0	0	0	475	142	
11	0	0	0	0	476	143	
12	0	0	0	0	476	143	
13	0	0	0	0	479	142	
14	0	0	0	0	480	143	
15	0	0	0	0	479	142	
0	0	0	0	0	480	142	
1	0	0	0	0	480	143	
2	0	0	0	0	480	142	
3	0	0	0	0	481	143	
4	0	0	0	0	482	142	
5	0	0	0	0	483	142	
6	0	0	0	0	483	143	
7	0	0	0	0	487	142	
8	0	0	0	0	489	142	
9	0	0	0	0	487	143	
10	0	0	0	0	486	143	
11	0	0	0	0	484	142	
12	0	0	0	0	484	143	
13	0	0	0	0	483	142	
14	0	0	0	0	483	143	
15	0	0	0	0	483	143	
0	0	0	0	0	483	142	
1	0	0	0	0	484	143	
2	0	0	0	0	486	143	
3	0	0	0	0	488	142	
4	0	0	0	0	489	143	
5	0	0	0	0	489	142	
6	0	0	0	0	489	143	
7	0	0	0	0	489	143	
8	0	0	0	0	489	142	
9	0	0	0	0	489	143	
10	0	0	0	0	488	143	
11	0	0	0	0	488	142	
12	0	0	0	0	487	143	
13	0	0	0	0	487	143	
14	0	0	0	0	487	142	
15	0	0	0	0	488	143	
0	0	0	0	0	491	143	
1	0	0	0	0	492	142	
2	0	0	0	0	491	143	
3	0	0	0	0	488	143	
4	0	0	0	0	486	143	
5	0	0	0	0	483	143	
6	0	0	0	0	482	142	
7	0	0	0	0	481	143	
8	0	0	0	0	480	143	
9	0	0	0	0	480	142	
10	0	0	0	0	480	143	
11	0	0	0	0	479	143	
12	0	0	0	0	479	142	
13	0	0	0	0	479	143	
14	0	0	0	0	480	143	
15	0	0	0	0	480	142	
0	0	0	0	0	482	143	
1	0	0	0	0	483	143	
2	0	0	0	0	483	142	
3	0	0	0	0	483	143	
4	0	0	0	0	484	143	
5	0	0	0	0	484	142	
6	0	0	0	0	484	143	
7	0	0	0	0	484	143	
8	0	0	0	0	486	142	
9	0	0	0	0	490	143	
10	0	0	0	0	491	142	
11	0	0	0	0	488	142	
12	0	0	0	0	487	143	
13	0	0	0	0	486	142	
14	0	0	0	0	486	143	
15	0	0	0	0	486	143	
0	0	0	0	0	486	142	
1	0	0	0	0	486	142	
2	0	0	0	0	486	143	
3	0	0	0	0	485	143	
4	0	0	0	0	484	142	
5	0	0	0	0	486	143	
6	0	0	0	0	487	143	
7	0	0	0	0	489	143	
8	0	0	0	0	489	142	
9	0	0	0	0	488	143	
10	0	0	0	0	489	143	
11	0	0	0	0	489	142	
12	0	0	0	0	491	143	
13	0	0	0	0	493	143	
14	0	0	0	0	495	142	
15	0	0	0	0	496	143	
0	0	0	0	0	497	143	
1	0	0	0	0	497	142	
2	0	0	0	0	497	143	
3	0	0	0	0	496	143	
4	0	0	0	0	496	142	
5	0	0	0	0	498	143	
6	0	0	0	0	499	143	
7	0	0	0	0	499	142	
8	0	0	0	0	498	143	
9	0	0	0	0	497	143	
10	0	0	0	0	498	142	
11	0	0	0	0	500	143	
12	0	0	0	0	501	143	
13	0	0	0	0	503	142	
14	0	0	0	0	504	143	
15	0	0	0	0	504	143	
0	0	0	0	0	503	142	
1	0	0	0	0	503	143	
2	0	0	0	0	503	143	
3	0	0	0	0	504	142	
4	0	0	0	0	503	143	
5	0	0	0	0	503	142	
6	0	0	0	0	503	143	
7	0	0	0	0	503	143	
8	0	0	0	0	502	142	
9	0	0	0	0	501	143	
10	0	0	0	0	501	143	
11	0	0	0	0	501	142	
12	0	0	0	0	500	143	
13	0	0	0	0	499	142	
14	0	0	0	0	497	143	
15	0	0	0	0	496	143	
0	0	0	0	0	499	142	
1	0	0	0	0	501	143	
2	0	0	0	0	501	143	
3	0	0	0	0	499	142	
4	0	0	0	0	498	143	
5	0	0	0	0	498	143	
6	0	0	0	0	499	142	
7	0	0	0	0	499	143	
8	0	0	0	0	501	143	
9	0	0	0	0	503	143	
10	0	0	0	0	504	143	
11	0	0	0	0	504	142	
12	0	0	0	0	502	143	
13	0	0	0	0	502	143	
14	0	0	0	0	503	142	
15	0	0	0	0	504	143	
0	0	0	0	0	504	143	
1	0	0	0	0	504	142	
2	0	0	0	0	504	143	
3	0	0	0	0	504	143	
4	0	0	0	0	505	142	
5	0	0	0	0	509	143	
6	0	0	0	0	512	143	
7	0	0	0	0	512	142	
8	0	0	0	0	511	143	
9	0	0	0	0	512	142	
10	0	0	0	0	514	143	
11	0	0	0	0	513	143	
12	0	0	0	0	512	142	
13	0	0	0	0	510	143	
14	0	0	0	0	508	142	
15	0	0	0	0	505	143	
0	0	0	0	0	505	143	
1	0	0	0	0	505	142	
2	0	0	0	0	506	143	
3	0	0	0	0	506	143	
4	0	0	0	0	507	142	
5	0	0	0	0	507	143	
6	0	0	0	0	507	143	
7	0	0	0	0	507	142	
8	0	0	0	0	505	143	
9	0	0	0	0	504	143	
10	0	0	0	0	504	143	
11	0	0	0	0	504	142	
12	0	0	0	0	504	143	
13	0	0	0	0	503	143	
14	0	0	0	0	503	143	
15	0	0	0	0	504	143	
0	0	0	0	0	507	142	
1	0	0	0	0	510	143	
2	0	0	0	0	510	143	
3	0	0	0	0	509	142	
4	0	0	0	0	505	143	
5	0	0	0	0	502	143	
6	0	0	0	0	500	143	
7	0	0	0	0	500	143	
8	0	0	0	0	501	142	
9	0	0	0	0	501	143	
10	0	0	0	0	501	143	
11	0	0	0	0	501	142	
12	0	0	0	0	502	143	
13	0	0	0	0	501	143	
14	0	0	0	0	502	142	
15	0	0	0	0	502	143	
0	0	0	0	0	503	143	
1	0	0	0	0	504	142	
2	0	0	0	0	504	143	
3	0	0	0	0	505	143	
4	0	0	0	0	505	142	
5	0	0	0	0	506	143	
6	0	0	0	0	507	143	
7	0	0	0	0	507	142	
8	0	0	0	0	508	143	
9	0	0	0	0	508	143	
10	0	0	0	0	509	142	
11	0	0	0	0	509	143	
12	0	0	0	0	508	143	
13	0	0	0	0	509	142	
14	0	0	0	0	508	143	
15	0	0	0	0	509	143	
0	0	0	0	0	510	142	
1	0	0	0	0	510	143	
2	0	0	0	0	509	143	
3	0	0	0	0	508	142	
4	0	0	0	0	508	143	
5	0	0	0	0	512	143	
6	0	0	0	0	514	143	
7	0	0	0	0	512	142	
8	0	0	0	0	510	143	
9	0	0	0	0	508	143	
10	0	0	0	0	508	142	
11	0	0	0	0	508	143	
12	0	0	0	0	508	143	
13	0	0	0	0	509	142	
14	0	0	0	0	510	143	
15	0	0	0	0	509	143	
0	0	0	0	0	509	142	
1	0	0	0	0	509	143	
2	0	0	0	0	509	143	
3	0	0	0	0	509	143	
4	0	0	0	0	509	143	
5	0	0	0	0	510	143	
6	0	0	0	0	511	143	
7	0	0	0	0	512	143	
8	0	0	0	0	513	142	
9	0	0	0	0	513	143	
10	0	0	0	0	514	143	
11	0	0	0	0	514	142	
12	0	0	0	0	516	143	
13	0	0	0	0	517	143	
14	0	0	0	0	518	142	
15	0	0	0	0	519	143	
0	0	0	0	0	520	143	
1	0	0	0	0	521	142	
2	0	0	0	0	522	143	
3	0	0	0	0	523	143	
4	0	0	0	0	523	142	
5	0	0	0	0	523	143	
6	0	0	0	0	523	143	
7	0	0	0	0	522	142	
8	0	0	0	0	523	143	
9	0	0	0	0	523	143	
10	0	0	0	0	523	142	
11	0	0	0	0	524	143	
12	0	0	0	0	527	143	
13	0	0	0	0	528	142	
14	0	0	0	0	526	143	
15	0	0	0	0	523	143	
0	0	0	0	0	522	142	
1	0	0	0	0	521	143	
2	0	0	0	0	520	143	
3	0	0	0	0	520	142	
4	0	0	0	0	520	143	
5	0	0	0	0	520	143	
6	0	0	0	0	521	142	
7	0	0	0	0	522	143	
8	0	0	0	0	522	143	
9	0	0	0	0	523	142	
10	0	0	0	0	524	143	
11	0	0	0	0	524	142	
12	0	0	0	0	524	143	
13	0	0	0	0	522	143	
14	0	0	0	0	523	142	
15	0	0	0	0	525	143	
0	0	0	0	0	526	142	
1	0	0	0	0	524	143	
2	0	0	0	0	520	143	
3	0	0	0	0	518	142	
4	0	0	0	0	516	143	
5	0	0	0	0	516	143	
6	0	0	0	0	517	143	
7	0	0	0	0	519	143	
8	0	0	0	0	519	142	
9	0	0	0	0	519	143	
10	0	0	0	0	519	143	
11	0	0	0	0	519	142	
12	0	0	0	0	520	143	
13	0	0	0	0	521	143	
14	0	0	0	0	520	142	
15	0	0	0	0	519	143	
0	0	0	0	0	519	143	
1	0	0	0	0	518	143	
2	0	0	0	0	518	143	
3	0	0	0	0	518	143	
4	0	0	0	0	517	142	
5	0	0	0	0	516	143	
6	0	0	0	0	515	143	
7	0	0	0	0	514	142	
8	0	0	0	0	513	143	
9	0	0	0	0	513	143	
10	0	0	0	0	513	142	
11	0	0	0	0	516	143	
12	0	0	0	0	519	143	
13	0	0	0	0	519	142	
14	0	0	0	0	517	143	
15	0	0	0	0	516	143	
0	0	0	0	0	516	143	
1	0	0	0	0	516	143	
2	0	0	0	0	519	142	
3	0	0	0	0	521	143	
4	0	0	0	0	524	143	
5	0	0	0	0	526	142	
6	0	0	0	0	527	143	
7	0	0	0	0	528	143	
8	0	0	0	0	528	142	
9	0	0	0	0	527	143	
10	0	0	0	0	526	143	
11	0	0	0	0	527	143	
12	0	0	0	0	527	143	
13	0	0	0	0	528	142	
14	0	0	0	0	526	143	
15	0	0	0	0	524	143	
0	0	0	0	0	523	142	
1	0	0	0	0	522	143	
2	0	0	0	0	521	143	
3	0	0	0	0	521	142	
4	0	0	0	0	521	143	
5	0	0	0	0	520	143	
6	0	0	0	0	522	142	
7	0	0	0	0	526	143	
8	0	0	0	0	526	143	
9	0	0	0	0	523	143	
10	0	0	0	0	520	143	
11	0	0	0	0	519	142	
12	0	0	0	0	519	143	
13	0	0	0	0	519	143	
14	0	0	0	0	518	143	
15	0	0	0	0	519	143	
0	0	0	0	0	519	143	
1	0	0	0	0	520	143	
2	0	0	0	0	520	143	
3	0	0	0	0	521	143	
4	0	0	0	0	521	142	
5	0	0	0	0	521	143	
6	0	0	0	0	521	143	
7	0	0	0	0	520	143	
8	0	0	0	0	521	143	
9	0	0	0	0	520	142	
10	0	0	0	0	519	143	
11	0	0	0	0	519	144	
12	0	0	0	0	520	143	
13	0	0	0	0	520	143	
14	0	0	0	0	519	142	
15	0	0	0	0	519	143	
0	0	0	0	0	519	143	
1	0	0	0	0	522	144	
2	0	0	0	0	525	142	
3	0	0	0	0	523	143	
4	0	0	0	0	520	144	
5	0	0	0	0	519	143	
6	0	0	0	0	518	143	
7	0	0	0	0	517	142	
8	0	0	0	0	516	143	
9	0	0	0	0	516	143	
10	0	0	0	0	516	143	
11	0	0	0	0	517	143	
12	0	0	0	0	517	143	
13	0	0	0	0	517	143	
14	0	0	0	0	516	143	
15	0	0	0	0	516	142	
0	0	0	0	0	518	143	
1	0	0	0	0	518	144	
2	0	0	0	0	519	143	
3	0	0	0	0	520	143	
4	0	0	0	0	521	143	
5	0	0	0	0	521	143	
6	0	0	0	0	520	143	
7	0	0	0	0	519	143	
8	0	0	0	0	519	143	
9	0	0	0	0	522	143	
10	0	0	0	0	524	142	
11	0	0	0	0	523	143	
12	0	0	0	0	521	143	
13	0	0	0	0	519	143	
14	0	0	0	0	518	143	
15	0	0	0	0	518	142	
0	0	0	0	0	518	143	
1	0	0	0	0	518	144	
2	0	0	0	0	518	143	
3	0	0	0	0	520	143	
4	0	0	0	0	522	142	
5	0	0	0	0	522	143	
6	0	0	0	0	521	143	
7	0	0	0	0	521	142	
8	0	0	0	0	520	143	
9	0	0	0	0	520	143	
10	0	0	0	0	520	143	
11	0	0	0	0	521	143	
12	0	0	0	0	523	143	
13	0	0	0	0	523	143	
14	0	0	0	0	522	143	
15	0	0	0	0	521	142	
0	0	0	0	0	520	143	
1	0	0	0	0	520	143	
2	0	0	0	0	520	143	
3	0	0	0	0	519	143	
4	0	0	0	0	519	143	
5	0	0	0	0	519	143	
6	0	0	0	0	519	143	
7	0	0	0	0	519	142	
8	0	0	0	0	523	143	
9	0	0	0	0	524	143	
10	0	0	0	0	523	142	
11	0	0	0	0	521	143	
12	0	0	0	0	519	144	
13	0	0	0	0	518	143	
14	0	0	0	0	517	143	
15	0	0	0	0	516	143	
0	0	0	0	0	515	143	
1	0	0	0	0	516	143	
2	0	0	0	0	516	144	
3	0	0	0	0	517	142	
4	0	0	0	0	517	143	
5	0	0	0	0	517	143	
6	0	0	0	0	517	143	
7	0	0	0	0	518	143	
8	0	0	0	0	518	143	
9	0	0	0	0	518	142	
10	0	0	0	0	517	143	
11	0	0	0	0	517	144	
12	0	0	0	0	516	143	
13	0	0	0	0	516	143	
14	0	0	0	0	516	143	
15	0	0	0	0	517	143	
0	0	0	0	0	521	143	
1	0	0	0	0	523	144	
2	0	0	0	0	519	143	
3	0	0	0	0	515	143	
4	0	0	0	0	512	143	
5	0	0	0	0	510	143	
6	0	0	0	0	508	143	
7	0	0	0	0	507	143	
8	0	0	0	0	506	143	
9	0	0	0	0	507	143	
10	0	0	0	0	509	142	
11	0	0	0	0	510	143	
12	0	0	0	0	510	144	
13	0	0	0	0	510	142	
14	0	0	0	0	510	143	
15	0	0	0	0	510	143	
0	0	0	0	0	509	143	
1	0	0	0	0	509	143	
2	0	0	0	0	508	143	
3	0	0	0	0	508	142	
4	0	0	0	0	507	143	
5	0	0	0	0	507	144	
6	0	0	0	0	507	143	
7	0	0	0	0	507	143	
8	0	0	0	0	506	143	
9	0	0	0	0	505	143	
10	0	0	0	0	505	143	
11	0	0	0	0	504	142	
12	0	0	0	0	504	143	
13	0	0	0	0	504	144	
14	0	0	0	0	504	143	
15	0	0	0	0	504	143	
0	0	0	0	0	502	143	
1	0	0	0	0	500	143	
2	0	0	0	0	500	143	
3	0	0	0	0	500	143	
4	0	0	0	0	501	143	
5	0	0	0	0	502	143	
6	0	0	0	0	502	142	
7	0	0	0	0	504	143	
8	0	0	0	0	505	143	
9	0	0	0	0	510	143	
10	0	0	0	0	512	143	
11	0	0	0	0	510	144	
12	0	0	0	0	509	143	
13	0	0	0	0	509	143	
14	0	0	0	0	508	143	
15	0	0	0	0	508	143	
0	0	0	0	0	508	143	
1	0	0	0	0	509	143	
2	0	0	0	0	509	143	
3	0	0	0	0	509	143	
4	0	0	0	0	507	143	
5	0	0	0	0	507	143	
6	0	0	0	0	506	143	
7	0	0	0	0	507	143	
8	0	0	0	0	508	143	
9	0	0	0	0	508	143	
10	0	0	0	0	508	143	
11	0	0	0	0	510	143	
12	0	0	0	0	511	144	
13	0	0	0	0	509	142	
14	0	0	0	0	507	144	
15	0	0	0	0	505	144	
0	0	0	0	0	505	143	
1	0	0	0	0	506	144	
2	0	0	0	0	506	143	
3	0	0	0	0	506	143	
4	0	0	0	0	505	143	
5	0	0	0	0	505	143	
6	0	0	0	0	504	144	
7	0	0	0	0	502	144	
8	0	0	0	0	502	142	
9	0	0	0	0	501	143	
10	0	0	0	0	502	144	
11	0	0	0	0	503	143	
12	0	0	0	0	504	144	
13	0	0	0	0	504	144	
14	0	0	0	0	504	143	
15	0	0	0	0	504	144	
0	0	0	0	0	505	143	
1	0	0	0	0	505	143	
2	0	0	0	0	504	144	
3	0	0	0	0	504	143	
4	0	0	0	0	503	144	
5	0	0	0	0	503	144	
6	0	0	0	0	503	143	
7	0	0	0	0	503	143	
8	0	0	0	0	503	143	
9	0	0	0	0	503	144	
10	0	0	0	0	503	143	
11	0	0	0	0	504	144	
12	0	0	0	0	504	144	
13	0	0	0	0	505	143	
14	0	0	0	0	505	143	
15	0	0	0	0	505	143	
0	0	0	0	0	506	143	
1	0	0	0	0	510	143	
2	0	0	0	0	512	142	
3	0	0	0	0	513	143	
4	0	0	0	0	512	144	
5	0	0	0	0	511	142	
6	0	0	0	0	510	143	
7	0	0	0	0	510	144	
8	0	0	0	0	510	143	
9	0	0	0	0	510	143	
10	0	0	0	0	509	143	
11	0	0	0	0	508	143	
12	0	0	0	0	508	144	
13	0	0	0	0	509	143	
14	0	0	0	0	510	143	
15	0	0	0	0	511	143	
0	0	0	0	0	512	143	
1	0	0	0	0	511	143	
2	0	0	0	0	511	144	
3	0	0	0	0	511	143	
4	0	0	0	0	511	144	
5	0	0	0	0	511	143	
6	0	0	0	0	514	143	
7	0	0	0	0	515	144	
8	0	0	0	0	514	143	
9	0	0	0	0	512	143	
10	0	0	0	0	510	142	
11	0	0	0	0	510	143	
12	0	0	0	0	509	144	
13	0	0	0	0	509	143	
14	0	0	0	0	509	143	
15	0	0	0	0	510	143	
0	0	0	0	0	510	143	
1	0	0	0	0	510	143	
2	0	0	0	0	511	143	
3	0	0	0	0	511	142	
4	0	0	0	0	512	143	
5	0	0	0	0	513	143	
6	0	0	0	0	513	143	
7	0	0	0	0	513	143	
8	0	0	0	0	512	143	
9	0	0	0	0	511	143	
10	0	0	0	0	511	143	
11	0	0	0	0	512	143	
12	0	0	0	0	513	143	
13	0	0	0	0	514	143	
14	0	0	0	0	513	143	
15	0	0	0	0	514	143	
0	0	0	0	0	516	143	
1	0	0	0	0	519	143	
2	0	0	0	0	519	143	
3	0	0	0	0	518	143	
4	0	0	0	0	516	143	
5	0	0	0	0	515	143	
6	0	0	0	0	515	143	
7	0	0	0	0	515	143	
8	0	0	0	0	515	142	
9	0	0	0	0	515	143	
10	0	0	0	0	514	144	
11	0	0	0	0	514	142	
12	0	0	0	0	514	143	
13	0	0	0	0	514	144	
14	0	0	0	0	515	142	
15	0	0	0	0	515	143	
0	0	0	0	0	515	143	
1	0	0	0	0	515	143	
2	0	0	0	0	518	143	
3	0	0	0	0	519	142	
4	0	0	0	0	519	143	
5	0	0	0	0	518	143	
6	0	0	0	0	519	143	
7	0	0	0	0	523	143	
8	0	0	0	0	524	143	
9	0	0	0	0	522	143	
10	0	0	0	0	519	143	
11	0	0	0	0	515	144	
12	0	0	0	0	512	143	
13	0	0	0	0	511	143	
14	0	0	0	0	511	142	
15	0	0	0	0	510	143	
0	0	0	0	0	510	143	
1	0	0	0	0	511	143	
2	0	0	0	0	512	143	
3	0	0	0	0	512	143	
4	0	0	0	0	513	143	
5	0	0	0	0	513	143	
6	0	0	0	0	512	143	
7	0	0	0	0	511	142	
8	0	0	0	0	510	143	
9	0	0	0	0	508	144	
10	0	0	0	0	509	143	
11	0	0	0	0	509	143	
12	0	0	0	0	509	142	
13	0	0	0	0	508	143	
14	0	0	0	0	508	144	
15	0	0	0	0	508	143	
0	0	0	0	0	508	143	
1	0	0	0	0	508	143	
2	0	0	0	0	507	143	
3	0	0	0	0	507	143	
4	0	0	0	0	507	142	
5	0	0	0	0	505	143	
6	0	0	0	0	505	144	
7	0	0	0	0	505	143	
8	0	0	0	0	505	143	
9	0	0	0	0	505	143	
10	0	0	0	0	504	143	
11	0	0	0	0	503	144	
12	0	0	0	0	501	143	
13	0	0	0	0	500	143	
14	0	0	0	0	499	144	
15	0	0	0	0	498	143	
0	0	0	0	0	498	143	
1	0	0	0	0	499	143	
2	0	0	0	0	503	143	
3	0	0	0	0	504	143	
4	0	0	0	0	501	143	
5	0	0	0	0	498	143	
6	0	0	0	0	495	143	
7	0	0	0	0	494	143	
8	0	0	0	0	493	144	
9	0	0	0	0	492	143	
10	0	0	0	0	491	143	
11	0	0	0	0	491	144	
12	0	0	0	0	490	143	
13	0	0	0	0	490	143	
14	0	0	0	0	490	144	
15	0	0	0	0	490	143	
0	0	0	0	0	490	144	
1	0	0	0	0	490	143	
2	0	0	0	0	490	143	
3	0	0	0	0	492	144	
4	0	0	0	0	493	143	
5	0	0	0	0	495	143	
6	0	0	0	0	494	144	
7	0	0	0	0	495	143	
8	0	0	0	0	495	143	
9	0	0	0	0	495	143	
10	0	0	0	0	494	143	
11	0	0	0	0	496	144	
12	0	0	0	0	498	143	
13	0	0	0	0	497	143	
14	0	0	0	0	496	144	
15	0	0	0	0	495	143	
0	0	0	0	0	494	144	
1	0	0	0	0	494	143	
2	0	0	0	0	494	143	
3	0	0	0	0	495	144	
4	0	0	0	0	496	143	
5	0	0	0	0	496	143	
6	0	0	0	0	496	144	
7	0	0	0	0	496	143	
8	0	0	0	0	498	143	
9	0	0	0	0	498	143	
10	0	0	0	0	499	143	
11	0	0	0	0	500	144	
12	0	0	0	0	500	143	
13	0	0	0	0	500	143	
14	0	0	0	0	499	144	
15	0	0	0	0	499	143	
0	0	0	0	0	498	143	
1	0	0	0	0	498	143	
2	0	0	0	0	498	143	
3	0	0	0	0	497	144	
4	0	0	0	0	497	143	
5	0	0	0	0	496	143	
6	0	0	0	0	497	143	
7	0	0	0	0	501	143	
8	0	0	0	0	502	144	
9	0	0	0	0	499	143	
10	0	0	0	0	496	143	
11	0	0	0	0	495	144	
12	0	0	0	0	495	143	
13	0	0	0	0	496	143	
14	0	0	0	0	496	143	
15	0	0	0	0	499	143	
0	0	0	0	0	504	144	
1	0	0	0	0	511	143	
2	0	0	0	0	519	143	
3	0	0	0	0	529	143	
4	0	0	0	0	539	143	
5	0	0	0	0	550	143	
6	0	0	0	0	560	143	
7	0	0	0	0	571	143	
8	0	0	0	0	583	143	
9	0	0	0	0	594	142	
10	0	0	0	0	605	143	
11	0	0	0	0	614	143	
12	0	0	0	0	621	142	
13	0	0	0	0	628	143	
14	0	0	0	0	633	143	
15	0	0	0	0	638	142	
0	0	0	0	0	640	143	
1	0	0	0	0	641	142	
2	0	0	0	0	642	143	
3	0	0	0	0	642	143	
4	0	0	0	0	642	142	
5	0	0	0	0	643	143	
6	0	0	0	0	641	143	
7	0	0	0	0	632	142	
8	0	0	0	0	624	143	
9	0	0	0	0	613	142	
10	0	0	0	0	603	143	
11	0	0	0	0	594	143	
12	0	0	0	0	585	142	
13	0	0	0	0	577	143	
14	0	0	0	0	568	143	
15	0	0	0	0	559	142	
0	0	0	0	0	548	143	
1	0	0	0	0	537	143	
2	0	0	0	0	527	142	
3	0	0	0	0	517	143	
4	0	0	0	0	506	143	
5	0	0	0	0	496	143	
6	0	0	0	0	486	143	
7	0	0	0	0	477	143	
8	0	0	0	0	471	143	
9	0	0	0	0	465	144	
10	0	0	0	0	460	143	
11	0	0	0	0	455	144	
12	0	0	0	0	452	144	
13	0	0	0	0	452	143	
14	0	0	0	0	451	144	
15	0	0	0	0	450	143	
0	0	0	0	0	448	143	
1	0	0	0	0	447	144	
2	0	0	0	0	445	143	
3	0	0	0	0	444	144	
4	0	0	0	0	445	144	
5	0	0	0	0	446	143	
6	0	0	0	0	447	144	
7	0	0	0	0	448	143	
8	0	0	0	0	449	143	
9	0	0	0	0	451	143	
10	0	0	0	0	452	144	
11	0	0	0	0	454	143	
12	0	0	0	0	457	144	
13	0	0	0	0	460	143	
14	0	0	0	0	463	143	
15	0	0	0	0	465	144	
0	0	0	0	0	467	143	
1	0	0	0	0	468	143	
2	0	0	0	0	469	143	
3	0	0	0	0	470	143	
4	0	0	0	0	470	144	
5	0	0	0	0	472	143	
6	0	0	0	0	476	143	
7	0	0	0	0	478	144	
8	0	0	0	0	479	143	
9	0	0	0	0	482	143	
10	0	0	0	0	484	144	
11	0	0	0	0	482	143	
12	0	0	0	0	480	144	
13	0	0	0	0	480	144	
14	0	0	0	0	478	143	
15	0	0	0	0	479	143	
0	0	0	0	0	480	144	
1	0	0	0	0	481	143	
2	0	0	0	0	480	143	
3	0	0	0	0	479	143	
4	0	0	0	0	479	144	
5	0	0	0	0	480	144	
6	0	0	0	0	480	143	
7	0	0	0	0	482	144	
8	0	0	0	0	484	143	
9	0	0	0	0	486	143	
10	0	0	0	0	488	143	
11	0	0	0	0	490	143	
12	0	0	0	0	491	144	
13	0	0	0	0	492	143	
14	0	0	0	0	492	144	
15	0	0	0	0	493	144	
0	0	0	0	0	496	143	
1	0	0	0	0	502	143	
2	0	0	0	0	504	142	
3	0	0	0	0	502	143	
4	0	0	0	0	502	144	
5	0	0	0	0	501	143	
6	0	0	0	0	501	143	
7	0	0	0	0	502	143	
8	0	0	0	0	502	143	
9	0	0	0	0	504	143	
10	0	0	0	0	505	143	
11	0	0	0	0	506	143	
12	0	0	0	0	507	143	
13	0	0	0	0	507	143	
14	0	0	0	0	508	143	
15	0	0	0	0	508	143	
0	0	0	0	0	509	143	
1	0	0	0	0	510	143	
2	0	0	0	0	510	143	
3	0	0	0	0	510	143	
4	0	0	0	0	510	143	
5	0	0	0	0	511	143	
6	0	0	0	0	512	142	
7	0	0	0	0	513	143	
8	0	0	0	0	513	143	
9	0	0	0	0	513	143	
10	0	0	0	0	513	143	
11	0	0	0	0	513	142	
12	0	0	0	0	514	143	
13	0	0	0	0	517	144	
14	0	0	0	0	521	143	
15	0	0	0	0	522	143	
0	0	0	0	0	520	143	
1	0	0	0	0	517	143	
2	0	0	0	0	515	144	
3	0	0	0	0	515	143	
4	0	0	0	0	515	143	
5	0	0	0	0	515	142	
6	0	0	0	0	516	143	
7	0	0	0	0	517	143	
8	0	0	0	0	518	143	
9	0	0	0	0	519	143	
10	0	0	0	0	519	142	
11	0	0	0	0	520	143	
12	0	0	0	0	519	143	
13	0	0	0	0	518	143	
14	0	0	0	0	517	143	
15	0	0	0	0	518	144	
0	0	0	0	0	517	143	
1	0	0	0	0	517	143	
2	0	0	0	0	516	142	
3	0	0	0	0	516	143	
4	0	0	0	0	516	143	
5	0	0	0	0	516	143	
6	0	0	0	0	515	143	
7	0	0	0	0	514	143	
8	0	0	0	0	513	143	
9	0	0	0	0	514	143	
10	0	0	0	0	514	142	
11	0	0	0	0	515	143	
12	0	0	0	0	516	144	
13	0	0	0	0	516	143	
14	0	0	0	0	518	143	
15	0	0	0	0	519	143	
0	0	0	0	0	519	143	
1	0	0	0	0	522	143	
2	0	0	0	0	524	143	
3	0	0	0	0	522	143	
4	0	0	0	0	519	143	
5	0	0	0	0	517	143	
6	0	0	0	0	515	143	
7	0	0	0	0	515	143	
8	0	0	0	0	514	143	
9	0	0	0	0	514	144	
10	0	0	0	0	515	143	
11	0	0	0	0	515	143	
12	0	0	0	0	515	142	
13	0	0	0	0	516	143	
14	0	0	0	0	517	143	
15	0	0	0	0	518	142	
0	0	0	0	0	518	143	
1	0	0	0	0	519	143	
2	0	0	0	0	519	143	
3	0	0	0	0	519	143	
4	0	0	0	0	519	142	
5	0	0	0	0	519	143	
6	0	0	0	0	519	143	
7	0	0	0	0	518	143	
8	0	0	0	0	518	143	
9	0	0	0	0	518	142	
10	0	0	0	0	518	143	
11	0	0	0	0	517	143	
12	0	0	0	0	517	143	
13	0	0	0	0	517	143	
14	0	0	0	0	517	142	
15	0	0	0	0	518	143	
0	0	0	0	0	519	143	
1	0	0	0	0	518	143	
2	0	0	0	0	517	143	
3	0	0	0	0	517	143	
4	0	0	0	0	519	143	
5	0	0	0	0	519	143	
6	0	0	0	0	517	142	
7	0	0	0	0	515	143	
8	0	0	0	0	513	143	
9	0	0	0	0	512	143	
10	0	0	0	0	512	143	
11	0	0	0	0	513	143	
12	0	0	0	0	515	143	
13	0	0	0	0	518	143	
14	0	0	0	0	521	142	
15	0	0	0	0	522	143	
0	0	0	0	0	522	143	
1	0	0	0	0	522	142	
2	0	0	0	0	522	143	
3	0	0	0	0	523	143	
4	0	0	0	0	524	142	
5	0	0	0	0	525	143	
6	0	0	0	0	524	143	
7	0	0	0	0	524	143	
8	0	0	0	0	524	143	
9	0	0	0	0	524	142	
10	0	0	0	0	525	143	
11	0	0	0	0	525	144	
12	0	0	0	0	525	143	
13	0	0	0	0	526	143	
14	0	0	0	0	526	142	
15	0	0	0	0	526	143	
0	0	0	0	0	526	143	
1	0	0	0	0	527	142	
2	0	0	0	0	527	143	
3	0	0	0	0	527	143	
4	0	0	0	0	527	143	
5	0	0	0	0	527	143	
6	0	0	0	0	528	142	
7	0	0	0	0	529	143	
8	0	0	0	0	527	143	
9	0	0	0	0	525	142	
10	0	0	0	0	523	143	
11	0	0	0	0	521	142	
12	0	0	0	0	522	143	
13	0	0	0	0	523	144	
14	0	0	0	0	526	143	
15	0	0	0	0	532	143	
0	0	0	0	0	539	142	
1	0	0	0	0	544	143	
2	0	0	0	0	546	143	
3	0	0	0	0	547	142	
4	0	0	0	0	550	143	
5	0	0	0	0	551	142	
6	0	0	0	0	551	142	
7	0	0	0	0	551	143	
8	0	0	0	0	551	142	
9	0	0	0	0	553	143	
10	0	0	0	0	553	143	
11	0	0	0	0	553	142	
12	0	0	0	0	553	143	
13	0	0	0	0	552	143	
14	0	0	0	0	551	143	
15	0	0	0	0	550	143	
0	0	0	0	0	550	142	
1	0	0	0	0	550	143	
2	0	0	0	0	550	143	
3	0	0	0	0	550	142	
4	0	0	0	0	550	143	
5	0	0	0	0	548	143	
6	0	0	0	0	547	142	
7	0	0	0	0	545	143	
8	0	0	0	0	546	142	
9	0	0	0	0	549	143	
10	0	0	0	0	547	143	
11	0	0	0	0	543	142	
12	0	0	0	0	539	143	
13	0	0	0	0	537	142	
14	0	0	0	0	536	143	
15	0	0	0	0	538	143	
0	0	0	0	0	540	142	
1	0	0	0	0	540	143	
2	0	0	0	0	540	143	
3	0	0	0	0	541	143	
4	0	0	0	0	541	142	
5	0	0	0	0	543	143	
6	0	0	0	0	547	143	
7	0	0	0	0	551	142	
8	0	0	0	0	553	143	
9	0	0	0	0	555	142	
10	0	0	0	0	559	143	
11	0	0	0	0	564	143	
12	0	0	0	0	568	142	
13	0	0	0	0	569	143	
14	0	0	0	0	568	142	
15	0	0	0	0	567	143	
0	0	0	0	0	567	143	
1	0	0	0	0	568	142	
2	0	0	0	0	569	143	
3	0	0	0	0	574	142	
4	0	0	0	0	577	143	
5	0	0	0	0	576	143	
6	0	0	0	0	572	142	
7	0	0	0	0	570	143	
8	0	0	0	0	568	143	
9	0	0	0	0	565	142	
10	0	0	0	0	564	143	
11	0	0	0	0	563	143	
12	0	0	0	0	561	143	
13	0	0	0	0	560	143	
14	0	0	0	0	558	142	
15	0	0	0	0	556	143	
0	0	0	0	0	553	142	
1	0	0	0	0	551	143	
2	0	0	0	0	549	143	
3	0	0	0	0	550	142	
4	0	0	0	0	550	143	
5	0	0	0	0	549	142	
6	0	0	0	0	547	143	
7	0	0	0	0	547	143	
8	0	0	0	0	548	142	
9	0	0	0	0	551	143	
10	0	0	0	0	553	143	
11	0	0	0	0	552	142	
12	0	0	0	0	551	143	
13	0	0	0	0	549	142	
14	0	0	0	0	543	143	
15	0	0	0	0	540	143	
0	0	0	0	0	539	142	
1	0	0	0	0	537	143	
2	0	0	0	0	529	143	
3	0	0	0	0	522	143	
4	0	0	0	0	517	143	
5	0	0	0	0	515	143	
6	0	0	0	0	515	142	
7	0	0	0	0	516	143	
8	0	0	0	0	519	143	
9	0	0	0	0	525	142	
10	0	0	0	0	527	143	
11	0	0	0	0	527	142	
12	0	0	0	0	526	143	
13	0	0	0	0	524	143	
14	0	0	0	0	522	143	
15	0	0	0	0	520	143	
0	0	0	0	0	516	142	
1	0	0	0	0	514	143	
2	0	0	0	0	511	143	
3	0	0	0	0	508	142	
4	0	0	0	0	505	143	
5	0	0	0	0	504	143	
6	0	0	0	0	502	142	
7	0	0	0	0	500	143	
8	0	0	0	0	499	143	
9	0	0	0	0	502	143	
10	0	0	0	0	502	143	
11	0	0	0	0	497	142	
12	0	0	0	0	492	143	
13	0	0	0	0	487	143	
14	0	0	0	0	483	143	
15	0	0	0	0	481	143	
0	0	0	0	0	480	142	
1	0	0	0	0	479	143	
2	0	0	0	0	477	143	
3	0	0	0	0	476	143	
4	0	0	0	0	474	143	
5	0	0	0	0	472	143	
6	0	0	0	0	472	142	
7	0	0	0	0	470	143	
8	0	0	0	0	467	143	
9	0	0	0	0	465	142	
10	0	0	0	0	464	143	
11	0	0	0	0	462	143	
12	0	0	0	0	460	143	
13	0	0	0	0	460	143	
14	0	0	0	0	459	143	
15	0	0	0	0	457	143	
0	0	0	0	0	456	143	
1	0	0	0	0	454	143	
2	0	0	0	0	453	143	
3	0	0	0	0	452	143	
4	0	0	0	0	451	143	
5	0	0	0	0	451	143	
6	0	0	0	0	452	143	
7	0	0	0	0	455	143	
8	0	0	0	0	455	143	
9	0	0	0	0	452	143	
10	0	0	0	0	448	142	
11	0	0	0	0	446	143	
12	0	0	0	0	445	144	
13	0	0	0	0	446	143	
14	0	0	0	0	448	143	
15	0	0	0	0	449	142	
0	0	0	0	0	448	143	
1	0	0	0	0	448	143	
2	0	0	0	0	448	143	
3	0	0	0	0	448	143	
4	0	0	0	0	448	143	
5	0	0	0	0	449	143	
6	0	0	0	0	449	143	
7	0	0	0	0	448	143	
8	0	0	0	0	447	142	
9	0	0	0	0	446	143	
10	0	0	0	0	446	143	
11	0	0	0	0	446	143	
12	0	0	0	0	447	143	
13	0	0	0	0	448	143	
14	0	0	0	0	447	143	
15	0	0	0	0	449	143	
0	0	0	0	0	451	143	
1	0	0	0	0	451	142	
2	0	0	0	0	450	143	
3	0	0	0	0	448	143	
4	0	0	0	0	447	142	
5	0	0	0	0	446	143	
6	0	0	0	0	445	143	
7	0	0	0	0	446	142	
8	0	0	0	0	448	143	
9	0	0	0	0	448	143	
10	0	0	0	0	448	142	
11	0	0	0	0	448	143	
12	0	0	0	0	449	143	
13	0	0	0	0	450	142	
14	0	0	0	0	451	143	
15	0	0	0	0	453	143	
0	0	0	0	0	453	143	
1	0	0	0	0	454	143	
2	0	0	0	0	454	143	
3	0	0	0	0	455	143	
4	0	0	0	0	456	143	
5	0	0	0	0	457	143	
6	0	0	0	0	457	143	
7	0	0	0	0	458	143	
8	0	0	0	0	458	142	
9	0	0	0	0	459	143	
10	0	0	0	0	460	143	
11	0	0	0	0	462	143	
12	0	0	0	0	465	143	
13	0	0	0	0	467	142	
14	0	0	0	0	466	143	
15	0	0	0	0	465	143	
0	0	0	0	0	464	143	
1	0	0	0	0	464	143	
2	0	0	0	0	464	142	
3	0	0	0	0	465	143	
4	0	0	0	0	465	143	
5	0	0	0	0	465	142	
6	0	0	0	0	465	143	
7	0	0	0	0	465	143	
8	0	0	0	0	465	142	
9	0	0	0	0	465	143	
10	0	0	0	0	465	143	
11	0	0	0	0	466	142	
12	0	0	0	0	468	143	
13	0	0	0	0	472	143	
14	0	0	0	0	473	142	
15	0	0	0	0	472	143	
0	0	0	0	0	470	143	
1	0	0	0	0	468	143	
2	0	0	0	0	469	143	
3	0	0	0	0	470	143	
4	0	0	0	0	471	143	
5	0	0	0	0	472	143	
6	0	0	0	0	471	143	
7	0	0	0	0	472	142	
8	0	0	0	0	472	143	
9	0	0	0	0	473	143	
10	0	0	0	0	474	143	
11	0	0	0	0	475	143	
12	0	0	0	0	476	142	
13	0	0	0	0	476	143	
14	0	0	0	0	476	143	
15	0	0	0	0	476	142	
0	0	0	0	0	476	143	
1	0	0	0	0	476	142	
2	0	0	0	0	477	143	
3	0	0	0	0	477	143	
4	0	0	0	0	477	142	
5	0	0	0	0	478	143	
6	0	0	0	0	478	143	
7	0	0	0	0	479	142	
8	0	0	0	0	479	143	
9	0	0	0	0	480	142	
10	0	0	0	0	480	143	
11	0	0	0	0	480	143	
12	0	0	0	0	480	142	
13	0	0	0	0	482	143	
14	0	0	0	0	483	143	
15	0	0	0	0	487	142	
0	0	0	0	0	490	143	
1	0	0	0	0	489	143	
2	0	0	0	0	487	143	
3	0	0	0	0	484	143	
4	0	0	0	0	482	142	
5	0	0	0	0	483	143	
6	0	0	0	0	483	143	
7	0	0	0	0	484	142	
8	0	0	0	0	485	143	
9	0	0	0	0	485	143	
10	0	0	0	0	487	142	
11	0	0	0	0	485	143	
12	0	0	0	0	484	143	
13	0	0	0	0	485	142	
14	0	0	0	0	486	143	
15	0	0	0	0	487	142	
0	0	0	0	0	487	142	
1	0	0	0	0	486	143	
2	0	0	0	0	485	142	
3	0	0	0	0	485	143	
4	0	0	0	0	487	143	
5	0	0	0	0	489	142	
6	0	0	0	0	490	143	
7	0	0	0	0	490	143	
8	0	0	0	0	492	142	
9	0	0	0	0	495	143	
10	0	0	0	0	494	143	
11	0	0	0	0	492	142	
12	0	0	0	0	489	143	
13	0	0	0	0	488	143	
14	0	0	0	0	487	142	
15	0	0	0	0	486	143	
0	0	0	0	0	486	143	
1	0	0	0	0	487	142	
2	0	0	0	0	487	143	
3	0	0	0	0	488	143	
4	0	0	0	0	489	142	
5	0	0	0	0	491	143	
6	0	0	0	0	491	143	
7	0	0	0	0	492	142	
8	0	0	0	0	492	143	
9	0	0	0	0	492	143	
10	0	0	0	0	492	142	
11	0	0	0	0	492	143	
12	0	0	0	0	492	143	
13	0	0	0	0	492	142	
14	0	0	0	0	494	143	
15	0	0	0	0	494	142	
0	0	0	0	0	496	143	
1	0	0	0	0	496	143	
2	0	0	0	0	496	142	
3	0	0	0	0	497	143	
4	0	0	0	0	497	142	
5	0	0	0	0	497	142	
6	0	0	0	0	497	143	
7	0	0	0	0	498	142	
8	0	0	0	0	499	142	
9	0	0	0	0	499	143	
10	0	0	0	0	499	143	
11	0	0	0	0	499	142	
12	0	0	0	0	498	143	
13	0	0	0	0	499	142	
14	0	0	0	0	498	142	
15	0	0	0	0	498	143	
0	0	0	0	0	497	142	
1	0	0	0	0	499	143	
2	0	0	0	0	499	143	
3	0	0	0	0	497	142	
4	0	0	0	0	494	143	
5	0	0	0	0	492	142	
6	0	0	0	0	491	143	
7	0	0	0	0	490	143	
8	0	0	0	0	490	142	
9	0	0	0	0	490	143	
10	0	0	0	0	491	142	
11	0	0	0	0	491	143	
12	0	0	0	0	491	143	
13	0	0	0	0	491	142	
14	0	0	0	0	491	143	
15	0	0	0	0	492	142	
0	0	0	0	0	492	142	
1	0	0	0	0	493	143	
2	0	0	0	0	494	142	
3	0	0	0	0	494	142	
4	0	0	0	0	495	143	
5	0	0	0	0	495	142	
6	0	0	0	0	496	142	
7	0	0	0	0	497	143	
8	0	0	0	0	497	142	
9	0	0	0	0	499	143	
10	0	0	0	0	501	143	
11	0	0	0	0	501	142	
12	0	0	0	0	502	143	
13	0	0	0	0	502	143	
14	0	0	0	0	503	142	
15	0	0	0	0	503	143	
0	0	0	0	0	506	142	
1	0	0	0	0	509	143	
2	0	0	0	0	508	143	
3	0	0	0	0	506	142	
4	0	0	0	0	505	143	
5	0	0	0	0	505	142	
6	0	0	0	0	506	142	
7	0	0	0	0	507	143	
8	0	0	0	0	507	142	
9	0	0	0	0	506	143	
10	0	0	0	0	507	143	
11	0	0	0	0	508	142	
12	0	0	0	0	510	143	
13	0	0	0	0	512	142	
14	0	0	0	0	515	142	
15	0	0	0	0	517	143	
0	0	0	0	0	519	142	
1	0	0	0	0	519	143	
2	0	0	0	0	519	143	
3	0	0	0	0	519	142	
4	0	0	0	0	518	143	
5	0	0	0	0	519	143	
6	0	0	0	0	520	142	
7	0	0	0	0	523	143	
8	0	0	0	0	526	142	
9	0	0	0	0	526	142	
10	0	0	0	0	524	143	
11	0	0	0	0	521	142	
12	0	0	0	0	519	143	
13	0	0	0	0	519	143	
14	0	0	0	0	518	142	
15	0	0	0	0	519	142	
0	0	0	0	0	519	143	
1	0	0	0	0	519	143	
2	0	0	0	0	519	142	
3	0	0	0	0	519	143	
4	0	0	0	0	520	142	
5	0	0	0	0	520	143	
6	0	0	0	0	524	143	
7	0	0	0	0	527	142	
8	0	0	0	0	527	143	
9	0	0	0	0	525	142	
10	0	0	0	0	524	142	
11	0	0	0	0	522	143	
12	0	0	0	0	521	142	
13	0	0	0	0	521	143	
14	0	0	0	0	521	143	
15	0	0	0	0	522	142	
0	0	0	0	0	524	143	
1	0	0	0	0	525	143	
2	0	0	0	0	526	142	
3	0	0	0	0	525	143	
4	0	0	0	0	525	142	
5	0	0	0	0	526	143	
6	0	0	0	0	526	143	
7	0	0	0	0	527	142	
8	0	0	0	0	528	143	
9	0	0	0	0	529	142	
10	0	0	0	0	529	143	
11	0	0	0	0	529	142	
12	0	0	0	0	528	142	
13	0	0	0	0	528	143	
14	0	0	0	0	528	141	
15	0	0	0	0	528	142	
0	0	0	0	0	528	143	
1	0	0	0	0	528	141	
2	0	0	0	0	528	143	
3	0	0	0	0	528	142	
4	0	0	0	0	527	142	
5	0	0	0	0	528	143	
6	0	0	0	0	529	143	
7	0	0	0	0	529	142	
8	0	0	0	0	529	142	
9	0	0	0	0	530	143	
10	0	0	0	0	530	143	
11	0	0	0	0	529	143	
12	0	0	0	0	530	143	
13	0	0	0	0	529	142	
14	0	0	0	0	530	142	
15	0	0	0	0	530	143	
0	0	0	0	0	530	143	
1	0	0	0	0	531	141	
2	0	0	0	0	534	142	
3	0	0	0	0	536	143	
4	0	0	0	0	536	143	
5	0	0	0	0	536	143	
6	0	0	0	0	536	142	
7	0	0	0	0	535	141	
8	0	0	0	0	535	142	
9	0	0	0	0	533	143	
10	0	0	0	0	535	143	
11	0	0	0	0	537	143	
12	0	0	0	0	536	142	
13	0	0	0	0	534	141	
14	0	0	0	0	531	142	
15	0	0	0	0	530	142	
0	0	0	0	0	529	143	
1	0	0	0	0	528	143	
2	0	0	0	0	529	141	
3	0	0	0	0	529	142	
4	0	0	0	0	528	143	
5	0	0	0	0	528	141	
6	0	0	0	0	527	142	
7	0	0	0	0	526	143	
8	0	0	0	0	525	143	
9	0	0	0	0	525	142	
10	0	0	0	0	525	142	
11	0	0	0	0	525	142	
12	0	0	0	0	525	143	
13	0	0	0	0	524	143	
14	0	0	0	0	524	142	
15	0	0	0	0	525	143	
0	0	0	0	0	524	143	
1	0	0	0	0	524	142	
2	0	0	0	0	524	142	
3	0	0	0	0	525	143	
4	0	0	0	0	526	143	
5	0	0	0	0	528	142	
6	0	0	0	0	529	141	
7	0	0	0	0	529	142	
8	0	0	0	0	529	142	
9	0	0	0	0	529	143	
10	0	0	0	0	529	143	
11	0	0	0	0	531	141	
12	0	0	0	0	531	143	
13	0	0	0	0	527	143	
14	0	0	0	0	524	143	
15	0	0	0	0	522	142	
0	0	0	0	0	521	142	
1	0	0	0	0	521	143	
2	0	0	0	0	520	141	
3	0	0	0	0	519	142	
4	0	0	0	0	520	143	
5	0	0	0	0	520	142	
6	0	0	0	0	520	143	
7	0	0	0	0	520	142	
8	0	0	0	0	519	142	
9	0	0	0	0	520	143	
10	0	0	0	0	519	142	
11	0	0	0	0	519	142	
12	0	0	0	0	517	143	
13	0	0	0	0	516	142	
14	0	0	0	0	515	142	
15	0	0	0	0	515	143	
0	0	0	0	0	519	143	
1	0	0	0	0	522	141	
2	0	0	0	0	521	143	
3	0	0	0	0	519	143	
4	0	0	0	0	516	142	
5	0	0	0	0	515	143	
6	0	0	0	0	515	141	
7	0	0	0	0	514	142	
8	0	0	0	0	514	142	
9	0	0	0	0	515	141	
10	0	0	0	0	515	142	
11	0	0	0	0	515	143	
12	0	0	0	0	515	142	
13	0	0	0	0	515	143	
14	0	0	0	0	515	142	
15	0	0	0	0	515	142	
0	0	0	0	0	515	143	
1	0	0	0	0	515	141	
2	0	0	0	0	515	143	
3	0	0	0	0	515	142	
4	0	0	0	0	515	142	
5	0	0	0	0	515	142	
6	0	0	0	0	515	141	
7	0	0	0	0	515	142	
8	0	0	0	0	515	143	
9	0	0	0	0	515	141	
10	0	0	0	0	514	142	
11	0	0	0	0	515	143	
12	0	0	0	0	515	141	
13	0	0	0	0	515	143	
14	0	0	0	0	512	143	
15	0	0	0	0	512	141	
0	0	0	0	0	516	143	
1	0	0	0	0	516	143	
2	0	0	0	0	513	142	
3	0	0	0	0	511	142	
4	0	0	0	0	510	142	
5	0	0	0	0	509	142	
6	0	0	0	0	510	143	
7	0	0	0	0	511	142	
8	0	0	0	0	510	142	
9	0	0	0	0	510	142	
10	0	0	0	0	511	142	
11	0	0	0	0	511	142	
12	0	0	0	0	511	142	
13	0	0	0	0	511	141	
14	0	0	0	0	510	142	
15	0	0	0	0	508	143	
0	0	0	0	0	506	142	
1	0	0	0	0	505	143	
2	0	0	0	0	505	142	
3	0	0	0	0	506	142	
4	0	0	0	0	508	143	
5	0	0	0	0	509	141	
6	0	0	0	0	508	142	
7	0	0	0	0	508	143	
8	0	0	0	0	508	141	
9	0	0	0	0	509	142	
10	0	0	0	0	509	142	
11	0	0	0	0	510	142	
12	0	0	0	0	510	143	
13	0	0	0	0	511	141	
14	0	0	0	0	511	142	
15	0	0	0	0	512	143	
0	0	0	0	0	512	142	
1	0	0	0	0	512	142	
2	0	0	0	0	515	141	
3	0	0	0	0	517	142	
4	0	0	0	0	516	142	
5	0	0	0	0	513	141	
6	0	0	0	0	510	142	
7	0	0	0	0	508	142	
8	0	0	0	0	506	142	
9	0	0	0	0	505	142	
10	0	0	0	0	505	142	
11	0	0	0	0	506	142	
12	0	0	0	0	507	142	
13	0	0	0	0	507	141	
14	0	0	0	0	507	142	
15	0	0	0	0	506	143	
0	0	0	0	0	505	141	
1	0	0	0	0	505	142	
2	0	0	0	0	506	143	
3	0	0	0	0	508	142	
4	0	0	0	0	512	142	
5	0	0	0	0	516	142	
6	0	0	0	0	515	142	
7	0	0	0	0	512	142	
8	0	0	0	0	510	143	
9	0	0	0	0	508	141	
10	0	0	0	0	507	142	
11	0	0	0	0	505	142	
12	0	0	0	0	505	141	
13	0	0	0	0	505	142	
14	0	0	0	0	505	142	
15	0	0	0	0	505	141	
0	0	0	0	0	506	142	
1	0	0	0	0	507	142	
2	0	0	0	0	508	141	
3	0	0	0	0	508	142	
4	0	0	0	0	508	142	
5	0	0	0	0	508	142	
6	0	0	0	0	508	142	
7	0	0	0	0	510	141	
8	0	0	0	0	512	142	
9	0	0	0	0	513	142	
10	0	0	0	0	513	141	
11	0	0	0	0	513	142	
12	0	0	0	0	513	142	
13	0	0	0	0	513	141	
14	0	0	0	0	512	142	
15	0	0	0	0	512	142	
0	0	0	0	0	511	141	
1	0	0	0	0	510	142	
2	0	0	0	0	508	142	
3	0	0	0	0	509	142	
4	0	0	0	0	510	141	
5	0	0	0	0	510	142	
6	0	0	0	0	511	142	
7	0	0	0	0	514	141	
8	0	0	0	0	514	142	
9	0	0	0	0	512	142	
10	0	0	0	0	510	141	
11	0	0	0	0	509	142	
12	0	0	0	0	508	143	
13	0	0	0	0	507	141	
14	0	0	0	0	507	142	
15	0	0	0	0	507	142	
0	0	0	0	0	508	142	
1	0	0	0	0	508	142	
2	0	0	0	0	510	142	
3	0	0	0	0	510	141	
4	0	0	0	0	509	142	
5	0	0	0	0	508	141	
6	0	0	0	0	508	142	
7	0	0	0	0	508	142	
8	0	0	0	0	508	141	
9	0	0	0	0	508	142	
10	0	0	0	0	507	142	
11	0	0	0	0	507	141	
12	0	0	0	0	507	142	
13	0	0	0	0	508	143	
14	0	0	0	0	508	141	
15	0	0	0	0	509	142	
0	0	0	0	0	509	142	
1	0	0	0	0	510	142	
2	0	0	0	0	511	142	
3	0	0	0	0	514	141	
4	0	0	0	0	516	142	
5	0	0	0	0	514	142	
6	0	0	0	0	511	141	
7	0	0	0	0	509	142	
8	0	0	0	0	508	142	
9	0	0	0	0	509	141	
10	0	0	0	0	510	142	
11	0	0	0	0	511	142	
12	0	0	0	0	512	141	
13	0	0	0	0	513	142	
14	0	0	0	0	513	142	
15	0	0	0	0	513	141	
0	0	0	0	0	513	142	
1	0	0	0	0	514	141	
2	0	0	0	0	515	142	
3	0	0	0	0	516	142	
4	0	0	0	0	516	141	
5	0	0	0	0	517	142	
6	0	0	0	0	517	142	
7	0	0	0	0	518	142	
8	0	0	0	0	519	141	
9	0	0	0	0	520	142	
10	0	0	0	0	520	142	
11	0	0	0	0	520	141	
12	0	0	0	0	519	142	
13	0	0	0	0	519	142	
14	0	0	0	0	519	141	
15	0	0	0	0	520	142	
0	0	0	0	0	521	142	
1	0	0	0	0	522	141	
2	0	0	0	0	524	142	
3	0	0	0	0	525	142	
4	0	0	0	0	523	141	
5	0	0	0	0	520	142	
6	0	0	0	0	517	141	
7	0	0	0	0	516	142	
8	0	0	0	0	515	142	
9	0	0	0	0	515	141	
10	0	0	0	0	514	142	
11	0	0	0	0	514	142	
12	0	0	0	0	515	141	
13	0	0	0	0	516	142	
14	0	0	0	0	516	142	
15	0	0	0	0	516	141	
0	0	0	0	0	517	142	
1	0	0	0	0	518	141	
2	0	0	0	0	519	141	
3	0	0	0	0	519	142	
4	0	0	0	0	519	141	
5	0	0	0	0	520	141	
6	0	0	0	0	520	142	
7	0	0	0	0	519	141	
8	0	0	0	0	519	141	
9	0	0	0	0	519	142	
10	0	0	0	0	519	142	
11	0	0	0	0	519	141	
12	0	0	0	0	519	142	
13	0	0	0	0	519	141	
14	0	0	0	0	519	142	
15	0	0	0	0	519	142	
0	0	0	0	0	521	141	
1	0	0	0	0	521	142	
2	0	0	0	0	522	141	
3	0	0	0	0	524	142	
4	0	0	0	0	528	142	
5	0	0	0	0	530	141	
6	0	0	0	0	527	142	
7	0	0	0	0	525	142	
8	0	0	0	0	523	142	
9	0	0	0	0	524	141	
10	0	0	0	0	524	142	
11	0	0	0	0	525	141	
12	0	0	0	0	526	142	
13	0	0	0	0	528	142	
14	0	0	0	0	529	141	
15	0	0	0	0	530	142	
0	0	0	0	0	531	142	
1	0	0	0	0	532	141	
2	0	0	0	0	533	142	
3	0	0	0	0	533	140	
4	0	0	0	0	534	142	
5	0	0	0	0	534	142	
6	0	0	0	0	534	141	
7	0	0	0	0	534	142	
8	0	0	0	0	534	142	
9	0	0	0	0	535	141	
10	0	0	0	0	535	142	
11	0	0	0	0	536	142	
12	0	0	0	0	536	141	
13	0	0	0	0	537	142	
14	0	0	0	0	540	142	
15	0	0	0	0	543	141	
0	0	0	0	0	548	142	
1	0	0	0	0	550	142	
2	0	0	0	0	547	141	
3	0	0	0	0	545	142	
4	0	0	0	0	543	140	
5	0	0	0	0	542	142	
6	0	0	0	0	540	142	
7	0	0	0	0	540	141	
8	0	0	0	0	540	142	
9	0	0	0	0	541	141	
10	0	0	0	0	542	142	
11	0	0	0	0	541	142	
12	0	0	0	0	542	141	
13	0	0	0	0	542	142	
14	0	0	0	0	542	142	
15	0	0	0	0	543	141	
0	0	0	0	0	543	142	
1	0	0	0	0	543	141	
2	0	0	0	0	542	141	
3	0	0	0	0	540	142	
4	0	0	0	0	541	140	
5	0	0	0	0	542	142	
6	0	0	0	0	542	142	
7	0	0	0	0	541	141	
8	0	0	0	0	540	141	
9	0	0	0	0	539	142	
10	0	0	0	0	540	141	
11	0	0	0	0	539	141	
12	0	0	0	0	539	142	
13	0	0	0	0	539	142	
14	0	0	0	0	539	141	
15	0	0	0	0	540	142	
0	0	0	0	0	539	142	
1	0	0	0	0	539	141	
2	0	0	0	0	538	142	
3	0	0	0	0	537	141	
4	0	0	0	0	536	141	
5	0	0	0	0	534	142	
6	0	0	0	0	535	140	
7	0	0	0	0	536	142	
8	0	0	0	0	538	141	
9	0	0	0	0	536	141	
10	0	0	0	0	533	142	
11	0	0	0	0	531	142	
12	0	0	0	0	527	141	
13	0	0	0	0	525	141	
14	0	0	0	0	524	142	
15	0	0	0	0	522	142	
0	0	0	0	0	521	140	
1	0	0	0	0	520	142	
2	0	0	0	0	521	142	
3	0	0	0	0	522	140	
4	0	0	0	0	524	142	
5	0	0	0	0	524	142	
6	0	0	0	0	524	140	
7	0	0	0	0	524	142	
8	0	0	0	0	525	141	
9	0	0	0	0	525	141	
10	0	0	0	0	525	142	
11	0	0	0	0	524	140	
12	0	0	0	0	524	141	
13	0	0	0	0	524	142	
14	0	0	0	0	523	140	
15	0	0	0	0	523	141	
0	0	0	0	0	522	142	
1	0	0	0	0	521	141	
2	0	0	0	0	521	141	
3	0	0	0	0	521	142	
4	0	0	0	0	521	141	
5	0	0	0	0	519	141	
6	0	0	0	0	518	142	
7	0	0	0	0	516	141	
8	0	0	0	0	516	141	
9	0	0	0	0	520	142	
10	0	0	0	0	523	140	
11	0	0	0	0	521	141	
12	0	0	0	0	520	142	
13	0	0	0	0	518	140	
14	0	0	0	0	516	141	
15	0	0	0	0	515	142	
0	0	0	0	0	514	141	
1	0	0	0	0	514	141	
2	0	0	0	0	514	142	
3	0	0	0	0	513	142	
4	0	0	0	0	513	141	
5	0	0	0	0	513	142	
6	0	0	0	0	514	142	
7	0	0	0	0	515	141	
8	0	0	0	0	515	142	
9	0	0	0	0	514	141	
10	0	0	0	0	513	141	
11	0	0	0	0	513	142	
12	0	0	0	0	514	141	
13	0	0	0	0	517	142	
14	0	0	0	0	518	142	
15	0	0	0	0	516	140	
0	0	0	0	0	512	142	
1	0	0	0	0	509	142	
2	0	0	0	0	507	141	
3	0	0	0	0	507	142	
4	0	0	0	0	507	142	
5	0	0	0	0	508	141	
6	0	0	0	0	510	142	
7	0	0	0	0	511	141	
8	0	0	0	0	511	141	
9	0	0	0	0	512	142	
10	0	0	0	0	513	141	
11	0	0	0	0	515	141	
12	0	0	0	0	518	142	
13	0	0	0	0	521	140	
14	0	0	0	0	528	141	
15	0	0	0	0	536	142	
0	0	0	0	0	544	142	
1	0	0	0	0	554	140	
2	0	0	0	0	564	141	
3	0	0	0	0	575	141	
4	0	0	0	0	587	140	
5	0	0	0	0	598	141	
6	0	0	0	0	608	140	
7	0	0	0	0	619	141	
8	0	0	0	0	628	141	
9	0	0	0	0	636	142	
10	0	0	0	0	642	139	
11	0	0	0	0	647	141	
12	0	0	0	0	652	141	
13	0	0	0	0	659	139	
14	0	0	0	0	665	141	
15	0	0	0	0	667	141	
0	0	0	0	0	667	139	
1	0	0	0	0	666	141	
2	0	0	0	0	665	141	
3	0	0	0	0	662	139	
4	0	0	0	0	659	141	
5	0	0	0	0	654	141	
6	0	0	0	0	647	140	
7	0	0	0	0	640	141	
8	0	0	0	0	632	142	
9	0	0	0	0	624	140	
10	0	0	0	0	617	141	
11	0	0	0	0	611	140	
12	0	0	0	0	603	141	
13	0	0	0	0	595	141	
14	0	0	0	0	585	140	
15	0	0	0	0	575	141	
0	0	0	0	0	563	142	
1	0	0	0	0	551	140	
2	0	0	0	0	540	141	
3	0	0	0	0	528	141	
4	0	0	0	0	516	141	
5	0	0	0	0	506	142	
6	0	0	0	0	497	141	
7	0	0	0	0	490	141	
8	0	0	0	0	483	142	
9	0	0	0	0	477	140	
10	0	0	0	0	472	141	
11	0	0	0	0	468	142	
12	0	0	0	0	464	141	
13	0	0	0	0	461	141	
14	0	0	0	0	458	142	
15	0	0	0	0	457	141	
0	0	0	0	0	457	142	
1	0	0	0	0	460	142	
2	0	0	0	0	463	140	
3	0	0	0	0	464	141	
4	0	0	0	0	463	142	
5	0	0	0	0	464	141	
6	0	0	0	0	465	142	
7	0	0	0	0	469	141	
8	0	0	0	0	474	141	
9	0	0	0	0	478	142	
10	0	0	0	0	481	140	
11	0	0	0	0	484	141	
12	0	0	0	0	487	142	
13	0	0	0	0	489	140	
14	0	0	0	0	492	142	
15	0	0	0	0	494	142	
0	0	0	0	0	497	140	
1	0	0	0	0	498	142	
2	0	0	0	0	499	141	
3	0	0	0	0	500	141	
4	0	0	0	0	499	142	
5	0	0	0	0	498	140	
6	0	0	0	0	498	141	
7	0	0	0	0	497	142	
8	0	0	0	0	498	140	
9	0	0	0	0	498	141	
10	0	0	0	0	498	142	
11	0	0	0	0	498	140	
12	0	0	0	0	502	142	
13	0	0	0	0	504	141	
14	0	0	0	0	502	141	
15	0	0	0	0	499	141	
0	0	0	0	0	496	140	
1	0	0	0	0	496	141	
2	0	0	0	0	496	141	
3	0	0	0	0	497	140	
4	0	0	0	0	498	141	
5	0	0	0	0	499	142	
6	0	0	0	0	500	140	
7	0	0	0	0	501	141	
8	0	0	0	0	502	142	
9	0	0	0	0	503	140	
10	0	0	0	0	503	141	
11	0	0	0	0	503	141	
12	0	0	0	0	503	140	
13	0	0	0	0	504	141	
14	0	0	0	0	506	141	
15	0	0	0	0	507	141	
0	0	0	0	0	507	141	
1	0	0	0	0	506	141	
2	0	0	0	0	505	140	
3	0	0	0	0	505	141	
4	0	0	0	0	505	142	
5	0	0	0	0	506	140	
6	0	0	0	0	507	141	
7	0	0	0	0	507	141	
8	0	0	0	0	507	140	
9	0	0	0	0	507	141	
10	0	0	0	0	511	142	
11	0	0	0	0	512	140	
12	0	0	0	0	511	142	
13	0	0	0	0	508	142	
14	0	0	0	0	504	140	
15	0	0	0	0	503	141	
0	0	0	0	0	502	141	
1	0	0	0	0	503	141	
2	0	0	0	0	503	141	
3	0	0	0	0	502	140	
4	0	0	0	0	502	141	
5	0	0	0	0	502	141	
6	0	0	0	0	503	140	
7	0	0	0	0	503	141	
8	0	0	0	0	503	142	
9	0	0	0	0	503	140	
10	0	0	0	0	503	141	
11	0	0	0	0	504	142	
12	0	0	0	0	505	140	
13	0	0	0	0	505	141	
14	0	0	0	0	505	140	
15	0	0	0	0	505	141	
0	0	0	0	0	505	141	
1	0	0	0	0	505	140	
2	0	0	0	0	504	141	
3	0	0	0	0	504	141	
4	0	0	0	0	505	140	
5	0	0	0	0	508	141	
6	0	0	0	0	509	140	
7	0	0	0	0	509	140	
8	0	0	0	0	510	141	
9	0	0	0	0	511	141	
10	0	0	0	0	511	140	
11	0	0	0	0	511	140	
12	0	0	0	0	511	141	
13	0	0	0	0	510	140	
14	0	0	0	0	509	140	
15	0	0	0	0	510	141	
0	0	0	0	0	510	141	
1	0	0	0	0	514	140	
2	0	0	0	0	518	141	
3	0	0	0	0	518	141	
4	0	0	0	0	514	140	
5	0	0	0	0	512	141	
6	0	0	0	0	510	140	
7	0	0	0	0	509	140	
8	0	0	0	0	507	141	
9	0	0	0	0	507	140	
10	0	0	0	0	507	141	
11	0	0	0	0	508	141	
12	0	0	0	0	509	140	
13	0	0	0	0	509	141	
14	0	0	0	0	510	141	
15	0	0	0	0	510	140	
0	0	0	0	0	510	141	
1	0	0	0	0	510	141	
2	0	0	0	0	513	140	
3	0	0	0	0	517	140	
4	0	0	0	0	516	141	
5	0	0	0	0	514	140	
6	0	0	0	0	512	141	
7	0	0	0	0	510	141	
8	0	0	0	0	509	140	
9	0	0	0	0	509	141	
10	0	0	0	0	509	140	
11	0	0	0	0	509	141	
12	0	0	0	0	508	141	
13	0	0	0	0	508	140	
14	0	0	0	0	508	141	
15	0	0	0	0	508	141	
0	0	0	0	0	509	140	
1	0	0	0	0	510	141	
2	0	0	0	0	510	140	
3	0	0	0	0	509	140	
4	0	0	0	0	510	141	
5	0	0	0	0	510	141	
6	0	0	0	0	511	140	
7	0	0	0	0	513	141	
8	0	0	0	0	514	140	
9	0	0	0	0	515	140	
10	0	0	0	0	516	141	
11	0	0	0	0	515	140	
12	0	0	0	0	515	141	
13	0	0	0	0	515	141	
14	0	0	0	0	513	140	
15	0	0	0	0	512	141	
0	0	0	0	0	511	141	
1	0	0	0	0	513	140	
2	0	0	0	0	516	141	
3	0	0	0	0	517	141	
4	0	0	0	0	515	140	
5	0	0	0	0	514	141	
6	0	0	0	0	513	140	
7	0	0	0	0	514	141	
8	0	0	0	0	514	141	
9	0	0	0	0	514	140	
10	0	0	0	0	515	141	
11	0	0	0	0	517	140	
12	0	0	0	0	518	140	
13	0	0	0	0	519	141	
14	0	0	0	0	519	140	
15	0	0	0	0	520	141	
0	0	0	0	0	520	141	
1	0	0	0	0	520	140	
2	0	0	0	0	520	141	
3	0	0	0	0	520	141	
4	0	0	0	0	520	140	
5	0	0	0	0	520	141	
6	0	0	0	0	520	141	
7	0	0	0	0	520	140	
8	0	0	0	0	521	141	
9	0	0	0	0	520	141	
10	0	0	0	0	520	140	
11	0	0	0	0	520	141	
12	0	0	0	0	521	141	
13	0	0	0	0	522	140	
14	0	0	0	0	523	141	
15	0	0	0	0	523	141	
0	0	0	0	0	523	140	
1	0	0	0	0	523	141	
2	0	0	0	0	526	141	
3	0	0	0	0	529	140	
4	0	0	0	0	530	141	
5	0	0	0	0	527	140	
6	0	0	0	0	525	141	
7	0	0	0	0	524	141	
8	0	0	0	0	525	140	
9	0	0	0	0	524	141	
10	0	0	0	0	524	141	
11	0	0	0	0	525	140	
12	0	0	0	0	526	141	
13	0	0	0	0	528	140	
14	0	0	0	0	530	140	
15	0	0	0	0	531	141	
0	0	0	0	0	531	140	
1	0	0	0	0	531	141	
2	0	0	0	0	532	141	
3	0	0	0	0	533	140	
4	0	0	0	0	535	141	
5	0	0	0	0	536	139	
6	0	0	0	0	537	141	
7	0	0	0	0	539	141	
8	0	0	0	0	540	140	
9	0	0	0	0	541	141	
10	0	0	0	0	543	139	
11	0	0	0	0	545	141	
12	0	0	0	0	543	141	
13	0	0	0	0	542	140	
14	0	0	0	0	539	141	
15	0	0	0	0	537	141	
0	0	0	0	0	536	140	
1	0	0	0	0	536	141	
2	0	0	0	0	537	140	
3	0	0	0	0	537	141	
4	0	0	0	0	537	141	
5	0	0	0	0	537	140	
6	0	0	0	0	537	141	
7	0	0	0	0	538	140	
8	0	0	0	0	539	140	
9	0	0	0	0	541	141	
10	0	0	0	0	541	140	
11	0	0	0	0	542	140	
12	0	0	0	0	542	141	
13	0	0	0	0	542	139	
14	0	0	0	0	543	140	
15	0	0	0	0	543	141	
0	0	0	0	0	544	140	
1	0	0	0	0	544	141	
2	0	0	0	0	545	139	
3	0	0	0	0	548	140	
4	0	0	0	0	551	141	
5	0	0	0	0	551	140	
6	0	0	0	0	549	141	
7	0	0	0	0	549	141	
8	0	0	0	0	548	139	
9	0	0	0	0	547	141	
10	0	0	0	0	547	141	
11	0	0	0	0	547	140	
12	0	0	0	0	547	141	
13	0	0	0	0	547	140	
14	0	0	0	0	548	140	
15	0	0	0	0	550	141	
0	0	0	0	0	551	139	
1	0	0	0	0	553	140	
2	0	0	0	0	553	141	
3	0	0	0	0	554	139	
4	0	0	0	0	554	141	
5	0	0	0	0	554	140	
6	0	0	0	0	553	140	
7	0	0	0	0	552	141	
8	0	0	0	0	550	139	
9	0	0	0	0	548	141	
10	0	0	0	0	547	141	
11	0	0	0	0	546	140	
12	0	0	0	0	550	141	
13	0	0	0	0	551	140	
14	0	0	0	0	549	140	
15	0	0	0	0	548	141	
0	0	0	0	0	548	139	
1	0	0	0	0	547	141	
2	0	0	0	0	547	140	
3	0	0	0	0	546	140	
4	0	0	0	0	545	141	
5	0	0	0	0	545	139	
6	0	0	0	0	543	140	
7	0	0	0	0	542	141	
8	0	0	0	0	541	139	
9	0	0	0	0	541	141	
10	0	0	0	0	542	140	
11	0	0	0	0	542	140	
12	0	0	0	0	541	141	
13	0	0	0	0	540	140	
14	0	0	0	0	537	140	
15	0	0	0	0	536	141	
0	0	0	0	0	535	139	
1	0	0	0	0	532	140	
2	0	0	0	0	531	141	
3	0	0	0	0	529	140	
4	0	0	0	0	527	141	
5	0	0	0	0	525	140	
6	0	0	0	0	521	140	
7	0	0	0	0	519	140	
8	0	0	0	0	518	139	
9	0	0	0	0	519	140	
10	0	0	0	0	519	141	
11	0	0	0	0	516	139	
12	0	0	0	0	511	141	
13	0	0	0	0	507	141	
14	0	0	0	0	503	140	
15	0	0	0	0	499	141	
0	0	0	0	0	497	140	
1	0	0	0	0	494	140	
2	0	0	0	0	492	141	
3	0	0	0	0	489	139	
4	0	0	0	0	487	141	
5	0	0	0	0	486	141	
6	0	0	0	0	484	140	
7	0	0	0	0	482	141	
8	0	0	0	0	479	140	
9	0	0	0	0	475	140	
10	0	0	0	0	473	141	
11	0	0	0	0	470	140	
12	0	0	0	0	468	140	
13	0	0	0	0	467	141	
14	0	0	0	0	465	140	
15	0	0	0	0	463	140	
0	0	0	0	0	462	141	
1	0	0	0	0	461	140	
2	0	0	0	0	460	140	
3	0	0	0	0	459	141	
4	0	0	0	0	459	140	
5	0	0	0	0	458	140	
6	0	0	0	0	457	141	
7	0	0	0	0	457	140	
8	0	0	0	0	455	141	
9	0	0	0	0	454	141	
10	0	0	0	0	452	140	
11	0	0	0	0	452	141	
12	0	0	0	0	452	141	
13	0	0	0	0	455	140	
14	0	0	0	0	459	140	
15	0	0	0	0	456	141	
0	0	0	0	0	452	140	
1	0	0	0	0	449	141	
2	0	0	0	0	447	141	
3	0	0	0	0	447	140	
4	0	0	0	0	447	141	
5	0	0	0	0	446	140	
6	0	0	0	0	445	140	
7	0	0	0	0	444	141	
8	0	0	0	0	444	140	
9	0	0	0	0	444	141	
10	0	0	0	0	444	141	
11	0	0	0	0	444	140	
12	0	0	0	0	443	141	
13	0	0	0	0	442	141	
14	0	0	0	0	443	140	
15	0	0	0	0	442	140	
0	0	0	0	0	443	140	
1	0	0	0	0	443	141	
2	0	0	0	0	446	140	
3	0	0	0	0	448	141	
4	0	0	0	0	451	141	
5	0	0	0	0	452	140	
6	0	0	0	0	453	140	
7	0	0	0	0	454	140	
8	0	0	0	0	453	140	
9	0	0	0	0	453	140	
10	0	0	0	0	452	140	
11	0	0	0	0	452	140	
12	0	0	0	0	457	141	
13	0	0	0	0	460	139	
14	0	0	0	0	459	141	
15	0	0	0	0	457	141	
0	0	0	0	0	456	140	
1	0	0	0	0	455	140	
2	0	0	0	0	456	141	
3	0	0	0	0	459	140	
4	0	0	0	0	460	141	
5	0	0	0	0	460	140	
6	0	0	0	0	462	140	
7	0	0	0	0	463	140	
8	0	0	0	0	463	141	
9	0	0	0	0	464	140	
10	0	0	0	0	465	140	
11	0	0	0	0	466	140	
12	0	0	0	0	467	140	
13	0	0	0	0	469	140	
14	0	0	0	0	470	139	
15	0	0	0	0	470	140	
0	0	0	0	0	471	140	
1	0	0	0	0	471	139	
2	0	0	0	0	473	140	
3	0	0	0	0	477	140	
4	0	0	0	0	480	140	
5	0	0	0	0	480	140	
6	0	0	0	0	478	140	
7	0	0	0	0	476	140	
8	0	0	0	0	474	140	
9	0	0	0	0	475	139	
10	0	0	0	0	475	140	
11	0	0	0	0	477	140	
12	0	0	0	0	478	140	
13	0	0	0	0	478	140	
14	0	0	0	0	478	140	
15	0	0	0	0	480	140	
0	0	0	0	0	481	140	
1	0	0	0	0	483	140	
2	0	0	0	0	483	139	
3	0	0	0	0	484	140	
4	0	0	0	0	485	141	
5	0	0	0	0	486	139	
6	0	0	0	0	487	140	
7	0	0	0	0	487	141	
8	0	0	0	0	487	139	
9	0	0	0	0	488	140	
10	0	0	0	0	489	140	
11	0	0	0	0	491	139	
12	0	0	0	0	495	140	
13	0	0	0	0	496	140	
14	0	0	0	0	494	140	
15	0	0	0	0	492	140	
0	0	0	0	0	491	140	
1	0	0	0	0	491	139	
2	0	0	0	0	491	140	
3	0	0	0	0	491	140	
4	0	0	0	0	493	139	
5	0	0	0	0	494	140	
6	0	0	0	0	493	140	
7	0	0	0	0	492	140	
8	0	0	0	0	492	140	
9	0	0	0	0	492	140	
10	0	0	0	0	492	140	
11	0	0	0	0	493	139	
12	0	0	0	0	493	140	
13	0	0	0	0	492	140	
14	0	0	0	0	492	139	
15	0	0	0	0	492	140	
0	0	0	0	0	492	140	
1	0	0	0	0	492	140	
2	0	0	0	0	494	140	
3	0	0	0	0	494	139	
4	0	0	0	0	494	140	
5	0	0	0	0	495	140	
6	0	0	0	0	494	139	
7	0	0	0	0	494	140	
8	0	0	0	0	494	140	
9	0	0	0	0	494	139	
10	0	0	0	0	494	140	
11	0	0	0	0	494	140	
12	0	0	0	0	494	139	
13	0	0	0	0	493	140	
14	0	0	0	0	494	140	
15	0	0	0	0	495	139	
0	0	0	0	0	496	140	
1	0	0	0	0	497	140	
2	0	0	0	0	497	139	
3	0	0	0	0	497	140	
4	0	0	0	0	496	140	
5	0	0	0	0	496	139	
6	0	0	0	0	496	140	
7	0	0	0	0	496	140	
8	0	0	0	0	495	139	
9	0	0	0	0	495	140	
10	0	0	0	0	498	140	
11	0	0	0	0	497	139	
12	0	0	0	0	494	140	
13	0	0	0	0	492	139	
14	0	0	0	0	490	140	
15	0	0	0	0	489	140	
0	0	0	0	0	489	139	
1	0	0	0	0	489	140	
2	0	0	0	0	489	140	
3	0	0	0	0	489	139	
4	0	0	0	0	488	139	
5	0	0	0	0	488	140	
6	0	0	0	0	488	139	
7	0	0	0	0	489	140	
8	0	0	0	0	490	140	
9	0	0	0	0	490	140	
10	0	0	0	0	491	140	
11	0	0	0	0	491	139	
12	0	0	0	0	492	140	
13	0	0	0	0	493	139	
14	0	0	0	0	493	140	
15	0	0	0	0	492	140	
0	0	0	0	0	492	139	
1	0	0	0	0	492	140	
2	0	0	0	0	492	140	
3	0	0	0	0	492	140	
4	0	0	0	0	492	140	
5	0	0	0	0	492	139	
6	0	0	0	0	491	140	
7	0	0	0	0	490	140	
8	0	0	0	0	490	139	
9	0	0	0	0	492	140	
10	0	0	0	0	492	140	
11	0	0	0	0	493	139	
12	0	0	0	0	493	140	
13	0	0	0	0	496	139	
14	0	0	0	0	498	140	
15	0	0	0	0	495	140	
0	0	0	0	0	492	139	
1	0	0	0	0	489	140	
2	0	0	0	0	489	140	
3	0	0	0	0	490	140	
4	0	0	0	0	491	140	
5	0	0	0	0	491	139	
6	0	0	0	0	490	140	
7	0	0	0	0	489	140	
8	0	0	0	0	487	139	
9	0	0	0	0	487	140	
10	0	0	0	0	487	139	
11	0	0	0	0	488	140	
12	0	0	0	0	491	140	
13	0	0	0	0	493	139	
14	0	0	0	0	493	140	
15	0	0	0	0	493	140	
0	0	0	0	0	495	139	
1	0	0	0	0	496	140	
2	0	0	0	0	496	139	
3	0	0	0	0	496	140	
4	0	0	0	0	496	140	
5	0	0	0	0	496	139	
6	0	0	0	0	496	140	
7	0	0	0	0	496	140	
8	0	0	0	0	497	139	
9	0	0	0	0	498	140	
10	0	0	0	0	497	139	
11	0	0	0	0	499	140	
12	0	0	0	0	503	140	
13	0	0	0	0	503	139	
14	0	0	0	0	501	140	
15	0	0	0	0	499	140	
0	0	0	0	0	499	139	
1	0	0	0	0	497	140	
2	0	0	0	0	496	140	
3	0	0	0	0	496	139	
4	0	0	0	0	496	140	
5	0	0	0	0	496	140	
6	0	0	0	0	495	139	
7	0	0	0	0	495	139	
8	0	0	0	0	496	140	
9	0	0	0	0	496	140	
10	0	0	0	0	497	139	
11	0	0	0	0	497	140	
12	0	0	0	0	497	140	
13	0	0	0	0	497	139	
14	0	0	0	0	497	140	
15	0	0	0	0	497	140	
0	0	0	0	0	497	139	
1	0	0	0	0	496	140	
2	0	0	0	0	497	139	
3	0	0	0	0	497	140	
4	0	0	0	0	497	140	
5	0	0	0	0	498	139	
6	0	0	0	0	499	140	
7	0	0	0	0	500	140	
8	0	0	0	0	501	139	
9	0	0	0	0	501	140	
10	0	0	0	0	500	140	
11	0	0	0	0	502	139	
12	0	0	0	0	505	140	
13	0	0	0	0	505	140	
14	0	0	0	0	503	139	
15	0	0	0	0	500	140	
0	0	0	0	0	499	139	
1	0	0	0	0	496	140	
2	0	0	0	0	492	140	
3	0	0	0	0	490	139	
4	0	0	0	0	489	139	
5	0	0	0	0	490	140	
6	0	0	0	0	490	139	
7	0	0	0	0	491	139	
8	0	0	0	0	491	140	
9	0	0	0	0	492	139	
10	0	0	0	0	492	139	
11	0	0	0	0	495	140	
12	0	0	0	0	499	139	
13	0	0	0	0	504	140	
14	0	0	0	0	507	140	
15	0	0	0	0	509	139	
0	0	0	0	0	510	140	
1	0	0	0	0	511	140	
2	0	0	0	0	511	139	
3	0	0	0	0	510	140	
4	0	0	0	0	510	139	
5	0	0	0	0	511	139	
6	0	0	0	0	514	140	
7	0	0	0	0	514	140	
8	0	0	0	0	513	139	
9	0	0	0	0	512	140	
10	0	0	0	0	512	140	
11	0	0	0	0	512	139	
12	0	0	0	0	511	140	
13	0	0	0	0	510	140	
14	0	0	0	0	510	139	
15	0	0	0	0	510	140	
0	0	0	0	0	511	140	
1	0	0	0	0	510	139	
2	0	0	0	0	509	140	
3	0	0	0	0	509	140	
4	0	0	0	0	508	139	
5	0	0	0	0	508	139	
6	0	0	0	0	508	140	
7	0	0	0	0	507	140	
8	0	0	0	0	507	139	
9	0	0	0	0	508	140	
10	0	0	0	0	509	139	
11	0	0	0	0	511	140	
12	0	0	0	0	512	140	
13	0	0	0	0	513	139	
14	0	0	0	0	513	140	
15	0	0	0	0	514	140	
0	0	0	0	0	515	139	
1	0	0	0	0	515	140	
2	0	0	0	0	515	140	
3	0	0	0	0	515	139	
4	0	0	0	0	515	140	
5	0	0	0	0	515	140	
6	0	0	0	0	518	139	
7	0	0	0	0	520	140	
8	0	0	0	0	519	140	
9	0	0	0	0	516	139	
10	0	0	0	0	514	140	
11	0	0	0	0	511	140	
12	0	0	0	0	510	139	
13	0	0	0	0	510	140	
14	0	0	0	0	510	140	
15	0	0	0	0	511	139	
0	0	0	0	0	512	140	
1	0	0	0	0	513	139	
2	0	0	0	0	514	139	
3	0	0	0	0	514	140	
4	0	0	0	0	514	139	
5	0	0	0	0	515	140	
6	0	0	0	0	515	140	
7	0	0	0	0	515	139	
8	0	0	0	0	515	140	
9	0	0	0	0	515	140	
10	0	0	0	0	516	138	
11	0	0	0	0	517	140	
12	0	0	0	0	521	140	
13	0	0	0	0	523	138	
14	0	0	0	0	521	140	
15	0	0	0	0	518	140	
0	0	0	0	0	515	138	
1	0	0	0	0	513	140	
2	0	0	0	0	513	140	
3	0	0	0	0	514	139	
4	0	0	0	0	516	140	
5	0	0	0	0	517	139	
6	0	0	0	0	518	139	
7	0	0	0	0	517	140	
8	0	0	0	0	518	139	
9	0	0	0	0	517	139	
10	0	0	0	0	518	140	
11	0	0	0	0	519	138	
12	0	0	0	0	519	140	
13	0	0	0	0	520	140	
14	0	0	0	0	521	138	
15	0	0	0	0	522	139	
0	0	0	0	0	523	140	
1	0	0	0	0	523	140	
2	0	0	0	0	523	138	
3	0	0	0	0	523	140	
4	0	0	0	0	524	140	
5	0	0	0	0	525	139	
6	0	0	0	0	524	140	
7	0	0	0	0	524	140	
8	0	0	0	0	524	139	
9	0	0	0	0	525	140	
10	0	0	0	0	524	140	
11	0	0	0	0	523	138	
12	0	0	0	0	524	140	
13	0	0	0	0	528	140	
14	0	0	0	0	532	139	
15	0	0	0	0	532	140	
0	0	0	0	0	528	139	
1	0	0	0	0	526	139	
2	0	0	0	0	524	140	
3	0	0	0	0	522	140	
4	0	0	0	0	520	139	
5	0	0	0	0	519	140	
6	0	0	0	0	518	140	
7	0	0	0	0	518	138	
8	0	0	0	0	516	140	
9	0	0	0	0	516	140	
10	0	0	0	0	516	139	
11	0	0	0	0	516	140	
12	0	0	0	0	516	140	
13	0	0	0	0	518	139	
14	0	0	0	0	518	140	
15	0	0	0	0	519	140	
0	0	0	0	0	519	138	
1	0	0	0	0	520	140	
2	0	0	0	0	521	140	
3	0	0	0	0	521	138	
4	0	0	0	0	521	140	
5	0	0	0	0	523	140	
6	0	0	0	0	522	139	
7	0	0	0	0	522	140	
8	0	0	0	0	522	139	
9	0	0	0	0	522	139	
10	0	0	0	0	522	140	
11	0	0	0	0	521	139	
12	0	0	0	0	521	139	
13	0	0	0	0	522	140	
14	0	0	0	0	525	138	
15	0	0	0	0	528	139	
0	0	0	0	0	528	140	
1	0	0	0	0	524	138	
2	0	0	0	0	523	140	
3	0	0	0	0	521	140	
4	0	0	0	0	520	139	
5	0	0	0	0	521	139	
6	0	0	0	0	521	140	
7	0	0	0	0	520	140	
8	0	0	0	0	519	139	
9	0	0	0	0	519	140	
10	0	0	0	0	518	140	
11	0	0	0	0	518	139	
12	0	0	0	0	518	140	
13	0	0	0	0	517	140	
14	0	0	0	0	516	139	
15	0	0	0	0	515	140	
0	0	0	0	0	515	140	
1	0	0	0	0	515	139	
2	0	0	0	0	514	140	
3	0	0	0	0	514	140	
4	0	0	0	0	515	139	
5	0	0	0	0	515	140	
6	0	0	0	0	515	140	
7	0	0	0	0	515	138	
8	0	0	0	0	513	140	
9	0	0	0	0	512	140	
10	0	0	0	0	511	138	
11	0	0	0	0	511	139	
12	0	0	0	0	510	140	
13	0	0	0	0	510	140	
14	0	0	0	0	508	138	
15	0	0	0	0	509	140	
0	0	0	0	0	511	140	
1	0	0	0	0	515	138	
2	0	0	0	0	517	140	
3	0	0	0	0	515	140	
4	0	0	0	0	511	139	
5	0	0	0	0	509	140	
6	0	0	0	0	507	140	
7	0	0	0	0	506	139	
8	0	0	0	0	506	139	
9	0	0	0	0	505	139	
10	0	0	0	0	504	139	
11	0	0	0	0	504	140	
12	0	0	0	0	505	138	
13	0	0	0	0	505	140	
14	0	0	0	0	504	140	
15	0	0	0	0	505	139	
0	0	0	0	0	505	139	
1	0	0	0	0	506	139	
2	0	0	0	0	506	139	
3	0	0	0	0	505	140	
4	0	0	0	0	504	138	
5	0	0	0	0	504	139	
6	0	0	0	0	503	140	
7	0	0	0	0	503	140	
8	0	0	0	0	502	139	
9	0	0	0	0	500	140	
10	0	0	0	0	499	140	
11	0	0	0	0	499	139	
12	0	0	0	0	499	140	
13	0	0	0	0	499	139	
14	0	0	0	0	497	139	
15	0	0	0	0	495	140	
0	0	0	0	0	495	139	
1	0	0	0	0	495	139	
2	0	0	0	0	494	139	
3	0	0	0	0	495	139	
4	0	0	0	0	495	139	
5	0	0	0	0	495	140	
6	0	0	0	0	495	138	
7	0	0	0	0	495	139	
8	0	0	0	0	495	139	
9	0	0	0	0	494	139	
10	0	0	0	0	494	139	
11	0	0	0	0	494	140	
12	0	0	0	0	493	139	
13	0	0	0	0	493	139	
14	0	0	0	0	493	139	
15	0	0	0	0	494	139	
0	0	0	0	0	494	139	
1	0	0	0	0	494	140	
2	0	0	0	0	493	139	
3	0	0	0	0	493	139	
4	0	0	0	0	494	140	
5	0	0	0	0	497	138	
6	0	0	0	0	499	139	
7	0	0	0	0	497	140	
8	0	0	0	0	495	140	
9	0	0	0	0	492	138	
10	0	0	0	0	491	140	
11	0	0	0	0	490	140	
12	0	0	0	0	492	139	
13	0	0	0	0	492	139	
14	0	0	0	0	492	140	
15	0	0	0	0	492	139	
0	0	0	0	0	493	140	
1	0	0	0	0	494	139	
2	0	0	0	0	494	139	
3	0	0	0	0	495	140	
4	0	0	0	0	496	138	
5	0	0	0	0	497	139	
6	0	0	0	0	498	140	
7	0	0	0	0	497	138	
8	0	0	0	0	497	139	
9	0	0	0	0	495	140	
10	0	0	0	0	494	138	
11	0	0	0	0	493	140	
12	0	0	0	0	492	140	
13	0	0	0	0	492	138	
14	0	0	0	0	496	139	
15	0	0	0	0	498	139	
0	0	0	0	0	497	140	
1	0	0	0	0	494	138	
2	0	0	0	0	492	139	
3	0	0	0	0	491	140	
4	0	0	0	0	491	139	
5	0	0	0	0	491	140	
6	0	0	0	0	490	140	
7	0	0	0	0	491	139	
8	0	0	0	0	491	139	
9	0	0	0	0	491	139	
10	0	0	0	0	491	138	
11	0	0	0	0	491	139	
12	0	0	0	0	491	140	
13	0	0	0	0	492	139	
14	0	0	0	0	493	139	
15	0	0	0	0	494	139	
0	0	0	0	0	494	138	
1	0	0	0	0	496	139	
2	0	0	0	0	496	140	
3	0	0	0	0	498	138	
4	0	0	0	0	499	140	
5	0	0	0	0	499	140	
6	0	0	0	0	499	138	
7	0	0	0	0	499	139	
8	0	0	0	0	499	139	
9	0	0	0	0	499	138	
10	0	0	0	0	499	139	
11	0	0	0	0	500	139	
12	0	0	0	0	500	138	
13	0	0	0	0	499	139	
14	0	0	0	0	499	139	
15	0	0	0	0	499	139	
0	0	0	0	0	500	139	
1	0	0	0	0	501	139	
2	0	0	0	0	502	139	
3	0	0	0	0	502	139	
4	0	0	0	0	502	139	
5	0	0	0	0	502	139	
6	0	0	0	0	501	139	
7	0	0	0	0	502	138	
8	0	0	0	0	505	139	
9	0	0	0	0	510	139	
10	0	0	0	0	512	138	
11	0	0	0	0	511	139	
12	0	0	0	0	508	139	
13	0	0	0	0	506	139	
14	0	0	0	0	504	138	
15	0	0	0	0	504	139	
0	0	0	0	0	505	140	
1	0	0	0	0	505	138	
2	0	0	0	0	507	139	
3	0	0	0	0	508	139	
4	0	0	0	0	508	138	
5	0	0	0	0	508	139	
6	0	0	0	0	508	139	
7	0	0	0	0	508	140	
8	0	0	0	0	507	138	
9	0	0	0	0	507	139	
10	0	0	0	0	508	140	
11	0	0	0	0	509	138	
12	0	0	0	0	511	139	
13	0	0	0	0	513	139	
14	0	0	0	0	514	139	
15	0	0	0	0	514	139	
0	0	0	0	0	514	139	
1	0	0	0	0	515	139	
2	0	0	0	0	516	139	
3	0	0	0	0	516	139	
4	0	0	0	0	518	138	
5	0	0	0	0	519	139	
6	0	0	0	0	523	139	
7	0	0	0	0	525	138	
8	0	0	0	0	523	139	
9	0	0	0	0	520	139	
10	0	0	0	0	518	138	
11	0	0	0	0	515	139	
12	0	0	0	0	513	138	
13	0	0	0	0	512	139	
14	0	0	0	0	512	139	
15	0	0	0	0	510	138	
0	0	0	0	0	510	139	
1	0	0	0	0	510	139	
2	0	0	0	0	510	139	
3	0	0	0	0	510	139	
4	0	0	0	0	509	139	
5	0	0	0	0	509	138	
6	0	0	0	0	508	139	
7	0	0	0	0	509	139	
8	0	0	0	0	510	139	
9	0	0	0	0	510	139	
10	0	0	0	0	510	138	
11	0	0	0	0	510	139	
12	0	0	0	0	510	140	
13	0	0	0	0	511	138	
14	0	0	0	0	511	139	
15	0	0	0	0	511	139	
0	0	0	0	0	510	138	
1	0	0	0	0	510	139	
2	0	0	0	0	510	139	
3	0	0	0	0	509	138	
4	0	0	0	0	509	139	
5	0	0	0	0	509	139	
6	0	0	0	0	508	138	
7	0	0	0	0	509	139	
8	0	0	0	0	508	139	
9	0	0	0	0	510	138	
10	0	0	0	0	513	139	
11	0	0	0	0	512	139	
12	0	0	0	0	510	138	
13	0	0	0	0	507	139	
14	0	0	0	0	505	139	
15	0	0	0	0	504	138	
0	0	0	0	0	504	139	
1	0	0	0	0	505	139	
2	0	0	0	0	505	138	
3	0	0	0	0	505	139	
4	0	0	0	0	506	139	
5	0	0	0	0	507	139	
6	0	0	0	0	507	139	
7	0	0	0	0	507	138	
8	0	0	0	0	505	139	
9	0	0	0	0	505	139	
10	0	0	0	0	505	138	
11	0	0	0	0	505	139	
12	0	0	0	0	507	140	
13	0	0	0	0	507	138	
14	0	0	0	0	506	139	
15	0	0	0	0	505	140	
0	0	0	0	0	504	138	
1	0	0	0	0	504	139	
2	0	0	0	0	503	139	
3	0	0	0	0	503	138	
4	0	0	0	0	503	139	
5	0	0	0	0	503	139	
6	0	0	0	0	502	139	
7	0	0	0	0	502	139	
8	0	0	0	0	502	139	
9	0	0	0	0	501	138	
10	0	0	0	0	501	139	
11	0	0	0	0	501	139	
12	0	0	0	0	502	139	
13	0	0	0	0	502	139	
14	0	0	0	0	503	138	
15	0	0	0	0	504	139	
0	0	0	0	0	502	139	
1	0	0	0	0	503	138	
2	0	0	0	0	505	139	
3	0	0	0	0	504	139	
4	0	0	0	0	501	138	
5	0	0	0	0	499	139	
6	0	0	0	0	496	139	
7	0	0	0	0	496	139	
8	0	0	0	0	495	139	
9	0	0	0	0	495	138	
10	0	0	0	0	494	139	
11	0	0	0	0	495	140	
12	0	0	0	0	496	138	
13	0	0	0	0	497	139	
14	0	0	0	0	497	139	
15	0	0	0	0	497	138	
0	0	0	0	0	498	139	
1	0	0	0	0	498	140	
2	0	0	0	0	498	138	
3	0	0	0	0	498	139	
4	0	0	0	0	498	139	
5	0	0	0	0	498	138	
6	0	0	0	0	497	139	
7	0	0	0	0	497	139	
8	0	0	0	0	498	138	
9	0	0	0	0	498	139	
10	0	0	0	0	499	139	
11	0	0	0	0	499	138	
12	0	0	0	0	498	139	
13	0	0	0	0	498	139	
14	0	0	0	0	499	138	
15	0	0	0	0	501	139	
0	0	0	0	0	504	139	
1	0	0	0	0	507	138	
2	0	0	0	0	506	139	
3	0	0	0	0	503	139	
4	0	0	0	0	501	138	
5	0	0	0	0	499	139	
6	0	0	0	0	497	139	
7	0	0	0	0	496	138	
8	0	0	0	0	497	139	
9	0	0	0	0	497	139	
10	0	0	0	0	498	138	
11	0	0	0	0	499	139	
12	0	0	0	0	499	139	
13	0	0	0	0	500	138	
14	0	0	0	0	502	139	
15	0	0	0	0	503	138	
0	0	0	0	0	504	139	
1	0	0	0	0	506	139	
2	0	0	0	0	506	138	
3	0	0	0	0	506	139	
4	0	0	0	0	505	139	
5	0	0	0	0	505	138	
6	0	0	0	0	506	139	
7	0	0	0	0	506	139	
8	0	0	0	0	507	138	
9	0	0	0	0	507	139	
10	0	0	0	0	507	139	
11	0	0	0	0	506	138	
12	0	0	0	0	505	139	
13	0	0	0	0	506	139	
14	0	0	0	0	507	138	
15	0	0	0	0	511	139	
0	0	0	0	0	514	138	
1	0	0	0	0	514	139	
2	0	0	0	0	513	139	
3	0	0	0	0	512	138	
4	0	0	0	0	511	139	
5	0	0	0	0	512	139	
6	0	0	0	0	513	137	
7	0	0	0	0	514	139	
8	0	0	0	0	513	139	
9	0	0	0	0	513	138	
10	0	0	0	0	512	138	
11	0	0	0	0	511	139	
12	0	0	0	0	509	140	
13	0	0	0	0	508	138	
14	0	0	0	0	508	139	
15	0	0	0	0	509	139	
0	0	0	0	0	510	138	
1	0	0	0	0	510	139	
2	0	0	0	0	510	139	
3	0	0	0	0	511	138	
4	0	0	0	0	512	139	
5	0	0	0	0	513	138	
6	0	0	0	0	513	139	
7	0	0	0	0	515	139	
8	0	0	0	0	518	138	
9	0	0	0	0	519	139	
10	0	0	0	0	519	139	
11	0	0	0	0	519	139	
12	0	0	0	0	519	138	
13	0	0	0	0	519	139	
14	0	0	0	0	519	139	
15	0	0	0	0	521	138	
0	0	0	0	0	523	139	
1	0	0	0	0	523	139	
2	0	0	0	0	520	138	
3	0	0	0	0	518	139	
4	0	0	0	0	516	139	
5	0	0	0	0	516	138	
6	0	0	0	0	516	139	
7	0	0	0	0	516	139	
8	0	0	0	0	515	138	
9	0	0	0	0	516	139	
10	0	0	0	0	517	138	
11	0	0	0	0	518	138	
12	0	0	0	0	518	139	
13	0	0	0	0	519	137	
14	0	0	0	0	520	139	
15	0	0	0	0	521	139	
0	0	0	0	0	521	137	
1	0	0	0	0	521	139	
2	0	0	0	0	521	139	
3	0	0	0	0	520	137	
4	0	0	0	0	519	139	
5	0	0	0	0	518	139	
6	0	0	0	0	518	138	
7	0	0	0	0	518	139	
8	0	0	0	0	518	139	
9	0	0	0	0	519	138	
10	0	0	0	0	518	139	
11	0	0	0	0	517	138	
12	0	0	0	0	517	139	
13	0	0	0	0	518	139	
14	0	0	0	0	520	139	
15	0	0	0	0	524	138	
0	0	0	0	0	524	139	
1	0	0	0	0	522	138	
2	0	0	0	0	519	139	
3	0	0	0	0	518	139	
4	0	0	0	0	516	138	
5	0	0	0	0	514	139	
6	0	0	0	0	514	139	
7	0	0	0	0	515	138	
8	0	0	0	0	516	139	
9	0	0	0	0	517	139	
10	0	0	0	0	517	138	
11	0	0	0	0	517	139	
12	0	0	0	0	517	139	
13	0	0	0	0	519	138	
14	0	0	0	0	520	139	
15	0	0	0	0	521	139	
0	0	0	0	0	522	138	
1	0	0	0	0	521	139	
2	0	0	0	0	521	138	
3	0	0	0	0	523	138	
4	0	0	0	0	524	139	
5	0	0	0	0	526	138	
6	0	0	0	0	527	139	
7	0	0	0	0	528	139	
8	0	0	0	0	529	138	
9	0	0	0	0	529	139	
10	0	0	0	0	530	138	
11	0	0	0	0	530	138	
12	0	0	0	0	531	139	
13	0	0	0	0	531	137	
14	0	0	0	0	531	139	
15	0	0	0	0	534	139	
0	0	0	0	0	537	137	
1	0	0	0	0	538	139	
2	0	0	0	0	537	139	
3	0	0	0	0	536	137	
4	0	0	0	0	534	139	
5	0	0	0	0	534	139	
6	0	0	0	0	532	137	
7	0	0	0	0	532	139	
8	0	0	0	0	532	139	
9	0	0	0	0	531	138	
10	0	0	0	0	530	139	
11	0	0	0	0	530	139	
12	0	0	0	0	530	138	
13	0	0	0	0	530	139	
14	0	0	0	0	529	137	
15	0	0	0	0	527	138	
0	0	0	0	0	525	139	
1	0	0	0	0	522	139	
2	0	0	0	0	521	138	
3	0	0	0	0	519	139	
4	0	0	0	0	517	139	
5	0	0	0	0	515	138	
6	0	0	0	0	513	139	
7	0	0	0	0	511	139	
8	0	0	0	0	509	138	
9	0	0	0	0	508	139	
10	0	0	0	0	509	139	
11	0	0	0	0	508	138	
12	0	0	0	0	505	139	
13	0	0	0	0	502	139	
14	0	0	0	0	499	138	
15	0	0	0	0	498	139	
0	0	0	0	0	497	137	
1	0	0	0	0	501	138	
2	0	0	0	0	503	139	
3	0	0	0	0	502	138	
4	0	0	0	0	501	139	
5	0	0	0	0	501	139	
6	0	0	0	0	503	138	
7	0	0	0	0	507	138	
8	0	0	0	0	507	139	
9	0	0	0	0	507	138	
10	0	0	0	0	508	139	
11	0	0	0	0	510	139	
12	0	0	0	0	511	139	
13	0	0	0	0	512	138	
14	0	0	0	0	512	139	
15	0	0	0	0	511	138	
0	0	0	0	0	510	138	
1	0	0	0	0	511	139	
2	0	0	0	0	513	139	
3	0	0	0	0	516	138	
4	0	0	0	0	518	138	
5	0	0	0	0	516	139	
6	0	0	0	0	516	137	
7	0	0	0	0	515	139	
8	0	0	0	0	513	139	
9	0	0	0	0	512	138	
10	0	0	0	0	512	139	
11	0	0	0	0	512	138	
12	0	0	0	0	512	138	
13	0	0	0	0	511	139	
14	0	0	0	0	508	138	
15	0	0	0	0	507	138	
0	0	0	0	0	506	139	
1	0	0	0	0	503	138	
2	0	0	0	0	502	139	
3	0	0	0	0	504	138	
4	0	0	0	0	505	138	
5	0	0	0	0	503	139	
6	0	0	0	0	500	139	
7	0	0	0	0	500	138	
8	0	0	0	0	499	139	
9	0	0	0	0	499	138	
10	0	0	0	0	498	138	
11	0	0	0	0	499	139	
12	0	0	0	0	502	138	
13	0	0	0	0	506	139	
14	0	0	0	0	510	139	
15	0	0	0	0	518	137	
0	0	0	0	0	525	138	
1	0	0	0	0	532	139	
2	0	0	0	0	540	137	
3	0	0	0	0	547	139	
4	0	0	0	0	557	139	
5	0	0	0	0	568	137	
6	0	0	0	0	579	138	
7	0	0	0	0	590	139	
8	0	0	0	0	599	137	
9	0	0	0	0	606	139	
10	0	0	0	0	613	139	
11	0	0	0	0	618	137	
12	0	0	0	0	621	139	
13	0	0	0	0	623	139	
14	0	0	0	0	626	137	
15	0	0	0	0	628	138	
0	0	0	0	0	629	139	
1	0	0	0	0	629	137	
2	0	0	0	0	629	139	
3	0	0	0	0	630	139	
4	0	0	0	0	631	137	
5	0	0	0	0	628	139	
6	0	0	0	0	618	139	
7	0	0	0	0	604	137	
8	0	0	0	0	588	139	
9	0	0	0	0	574	137	
10	0	0	0	0	562	139	
11	0	0	0	0	552	139	
12	0	0	0	0	543	137	
13	0	0	0	0	534	139	
14	0	0	0	0	526	138	
15	0	0	0	0	519	138	
0	0	0	0	0	514	139	
1	0	0	0	0	510	138	
2	0	0	0	0	505	139	
3	0	0	0	0	497	139	
4	0	0	0	0	486	138	
5	0	0	0	0	475	139	
6	0	0	0	0	466	138	
7	0	0	0	0	456	139	
8	0	0	0	0	447	139	
9	0	0	0	0	438	138	
10	0	0	0	0	431	139	
11	0	0	0	0	425	139	
12	0	0	0	0	421	138	
13	0	0	0	0	418	139	
14	0	0	0	0	414	139	
15	0	0	0	0	411	138	
0	0	0	0	0	412	139	
1	0	0	0	0	412	139	
2	0	0	0	0	409	138	
3	0	0	0	0	409	139	
4	0	0	0	0	408	139	
5	0	0	0	0	411	138	
6	0	0	0	0	414	139	
7	0	0	0	0	418	139	
8	0	0	0	0	423	138	
9	0	0	0	0	425	139	
10	0	0	0	0	426	138	
11	0	0	0	0	427	139	
12	0	0	0	0	428	139	
13	0	0	0	0	431	138	
14	0	0	0	0	430	139	
15	0	0	0	0	430	138	
0	0	0	0	0	431	139	
1	0	0	0	0	432	139	
2	0	0	0	0	434	138	
3	0	0	0	0	435	139	
4	0	0	0	0	435	139	
5	0	0	0	0	436	139	
6	0	0	0	0	435	138	
7	0	0	0	0	435	139	
8	0	0	0	0	435	139	
9	0	0	0	0	434	138	
10	0	0	0	0	433	139	
11	0	0	0	0	432	138	
12	0	0	0	0	433	139	
13	0	0	0	0	437	139	
14	0	0	0	0	442	138	
15	0	0	0	0	441	139	
0	0	0	0	0	438	139	
1	0	0	0	0	436	138	
2	0	0	0	0	433	139	
3	0	0	0	0	431	139	
4	0	0	0	0	430	139	
5	0	0	0	0	430	139	
6	0	0	0	0	431	139	
7	0	0	0	0	431	138	
8	0	0	0	0	431	139	
9	0	0	0	0	430	138	
10	0	0	0	0	431	139	
11	0	0	0	0	432	139	
12	0	0	0	0	434	139	
13	0	0	0	0	436	138	
14	0	0	0	0	437	139	
15	0	0	0	0	439	139	
0	0	0	0	0	442	138	
1	0	0	0	0	447	139	
2	0	0	0	0	448	139	
3	0	0	0	0	447	138	
4	0	0	0	0	445	139	
5	0	0	0	0	445	139	
6	0	0	0	0	446	138	
7	0	0	0	0	448	139	
8	0	0	0	0	451	139	
9	0	0	0	0	453	138	
10	0	0	0	0	454	139	
11	0	0	0	0	455	138	
12	0	0	0	0	455	139	
13	0	0	0	0	456	139	
14	0	0	0	0	455	138	
15	0	0	0	0	454	139	
0	0	0	0	0	453	139	
1	0	0	0	0	453	138	
2	0	0	0	0	452	139	
3	0	0	0	0	453	139	
4	0	0	0	0	455	139	
5	0	0	0	0	458	138	
6	0	0	0	0	459	139	
7	0	0	0	0	458	139	
8	0	0	0	0	456	138	
9	0	0	0	0	455	139	
10	0	0	0	0	455	139	
11	0	0	0	0	456	138	
12	0	0	0	0	457	139	
13	0	0	0	0	459	138	
14	0	0	0	0	460	139	
15	0	0	0	0	464	139	
0	0	0	0	0	467	138	
1	0	0	0	0	466	139	
2	0	0	0	0	465	139	
3	0	0	0	0	464	138	
4	0	0	0	0	464	139	
5	0	0	0	0	465	139	
6	0	0	0	0	466	138	
7	0	0	0	0	468	138	
8	0	0	0	0	470	139	
9	0	0	0	0	471	139	
10	0	0	0	0	472	138	
11	0	0	0	0	473	139	
12	0	0	0	0	473	139	
13	0	0	0	0	473	138	
14	0	0	0	0	474	139	
15	0	0	0	0	476	137	
0	0	0	0	0	478	138	
1	0	0	0	0	478	139	
2	0	0	0	0	479	138	
3	0	0	0	0	480	139	
4	0	0	0	0	481	139	
5	0	0	0	0	482	137	
6	0	0	0	0	482	138	
7	0	0	0	0	483	139	
8	0	0	0	0	484	139	
9	0	0	0	0	484	138	
10	0	0	0	0	484	139	
11	0	0	0	0	485	137	
12	0	0	0	0	488	138	
13	0	0	0	0	489	139	
14	0	0	0	0	488	137	
15	0	0	0	0	487	139	
0	0	0	0	0	484	139	
1	0	0	0	0	483	138	
2	0	0	0	0	480	139	
3	0	0	0	0	479	139	
4	0	0	0	0	480	138	
5	0	0	0	0	481	138	
6	0	0	0	0	483	139	
7	0	0	0	0	486	139	
8	0	0	0	0	490	138	
9	0	0	0	0	494	138	
10	0	0	0	0	496	139	
11	0	0	0	0	498	138	
12	0	0	0	0	498	137	
13	0	0	0	0	499	139	
14	0	0	0	0	499	138	
15	0	0	0	0	500	138	
0	0	0	0	0	501	139	
1	0	0	0	0	503	137	
2	0	0	0	0	503	139	
3	0	0	0	0	503	139	
4	0	0	0	0	504	137	
5	0	0	0	0	504	139	
6	0	0	0	0	504	139	
7	0	0	0	0	505	138	
8	0	0	0	0	505	139	
9	0	0	0	0	506	137	
10	0	0	0	0	506	138	
11	0	0	0	0	508	139	
12	0	0	0	0	512	137	
13	0	0	0	0	513	139	
14	0	0	0	0	512	138	
15	0	0	0	0	512	138	
0	0	0	0	0	511	139	
1	0	0	0	0	511	137	
2	0	0	0	0	512	139	
3	0	0	0	0	513	139	
4	0	0	0	0	513	137	
5	0	0	0	0	513	139	
6	0	0	0	0	512	138	
7	0	0	0	0	512	137	
8	0	0	0	0	512	139	
9	0	0	0	0	512	137	
10	0	0	0	0	512	138	
11	0	0	0	0	512	139	
12	0	0	0	0	512	137	
13	0	0	0	0	513	139	
14	0	0	0	0	514	139	
15	0	0	0	0	515	137	
0	0	0	0	0	517	139	
1	0	0	0	0	520	139	
2	0	0	0	0	522	137	
3	0	0	0	0	523	139	
4	0	0	0	0	524	138	
5	0	0	0	0	524	137	
6	0	0	0	0	523	139	
7	0	0	0	0	522	139	
8	0	0	0	0	524	137	
9	0	0	0	0	527	138	
10	0	0	0	0	527	138	
11	0	0	0	0	524	139	
12	0	0	0	0	523	137	
13	0	0	0	0	523	139	
14	0	0	0	0	522	137	
15	0	0	0	0	523	138	
0	0	0	0	0	524	139	
1	0	0	0	0	525	137	
2	0	0	0	0	526	139	
3	0	0	0	0	527	139	
4	0	0	0	0	529	137	
5	0	0	0	0	531	139	
6	0	0	0	0	531	138	
7	0	0	0	0	532	137	
8	0	0	0	0	535	138	
9	0	0	0	0	533	137	
10	0	0	0	0	531	138	
11	0	0	0	0	529	139	
12	0	0	0	0	529	137	
13	0	0	0	0	528	138	
14	0	0	0	0	527	138	
15	0	0	0	0	527	137	
0	0	0	0	0	527	138	
1	0	0	0	0	529	137	
2	0	0	0	0	531	137	
3	0	0	0	0	532	139	
4	0	0	0	0	532	139	
5	0	0	0	0	532	137	
6	0	0	0	0	533	138	
7	0	0	0	0	535	137	
8	0	0	0	0	535	138	
9	0	0	0	0	536	139	
10	0	0	0	0	536	137	
11	0	0	0	0	537	139	
12	0	0	0	0	538	138	
13	0	0	0	0	540	137	
14	0	0	0	0	540	139	
15	0	0	0	0	541	137	
0	0	0	0	0	542	138	
1	0	0	0	0	542	139	
2	0	0	0	0	542	137	
3	0	0	0	0	541	138	
4	0	0	0	0	541	137	
5	0	0	0	0	540	137	
6	0	0	0	0	539	138	
7	0	0	0	0	539	137	
8	0	0	0	0	537	138	
9	0	0	0	0	536	139	
10	0	0	0	0	538	137	
11	0	0	0	0	540	138	
12	0	0	0	0	541	139	
13	0	0	0	0	543	137	
14	0	0	0	0	546	138	
15	0	0	0	0	547	138	
0	0	0	0	0	549	137	
1	0	0	0	0	552	138	
2	0	0	0	0	551	138	
3	0	0	0	0	549	137	
4	0	0	0	0	546	139	
5	0	0	0	0	544	137	
6	0	0	0	0	542	138	
7	0	0	0	0	541	139	
8	0	0	0	0	540	137	
9	0	0	0	0	540	138	
10	0	0	0	0	540	139	
11	0	0	0	0	539	137	
12	0	0	0	0	540	139	
13	0	0	0	0	541	138	
14	0	0	0	0	541	138	
15	0	0	0	0	540	139	
0	0	0	0	0	541	137	
1	0	0	0	0	542	139	
2	0	0	0	0	543	137	
3	0	0	0	0	543	138	
4	0	0	0	0	547	139	
5	0	0	0	0	547	137	
6	0	0	0	0	544	138	
7	0	0	0	0	542	138	
8	0	0	0	0	538	137	
9	0	0	0	0	536	138	
10	0	0	0	0	535	137	
11	0	0	0	0	536	138	
12	0	0	0	0	536	139	
13	0	0	0	0	538	137	
14	0	0	0	0	539	138	
15	0	0	0	0	539	137	
0	0	0	0	0	539	138	
1	0	0	0	0	537	139	
2	0	0	0	0	536	137	
3	0	0	0	0	536	138	
4	0	0	0	0	534	137	
5	0	0	0	0	532	138	
6	0	0	0	0	530	139	
7	0	0	0	0	527	137	
8	0	0	0	0	526	138	
9	0	0	0	0	524	139	
10	0	0	0	0	523	137	
11	0	0	0	0	522	138	
12	0	0	0	0	521	139	
13	0	0	0	0	522	137	
14	0	0	0	0	523	138	
15	0	0	0	0	524	137	
0	0	0	0	0	527	138	
1	0	0	0	0	529	139	
2	0	0	0	0	527	137	
3	0	0	0	0	523	138	
4	0	0	0	0	518	137	
5	0	0	0	0	514	138	
6	0	0	0	0	510	139	
7	0	0	0	0	507	137	
8	0	0	0	0	503	138	
9	0	0	0	0	500	137	
10	0	0	0	0	497	138	
11	0	0	0	0	496	139	
12	0	0	0	0	494	137	
13	0	0	0	0	492	138	
14	0	0	0	0	490	139	
15	0	0	0	0	487	137	
0	0	0	0	0	485	139	
1	0	0	0	0	481	137	
2	0	0	0	0	480	139	
3	0	0	0	0	478	138	
4	0	0	0	0	476	139	
5	0	0	0	0	475	139	
6	0	0	0	0	475	137	
7	0	0	0	0	474	139	
8	0	0	0	0	474	138	
9	0	0	0	0	474	138	
10	0	0	0	0	473	139	
11	0	0	0	0	472	137	
12	0	0	0	0	469	139	
13	0	0	0	0	467	139	
14	0	0	0	0	463	138	
15	0	0	0	0	462	139	
0	0	0	0	0	462	138	
1	0	0	0	0	463	138	
2	0	0	0	0	462	139	
3	0	0	0	0	458	137	
4	0	0	0	0	455	139	
5	0	0	0	0	452	138	
6	0	0	0	0	449	138	
7	0	0	0	0	447	139	
8	0	0	0	0	445	137	
9	0	0	0	0	442	138	
10	0	0	0	0	440	139	
11	0	0	0	0	440	137	
12	0	0	0	0	440	139	
13	0	0	0	0	441	139	
14	0	0	0	0	442	138	
15	0	0	0	0	443	139	
0	0	0	0	0	444	138	
1	0	0	0	0	445	139	
2	0	0	0	0	447	138	
3	0	0	0	0	449	138	
4	0	0	0	0	451	139	
5	0	0	0	0	452	139	
6	0	0	0	0	451	138	
7	0	0	0	0	450	139	
8	0	0	0	0	451	137	
9	0	0	0	0	454	138	
10	0	0	0	0	454	139	
11	0	0	0	0	451	137	
12	0	0	0	0	449	139	
13	0	0	0	0	448	139	
14	0	0	0	0	448	138	
15	0	0	0	0	449	139	
0	0	0	0	0	451	137	
1	0	0	0	0	451	138	
2	0	0	0	0	456	139	
3	0	0	0	0	459	137	
4	0	0	0	0	459	138	
5	0	0	0	0	459	139	
6	0	0	0	0	457	137	
7	0	0	0	0	457	139	
8	0	0	0	0	457	138	
9	0	0	0	0	457	138	
10	0	0	0	0	459	139	
11	0	0	0	0	460	137	
12	0	0	0	0	460	139	
13	0	0	0	0	460	139	
14	0	0	0	0	461	138	
15	0	0	0	0	463	139	
0	0	0	0	0	465	137	
1	0	0	0	0	466	139	
2	0	0	0	0	465	139	
3	0	0	0	0	466	138	
4	0	0	0	0	469	139	
5	0	0	0	0	473	139	
6	0	0	0	0	472	137	
7	0	0	0	0	468	139	
8	0	0	0	0	466	138	
9	0	0	0	0	466	138	
10	0	0	0	0	466	139	
11	0	0	0	0	467	139	
12	0	0	0	0	467	138	
13	0	0	0	0	468	139	
14	0	0	0	0	468	138	
15	0	0	0	0	467	138	
0	0	0	0	0	467	139	
1	0	0	0	0	467	137	
2	0	0	0	0	467	138	
3	0	0	0	0	467	139	
4	0	0	0	0	468	137	
5	0	0	0	0	470	138	
6	0	0	0	0	470	138	
7	0	0	0	0	471	137	
8	0	0	0	0	472	138	
9	0	0	0	0	474	138	
10	0	0	0	0	475	137	
11	0	0	0	0	475	139	
12	0	0	0	0	475	139	
13	0	0	0	0	479	137	
14	0	0	0	0	483	138	
15	0	0	0	0	483	139	
0	0	0	0	0	481	137	
1	0	0	0	0	480	139	
2	0	0	0	0	480	138	
3	0	0	0	0	480	137	
4	0	0	0	0	480	139	
5	0	0	0	0	479	138	
6	0	0	0	0	480	137	
7	0	0	0	0	480	138	
8	0	0	0	0	481	137	
9	0	0	0	0	482	138	
10	0	0	0	0	483	138	
11	0	0	0	0	484	138	
12	0	0	0	0	484	137	
13	0	0	0	0	484	138	
14	0	0	0	0	484	138	
15	0	0	0	0	484	137	
0	0	0	0	0	484	138	
1	0	0	0	0	485	137	
2	0	0	0	0	487	138	
3	0	0	0	0	488	139	
4	0	0	0	0	489	137	
5	0	0	0	0	490	138	
6	0	0	0	0	490	139	
7	0	0	0	0	489	137	
8	0	0	0	0	491	138	
9	0	0	0	0	491	139	
10	0	0	0	0	490	137	
11	0	0	0	0	489	139	
12	0	0	0	0	488	138	
13	0	0	0	0	487	138	
14	0	0	0	0	486	138	
15	0	0	0	0	485	137	
0	0	0	0	0	484	138	
1	0	0	0	0	484	139	
2	0	0	0	0	482	137	
3	0	0	0	0	480	138	
4	0	0	0	0	481	138	
5	0	0	0	0	486	137	
6	0	0	0	0	487	138	
7	0	0	0	0	486	138	
8	0	0	0	0	486	137	
9	0	0	0	0	486	138	
10	0	0	0	0	487	137	
11	0	0	0	0	493	138	
12	0	0	0	0	497	139	
13	0	0	0	0	499	137	
14	0	0	0	0	499	137	
15	0	0	0	0	499	138	
0	0	0	0	0	499	137	
1	0	0	0	0	503	137	
2	0	0	0	0	505	138	
3	0	0	0	0	507	137	
4	0	0	0	0	508	138	
5	0	0	0	0	507	138	
6	0	0	0	0	507	137	
7	0	0	0	0	509	138	
8	0	0	0	0	508	138	
9	0	0	0	0	508	137	
10	0	0	0	0	508	138	
11	0	0	0	0	509	139	
12	0	0	0	0	510	137	
13	0	0	0	0	510	138	
14	0	0	0	0	510	138	
15	0	0	0	0	510	137	
0	0	0	0	0	510	138	
1	0	0	0	0	510	138	
2	0	0	0	0	510	137	
3	0	0	0	0	510	138	
4	0	0	0	0	511	139	
5	0	0	0	0	512	137	
6	0	0	0	0	514	138	
7	0	0	0	0	513	138	
8	0	0	0	0	511	137	
9	0	0	0	0	509	138	
10	0	0	0	0	507	138	
11	0	0	0	0	506	137	
12	0	0	0	0	505	138	
13	0	0	0	0	504	137	
14	0	0	0	0	502	138	
15	0	0	0	0	502	139	
0	0	0	0	0	502	137	
1	0	0	0	0	503	137	
2	0	0	0	0	503	138	
3	0	0	0	0	504	137	
4	0	0	0	0	505	138	
5	0	0	0	0	507	138	
6	0	0	0	0	507	137	
7	0	0	0	0	507	138	
8	0	0	0	0	507	137	
9	0	0	0	0	506	138	
10	0	0	0	0	506	138	
11	0	0	0	0	506	137	
12	0	0	0	0	507	138	
13	0	0	0	0	508	138	
14	0	0	0	0	508	137	
15	0	0	0	0	508	138	
0	0	0	0	0	508	138	
1	0	0	0	0	508	137	
2	0	0	0	0	512	138	
3	0	0	0	0	514	138	
4	0	0	0	0	512	137	
5	0	0	0	0	510	138	
6	0	0	0	0	506	139	
7	0	0	0	0	504	137	
8	0	0	0	0	502	138	
9	0	0	0	0	502	138	
10	0	0	0	0	500	137	
11	0	0	0	0	500	138	
12	0	0	0	0	501	138	
13	0	0	0	0	501	137	
14	0	0	0	0	499	137	
15	0	0	0	0	498	138	
0	0	0	0	0	498	138	
1	0	0	0	0	499	137	
2	0	0	0	0	500	138	
3	0	0	0	0	501	138	
4	0	0	0	0	502	137	
5	0	0	0	0	504	138	
6	0	0	0	0	507	137	
7	0	0	0	0	511	137	
8	0	0	0	0	515	138	
9	0	0	0	0	519	137	
10	0	0	0	0	521	137	
11	0	0	0	0	523	138	
12	0	0	0	0	525	137	
13	0	0	0	0	526	138	
14	0	0	0	0	524	138	
15	0	0	0	0	524	137	
0	0	0	0	0	523	138	
1	0	0	0	0	522	138	
2	0	0	0	0	521	137	
3	0	0	0	0	521	138	
4	0	0	0	0	519	137	
5	0	0	0	0	520	138	
6	0	0	0	0	523	138	
7	0	0	0	0	523	137	
8	0	0	0	0	519	138	
9	0	0	0	0	517	137	
10	0	0	0	0	516	138	
11	0	0	0	0	518	138	
12	0	0	0	0	520	137	
13	0	0	0	0	519	138	
14	0	0	0	0	519	138	
15	0	0	0	0	518	137	
0	0	0	0	0	517	138	
1	0	0	0	0	518	137	
2	0	0	0	0	519	137	
3	0	0	0	0	519	138	
4	0	0	0	0	520	137	
5	0	0	0	0	521	138	
6	0	0	0	0	521	138	
7	0	0	0	0	521	137	
8	0	0	0	0	520	138	
9	0	0	0	0	520	138	
10	0	0	0	0	521	137	
11	0	0	0	0	522	138	
12	0	0	0	0	523	138	
13	0	0	0	0	524	137	
14	0	0	0	0	524	138	
15	0	0	0	0	524	138	
0	0	0	0	0	524	137	
1	0	0	0	0	524	138	
2	0	0	0	0	523	138	
3	0	0	0	0	521	137	
4	0	0	0	0	520	137	
5	0	0	0	0	519	138	
6	0	0	0	0	521	137	
7	0	0	0	0	525	138	
8	0	0	0	0	526	138	
9	0	0	0	0	524	137	
10	0	0	0	0	522	138	
11	0	0	0	0	521	138	
12	0	0	0	0	520	137	
13	0	0	0	0	521	138	
14	0	0	0	0	522	138	
15	0	0	0	0	523	137	
0	0	0	0	0	523	138	
1	0	0	0	0	524	137	
2	0	0	0	0	525	137	
3	0	0	0	0	527	138	
4	0	0	0	0	527	137	
5	0	0	0	0	527	137	
6	0	0	0	0	527	138	
7	0	0	0	0	527	137	
8	0	0	0	0	529	137	
9	0	0	0	0	533	137	
10	0	0	0	0	536	138	
11	0	0	0	0	537	138	
12	0	0	0	0	538	137	
13	0	0	0	0	538	137	
14	0	0	0	0	537	138	
15	0	0	0	0	536	137	
0	0	0	0	0	534	137	
1	0	0	0	0	534	138	
2	0	0	0	0	532	137	
3	0	0	0	0	532	137	
4	0	0	0	0	535	138	
5	0	0	0	0	539	138	
6	0	0	0	0	539	137	
7	0	0	0	0	538	138	
8	0	0	0	0	538	138	
9	0	0	0	0	538	137	
10	0	0	0	0	538	138	
11	0	0	0	0	538	138	
12	0	0	0	0	538	137	
13	0	0	0	0	537	137	
14	0	0	0	0	537	138	
15	0	0	0	0	537	137	
0	0	0	0	0	537	137	
1	0	0	0	0	537	138	
2	0	0	0	0	537	137	
3	0	0	0	0	536	136	
4	0	0	0	0	536	138	
5	0	0	0	0	536	138	
6	0	0	0	0	537	137	
7	0	0	0	0	538	138	
8	0	0	0	0	538	138	
9	0	0	0	0	538	137	
10	0	0	0	0	538	138	
11	0	0	0	0	538	137	
12	0	0	0	0	537	137	
13	0	0	0	0	535	138	
14	0	0	0	0	533	137	
15	0	0	0	0	532	137	
0	0	0	0	0	532	138	
1	0	0	0	0	532	136	
2	0	0	0	0	536	138	
3	0	0	0	0	540	138	
4	0	0	0	0	539	136	
5	0	0	0	0	537	137	
6	0	0	0	0	534	138	
7	0	0	0	0	533	137	
8	0	0	0	0	534	137	
9	0	0	0	0	535	138	
10	0	0	0	0	535	136	
11	0	0	0	0	535	137	
12	0	0	0	0	536	138	
13	0	0	0	0	536	136	
14	0	0	0	0	537	138	
15	0	0	0	0	538	138	
0	0	0	0	0	539	137	
1	0	0	0	0	540	138	
2	0	0	0	0	540	137	
3	0	0	0	0	541	137	
4	0	0	0	0	540	138	
5	0	0	0	0	539	136	
6	0	0	0	0	538	137	
7	0	0	0	0	538	138	
8	0	0	0	0	536	137	
9	0	0	0	0	536	137	
10	0	0	0	0	536	138	
11	0	0	0	0	536	138	
12	0	0	0	0	536	137	
13	0	0	0	0	537	138	
14	0	0	0	0	538	137	
15	0	0	0	0	540	137	
0	0	0	0	0	539	138	
1	0	0	0	0	539	137	
2	0	0	0	0	539	137	
3	0	0	0	0	539	138	
4	0	0	0	0	539	137	
5	0	0	0	0	539	137	
6	0	0	0	0	539	138	
7	0	0	0	0	538	136	
8	0	0	0	0	537	138	
9	0	0	0	0	536	138	
10	0	0	0	0	537	137	
11	0	0	0	0	537	138	
12	0	0	0	0	537	137	
13	0	0	0	0	539	137	
14	0	0	0	0	541	138	
15	0	0	0	0	541	138	
0	0	0	0	0	540	137	
1	0	0	0	0	537	137	
2	0	0	0	0	535	137	
3	0	0	0	0	533	137	
4	0	0	0	0	534	138	
5	0	0	0	0	535	136	
6	0	0	0	0	535	137	
7	0	0	0	0	536	138	
8	0	0	0	0	536	136	
9	0	0	0	0	537	137	
10	0	0	0	0	538	138	
11	0	0	0	0	537	136	
12	0	0	0	0	536	138	
13	0	0	0	0	536	138	
14	0	0	0	0	537	136	
15	0	0	0	0	537	138	
0	0	0	0	0	536	137	
1	0	0	0	0	536	137	
2	0	0	0	0	535	138	
3	0	0	0	0	534	136	
4	0	0	0	0	535	137	
5	0	0	0	0	540	138	
6	0	0	0	0	542	137	
7	0	0	0	0	542	137	
8	0	0	0	0	539	138	
9	0	0	0	0	536	137	
10	0	0	0	0	536	137	
11	0	0	0	0	536	138	
12	0	0	0	0	536	136	
13	0	0	0	0	535	137	
14	0	0	0	0	535	138	
15	0	0	0	0	535	136	
0	0	0	0	0	534	138	
1	0	0	0	0	535	138	
2	0	0	0	0	534	136	
3	0	0	0	0	535	138	
4	0	0	0	0	535	138	
5	0	0	0	0	536	137	
6	0	0	0	0	535	137	
7	0	0	0	0	536	138	
8	0	0	0	0	536	137	
9	0	0	0	0	535	137	
10	0	0	0	0	535	138	
11	0	0	0	0	535	136	
12	0	0	0	0	535	138	
13	0	0	0	0	536	138	
14	0	0	0	0	536	137	
15	0	0	0	0	536	138	
0	0	0	0	0	536	136	
1	0	0	0	0	536	138	
2	0	0	0	0	538	138	
3	0	0	0	0	541	136	
4	0	0	0	0	542	138	
5	0	0	0	0	540	138	
6	0	0	0	0	537	136	
7	0	0	0	0	536	138	
8	0	0	0	0	535	138	
9	0	0	0	0	534	136	
10	0	0	0	0	533	137	
11	0	0	0	0	533	138	
12	0	0	0	0	534	138	
13	0	0	0	0	536	136	
14	0	0	0	0	537	138	
15	0	0	0	0	538	137	
0	0	0	0	0	538	137	
1	0	0	0	0	538	138	
2	0	0	0	0	538	136	
3	0	0	0	0	539	138	
4	0	0	0	0	539	138	
5	0	0	0	0	539	136	
6	0	0	0	0	538	138	
7	0	0	0	0	538	137	
8	0	0	0	0	539	137	
9	0	0	0	0	540	138	
10	0	0	0	0	540	136	
11	0	0	0	0	540	137	
12	0	0	0	0	539	138	
13	0	0	0	0	540	136	
14	0	0	0	0	539	138	
15	0	0	0	0	539	138	
0	0	0	0	0	540	137	
1	0	0	0	0	539	138	
2	0	0	0	0	538	137	
3	0	0	0	0	538	137	
4	0	0	0	0	538	138	
5	0	0	0	0	539	136	
6	0	0	0	0	539	137	
7	0	0	0	0	539	138	
8	0	0	0	0	539	138	
9	0	0	0	0	538	137	
10	0	0	0	0	537	138	
11	0	0	0	0	537	137	
12	0	0	0	0	541	137	
13	0	0	0	0	543	137	
14	0	0	0	0	541	137	
15	0	0	0	0	537	137	
0	0	0	0	0	533	137	
1	0	0	0	0	532	136	
2	0	0	0	0	533	137	
3	0	0	0	0	534	137	
4	0	0	0	0	536	138	
5	0	0	0	0	537	137	
6	0	0	0	0	537	137	
7	0	0	0	0	536	138	
8	0	0	0	0	536	138	
9	0	0	0	0	535	136	
10	0	0	0	0	535	137	
11	0	0	0	0	534	138	
12	0	0	0	0	534	136	
13	0	0	0	0	534	137	
14	0	0	0	0	534	138	
15	0	0	0	0	534	136	
0	0	0	0	0	534	138	
1	0	0	0	0	534	138	
2	0	0	0	0	534	136	
3	0	0	0	0	536	137	
4	0	0	0	0	537	138	
5	0	0	0	0	536	137	
6	0	0	0	0	532	137	
7	0	0	0	0	529	138	
8	0	0	0	0	527	138	
9	0	0	0	0	524	137	
10	0	0	0	0	524	138	
11	0	0	0	0	523	138	
12	0	0	0	0	524	136	
13	0	0	0	0	525	138	
14	0	0	0	0	526	138	
15	0	0	0	0	528	136	
0	0	0	0	0	529	137	
1	0	0	0	0	530	137	
2	0	0	0	0	530	136	
3	0	0	0	0	530	137	
4	0	0	0	0	529	138	
5	0	0	0	0	529	136	
6	0	0	0	0	531	138	
7	0	0	0	0	531	138	
8	0	0	0	0	531	137	
9	0	0	0	0	532	137	
10	0	0	0	0	533	137	
11	0	0	0	0	533	137	
12	0	0	0	0	532	138	
13	0	0	0	0	530	137	
14	0	0	0	0	528	136	
15	0	0	0	0	527	138	
0	0	0	0	0	526	137	
1	0	0	0	0	525	137	
2	0	0	0	0	525	137	
3	0	0	0	0	525	137	
4	0	0	0	0	525	137	
5	0	0	0	0	525	138	
6	0	0	0	0	525	136	
7	0	0	0	0	526	137	
8	0	0	0	0	529	138	
9	0	0	0	0	527	136	
10	0	0	0	0	525	137	
11	0	0	0	0	524	138	
12	0	0	0	0	523	137	
13	0	0	0	0	523	137	
14	0	0	0	0	523	137	
15	0	0	0	0	523	136	
0	0	0	0	0	524	137	
1	0	0	0	0	524	138	
2	0	0	0	0	524	136	
3	0	0	0	0	523	137	
4	0	0	0	0	522	138	
5	0	0	0	0	522	137	
6	0	0	0	0	522	137	
7	0	0	0	0	522	136	
8	0	0	0	0	522	137	
9	0	0	0	0	522	137	
10	0	0	0	0	523	136	
11	0	0	0	0	522	137	
12	0	0	0	0	522	138	
13	0	0	0	0	522	136	
14	0	0	0	0	520	138	
15	0	0	0	0	519	138	
0	0	0	0	0	518	136	
1	0	0	0	0	518	138	
2	0	0	0	0	518	137	
3	0	0	0	0	516	137	
4	0	0	0	0	516	136	
5	0	0	0	0	517	137	
6	0	0	0	0	518	138	
7	0	0	0	0	518	136	
8	0	0	0	0	518	138	
9	0	0	0	0	519	137	
10	0	0	0	0	519	136	
11	0	0	0	0	519	137	
12	0	0	0	0	520	137	
13	0	0	0	0	524	136	
14	0	0	0	0	527	137	
15	0	0	0	0	526	137	
0	0	0	0	0	523	137	
1	0	0	0	0	521	137	
2	0	0	0	0	520	137	
3	0	0	0	0	519	136	
4	0	0	0	0	518	137	
5	0	0	0	0	519	138	
6	0	0	0	0	519	137	
7	0	0	0	0	520	137	
8	0	0	0	0	522	137	
9	0	0	0	0	522	137	
10	0	0	0	0	524	137	
11	0	0	0	0	524	137	
12	0	0	0	0	524	136	
13	0	0	0	0	524	137	
14	0	0	0	0	523	137	
15	0	0	0	0	522	136	
0	0	0	0	0	521	137	
1	0	0	0	0	521	137	
2	0	0	0	0	521	137	
3	0	0	0	0	522	137	
4	0	0	0	0	523	137	
5	0	0	0	0	522	137	
6	0	0	0	0	521	137	
7	0	0	0	0	520	136	
8	0	0	0	0	519	137	
9	0	0	0	0	518	138	
10	0	0	0	0	516	137	
11	0	0	0	0	515	136	
12	0	0	0	0	514	137	
13	0	0	0	0	515	138	
14	0	0	0	0	517	136	
15	0	0	0	0	522	137	
0	0	0	0	0	524	137	
1	0	0	0	0	524	136	
2	0	0	0	0	522	137	
3	0	0	0	0	519	138	
4	0	0	0	0	519	136	
5	0	0	0	0	519	137	
6	0	0	0	0	519	137	
7	0	0	0	0	519	136	
8	0	0	0	0	519	137	
9	0	0	0	0	520	137	
10	0	0	0	0	521	136	
11	0	0	0	0	521	137	
12	0	0	0	0	521	138	
13	0	0	0	0	521	136	
14	0	0	0	0	521	137	
15	0	0	0	0	522	138	
0	0	0	0	0	522	136	
1	0	0	0	0	523	137	
2	0	0	0	0	523	137	
3	0	0	0	0	524	137	
4	0	0	0	0	525	138	
5	0	0	0	0	525	136	
6	0	0	0	0	524	137	
7	0	0	0	0	524	138	
8	0	0	0	0	524	136	
9	0	0	0	0	524	137	
10	0	0	0	0	527	136	
11	0	0	0	0	528	137	
12	0	0	0	0	528	138	
13	0	0	0	0	526	136	
14	0	0	0	0	524	137	
15	0	0	0	0	524	138	
0	0	0	0	0	524	136	
1	0	0	0	0	524	137	
2	0	0	0	0	525	137	
3	0	0	0	0	527	136	
4	0	0	0	0	528	137	
5	0	0	0	0	529	137	
6	0	0	0	0	530	136	
7	0	0	0	0	531	137	
8	0	0	0	0	530	137	
9	0	0	0	0	529	137	
10	0	0	0	0	528	136	
11	0	0	0	0	529	137	
12	0	0	0	0	529	137	
13	0	0	0	0	528	136	
14	0	0	0	0	528	137	
15	0	0	0	0	527	137	
0	0	0	0	0	527	137	
1	0	0	0	0	527	136	
2	0	0	0	0	528	137	
3	0	0	0	0	528	136	
4	0	0	0	0	529	137	
5	0	0	0	0	529	137	
6	0	0	0	0	529	136	
7	0	0	0	0	528	137	
8	0	0	0	0	529	137	
9	0	0	0	0	528	136	
10	0	0	0	0	528	137	
11	0	0	0	0	527	137	
12	0	0	0	0	527	137	
13	0	0	0	0	527	137	
14	0	0	0	0	527	137	
15	0	0	0	0	526	136	
0	0	0	0	0	526	137	
1	0	0	0	0	526	137	
2	0	0	0	0	526	136	
3	0	0	0	0	525	137	
4	0	0	0	0	529	137	
5	0	0	0	0	530	136	
6	0	0	0	0	529	137	
7	0	0	0	0	526	137	
8	0	0	0	0	523	136	
9	0	0	0	0	520	137	
10	0	0	0	0	519	137	
11	0	0	0	0	519	137	
12	0	0	0	0	520	136	
13	0	0	0	0	521	137	
14	0	0	0	0	523	138	
15	0	0	0	0	524	136	
0	0	0	0	0	524	137	
1	0	0	0	0	522	137	
2	0	0	0	0	521	136	
3	0	0	0	0	521	137	
4	0	0	0	0	520	137	
5	0	0	0	0	519	136	
6	0	0	0	0	517	137	
7	0	0	0	0	515	136	
8	0	0	0	0	512	137	
9	0	0	0	0	511	137	
10	0	0	0	0	511	137	
11	0	0	0	0	511	136	
12	0	0	0	0	510	137	
13	0	0	0	0	510	137	
14	0	0	0	0	508	136	
15	0	0	0	0	507	137	
0	0	0	0	0	507	137	
1	0	0	0	0	507	136	
2	0	0	0	0	506	137	
3	0	0	0	0	506	137	
4	0	0	0	0	505	137	
5	0	0	0	0	504	137	
6	0	0	0	0	503	136	
7	0	0	0	0	504	137	
8	0	0	0	0	505	137	
9	0	0	0	0	508	136	
10	0	0	0	0	509	137	
11	0	0	0	0	511	137	
12	0	0	0	0	515	136	
13	0	0	0	0	515	137	
14	0	0	0	0	513	137	
15	0	0	0	0	512	136	
0	0	0	0	0	511	137	
1	0	0	0	0	513	138	
2	0	0	0	0	513	136	
3	0	0	0	0	512	137	
4	0	0	0	0	511	137	
5	0	0	0	0	511	136	
6	0	0	0	0	510	137	
7	0	0	0	0	509	138	
8	0	0	0	0	509	136	
9	0	0	0	0	508	137	
10	0	0	0	0	507	137	
11	0	0	0	0	506	136	
12	0	0	0	0	506	137	
13	0	0	0	0	506	138	
14	0	0	0	0	506	136	
15	0	0	0	0	506	137	
0	0	0	0	0	507	136	
1	0	0	0	0	508	136	
2	0	0	0	0	508	137	
3	0	0	0	0	510	136	
4	0	0	0	0	512	137	
5	0	0	0	0	512	137	
6	0	0	0	0	510	136	
7	0	0	0	0	508	137	
8	0	0	0	0	505	137	
9	0	0	0	0	505	136	
10	0	0	0	0	506	137	
11	0	0	0	0	506	137	
12	0	0	0	0	508	136	
13	0	0	0	0	510	137	
14	0	0	0	0	511	137	
15	0	0	0	0	512	136	
0	0	0	0	0	513	137	
1	0	0	0	0	515	137	
2	0	0	0	0	517	136	
3	0	0	0	0	521	137	
4	0	0	0	0	528	137	
5	0	0	0	0	536	136	
6	0	0	0	0	545	137	
7	0	0	0	0	552	137	
8	0	0	0	0	561	136	
9	0	0	0	0	571	137	
10	0	0	0	0	580	136	
11	0	0	0	0	591	136	
12	0	0	0	0	602	137	
13	0	0	0	0	612	135	
14	0	0	0	0	622	135	
15	0	0	0	0	629	137	
0	0	0	0	0	635	137	
1	0	0	0	0	640	135	
2	0	0	0	0	644	137	
3	0	0	0	0	648	136	
4	0	0	0	0	652	136	
5	0	0	0	0	654	137	
6	0	0	0	0	660	135	
7	0	0	0	0	663	136	
8	0	0	0	0	662	137	
9	0	0	0	0	659	135	
10	0	0	0	0	653	137	
11	0	0	0	0	647	137	
12	0	0	0	0	640	135	
13	0	0	0	0	633	137	
14	0	0	0	0	625	137	
15	0	0	0	0	617	136	
0	0	0	0	0	611	137	
1	0	0	0	0	604	136	
2	0	0	0	0	597	136	
3	0	0	0	0	587	137	
4	0	0	0	0	576	137	
5	0	0	0	0	566	135	
6	0	0	0	0	554	137	
7	0	0	0	0	542	137	
8	0	0	0	0	530	136	
9	0	0	0	0	518	137	
10	0	0	0	0	508	136	
11	0	0	0	0	497	137	
12	0	0	0	0	491	137	
13	0	0	0	0	483	136	
14	0	0	0	0	476	137	
15	0	0	0	0	471	137	
0	0	0	0	0	466	136	
1	0	0	0	0	463	137	
2	0	0	0	0	460	137	
3	0	0	0	0	460	136	
4	0	0	0	0	462	137	
5	0	0	0	0	462	137	
6	0	0	0	0	459	137	
7	0	0	0	0	457	137	
8	0	0	0	0	456	137	
9	0	0	0	0	457	137	
10	0	0	0	0	458	137	
11	0	0	0	0	460	137	
12	0	0	0	0	462	137	
13	0	0	0	0	464	137	
14	0	0	0	0	465	137	
15	0	0	0	0	468	136	
0	0	0	0	0	471	137	
1	0	0	0	0	473	137	
2	0	0	0	0	474	136	
3	0	0	0	0	476	137	
4	0	0	0	0	477	137	
5	0	0	0	0	478	136	
6	0	0	0	0	478	137	
7	0	0	0	0	478	137	
8	0	0	0	0	478	138	
9	0	0	0	0	479	136	
10	0	0	0	0	479	137	
11	0	0	0	0	479	137	
12	0	0	0	0	479	137	
13	0	0	0	0	480	137	
14	0	0	0	0	481	137	
15	0	0	0	0	482	136	
0	0	0	0	0	483	137	
1	0	0	0	0	482	137	
2	0	0	0	0	481	136	
3	0	0	0	0	481	136	
4	0	0	0	0	480	137	
5	0	0	0	0	480	136	
6	0	0	0	0	480	137	
7	0	0	0	0	480	137	
8	0	0	0	0	480	136	
9	0	0	0	0	480	137	
10	0	0	0	0	480	137	
11	0	0	0	0	479	136	
12	0	0	0	0	479	137	
13	0	0	0	0	479	137	
14	0	0	0	0	479	136	
15	0	0	0	0	480	137	
0	0	0	0	0	481	137	
1	0	0	0	0	485	136	
2	0	0	0	0	489	137	
3	0	0	0	0	489	137	
4	0	0	0	0	487	136	
5	0	0	0	0	487	137	
6	0	0	0	0	486	137	
7	0	0	0	0	484	136	
8	0	0	0	0	484	137	
9	0	0	0	0	483	137	
10	0	0	0	0	483	137	
11	0	0	0	0	483	136	
12	0	0	0	0	483	137	
13	0	0	0	0	484	137	
14	0	0	0	0	483	136	
15	0	0	0	0	484	137	
0	0	0	0	0	484	137	
1	0	0	0	0	486	136	
2	0	0	0	0	486	137	
3	0	0	0	0	487	136	
4	0	0	0	0	489	137	
5	0	0	0	0	489	137	
6	0	0	0	0	488	136	
7	0	0	0	0	487	137	
8	0	0	0	0	488	137	
9	0	0	0	0	489	136	
10	0	0	0	0	489	137	
11	0	0	0	0	489	137	
12	0	0	0	0	489	137	
13	0	0	0	0	489	137	
14	0	0	0	0	489	137	
15	0	0	0	0	490	136	
0	0	0	0	0	490	136	
1	0	0	0	0	491	137	
2	0	0	0	0	492	136	
3	0	0	0	0	492	136	
4	0	0	0	0	493	137	
5	0	0	0	0	492	136	
6	0	0	0	0	492	137	
7	0	0	0	0	492	137	
8	0	0	0	0	491	136	
9	0	0	0	0	491	137	
10	0	0	0	0	491	137	
11	0	0	0	0	491	136	
12	0	0	0	0	492	137	
13	0	0	0	0	492	137	
14	0	0	0	0	494	136	
15	0	0	0	0	498	137	
0	0	0	0	0	499	136	
1	0	0	0	0	497	136	
2	0	0	0	0	494	137	
3	0	0	0	0	492	136	
4	0	0	0	0	492	137	
5	0	0	0	0	492	137	
6	0	0	0	0	492	136	
7	0	0	0	0	492	137	
8	0	0	0	0	492	136	
9	0	0	0	0	495	136	
10	0	0	0	0	499	137	
11	0	0	0	0	500	137	
12	0	0	0	0	497	136	
13	0	0	0	0	496	137	
14	0	0	0	0	495	136	
15	0	0	0	0	494	136	
0	0	0	0	0	494	137	
1	0	0	0	0	495	136	
2	0	0	0	0	496	137	
3	0	0	0	0	497	137	
4	0	0	0	0	497	136	
5	0	0	0	0	499	137	
6	0	0	0	0	499	137	
7	0	0	0	0	499	136	
8	0	0	0	0	498	137	
9	0	0	0	0	497	137	
10	0	0	0	0	498	136	
11	0	0	0	0	499	136	
12	0	0	0	0	499	137	
13	0	0	0	0	500	136	
14	0	0	0	0	502	137	
15	0	0	0	0	502	137	
0	0	0	0	0	502	136	
1	0	0	0	0	502	137	
2	0	0	0	0	502	137	
3	0	0	0	0	502	136	
4	0	0	0	0	501	137	
5	0	0	0	0	500	137	
6	0	0	0	0	501	136	
7	0	0	0	0	502	137	
8	0	0	0	0	503	137	
9	0	0	0	0	503	136	
10	0	0	0	0	504	137	
11	0	0	0	0	503	137	
12	0	0	0	0	501	136	
13	0	0	0	0	500	137	
14	0	0	0	0	499	137	
15	0	0	0	0	499	136	
0	0	0	0	0	499	137	
1	0	0	0	0	499	137	
2	0	0	0	0	499	136	
3	0	0	0	0	499	137	
4	0	0	0	0	499	137	
5	0	0	0	0	499	136	
6	0	0	0	0	501	137	
7	0	0	0	0	502	137	
8	0	0	0	0	502	135	
9	0	0	0	0	503	136	
10	0	0	0	0	504	136	
11	0	0	0	0	504	137	
12	0	0	0	0	505	136	
13	0	0	0	0	508	137	
14	0	0	0	0	513	136	
15	0	0	0	0	513	136	
0	0	0	0	0	511	137	
1	0	0	0	0	509	137	
2	0	0	0	0	509	136	
3	0	0	0	0	509	137	
4	0	0	0	0	509	137	
5	0	0	0	0	509	136	
6	0	0	0	0	509	137	
7	0	0	0	0	510	137	
8	0	0	0	0	510	136	
9	0	0	0	0	510	136	
10	0	0	0	0	510	137	
11	0	0	0	0	511	136	
12	0	0	0	0	511	136	
13	0	0	0	0	511	137	
14	0	0	0	0	511	136	
15	0	0	0	0	511	136	
0	0	0	0	0	511	137	
1	0	0	0	0	512	135	
2	0	0	0	0	513	136	
3	0	0	0	0	515	137	
4	0	0	0	0	516	135	
5	0	0	0	0	517	137	
6	0	0	0	0	516	137	
7	0	0	0	0	515	135	
8	0	0	0	0	515	137	
9	0	0	0	0	516	137	
10	0	0	0	0	517	136	
11	0	0	0	0	519	137	
12	0	0	0	0	519	137	
13	0	0	0	0	520	135	
14	0	0	0	0	519	136	
15	0	0	0	0	519	137	
0	0	0	0	0	519	136	
1	0	0	0	0	521	136	
2	0	0	0	0	524	137	
3	0	0	0	0	526	136	
4	0	0	0	0	525	136	
5	0	0	0	0	524	137	
6	0	0	0	0	522	137	
7	0	0	0	0	521	135	
8	0	0	0	0	521	136	
9	0	0	0	0	522	137	
10	0	0	0	0	522	135	
11	0	0	0	0	523	137	
12	0	0	0	0	523	137	
13	0	0	0	0	522	135	
14	0	0	0	0	523	136	
15	0	0	0	0	525	137	
0	0	0	0	0	526	135	
1	0	0	0	0	526	137	
2	0	0	0	0	527	137	
3	0	0	0	0	527	135	
4	0	0	0	0	527	137	
5	0	0	0	0	527	137	
6	0	0	0	0	526	135	
7	0	0	0	0	526	137	
8	0	0	0	0	527	137	
9	0	0	0	0	528	135	
10	0	0	0	0	529	136	
11	0	0	0	0	531	137	
12	0	0	0	0	536	137	
13	0	0	0	0	537	135	
14	0	0	0	0	536	137	
15	0	0	0	0	535	137	
0	0	0	0	0	534	136	
1	0	0	0	0	533	136	
2	0	0	0	0	534	137	
3	0	0	0	0	534	137	
4	0	0	0	0	534	136	
5	0	0	0	0	534	137	
6	0	0	0	0	534	136	
7	0	0	0	0	534	136	
8	0	0	0	0	533	137	
9	0	0	0	0	533	136	
10	0	0	0	0	533	136	
11	0	0	0	0	533	137	
12	0	0	0	0	533	137	
13	0	0	0	0	534	136	
14	0	0	0	0	534	137	
15	0	0	0	0	534	136	
0	0	0	0	0	534	136	
1	0	0	0	0	534	137	
2	0	0	0	0	535	137	
3	0	0	0	0	536	136	
4	0	0	0	0	536	137	
5	0	0	0	0	537	137	
6	0	0	0	0	538	136	
7	0	0	0	0	538	137	
8	0	0	0	0	538	135	
9	0	0	0	0	538	137	
10	0	0	0	0	539	137	
11	0	0	0	0	542	135	
12	0	0	0	0	545	137	
13	0	0	0	0	546	136	
14	0	0	0	0	543	136	
15	0	0	0	0	541	137	
0	0	0	0	0	539	135	
1	0	0	0	0	539	137	
2	0	0	0	0	538	137	
3	0	0	0	0	537	135	
4	0	0	0	0	537	137	
5	0	0	0	0	537	137	
6	0	0	0	0	535	136	
7	0	0	0	0	535	137	
8	0	0	0	0	534	135	
9	0	0	0	0	534	136	
10	0	0	0	0	533	137	
11	0	0	0	0	532	135	
12	0	0	0	0	533	137	
13	0	0	0	0	533	137	
14	0	0	0	0	532	135	
15	0	0	0	0	531	137	
0	0	0	0	0	528	137	
1	0	0	0	0	527	135	
2	0	0	0	0	526	137	
3	0	0	0	0	525	137	
4	0	0	0	0	525	136	
5	0	0	0	0	524	137	
6	0	0	0	0	524	137	
7	0	0	0	0	521	136	
8	0	0	0	0	519	137	
9	0	0	0	0	518	137	
10	0	0	0	0	517	136	
11	0	0	0	0	519	137	
12	0	0	0	0	520	135	
13	0	0	0	0	518	137	
14	0	0	0	0	513	137	
15	0	0	0	0	509	135	
0	0	0	0	0	505	137	
1	0	0	0	0	501	136	
2	0	0	0	0	497	136	
3	0	0	0	0	495	137	
4	0	0	0	0	493	137	
5	0	0	0	0	492	136	
6	0	0	0	0	491	137	
7	0	0	0	0	489	136	
8	0	0	0	0	489	136	
9	0	0	0	0	489	137	
10	0	0	0	0	488	136	
11	0	0	0	0	485	137	
12	0	0	0	0	481	137	
13	0	0	0	0	480	136	
14	0	0	0	0	478	137	
15	0	0	0	0	477	137	
0	0	0	0	0	477	136	
1	0	0	0	0	475	137	
2	0	0	0	0	472	137	
3	0	0	0	0	471	136	
4	0	0	0	0	471	137	
5	0	0	0	0	470	137	
6	0	0	0	0	468	136	
7	0	0	0	0	467	137	
8	0	0	0	0	466	137	
9	0	0	0	0	465	136	
10	0	0	0	0	464	137	
11	0	0	0	0	463	136	
12	0	0	0	0	462	137	
13	0	0	0	0	461	137	
14	0	0	0	0	459	136	
15	0	0	0	0	459	137	
0	0	0	0	0	462	137	
1	0	0	0	0	465	136	
2	0	0	0	0	464	137	
3	0	0	0	0	461	137	
4	0	0	0	0	459	136	
5	0	0	0	0	457	137	
6	0	0	0	0	457	137	
7	0	0	0	0	457	136	
8	0	0	0	0	459	137	
9	0	0	0	0	459	137	
10	0	0	0	0	459	136	
11	0	0	0	0	460	137	
12	0	0	0	0	459	137	
13	0	0	0	0	459	136	
14	0	0	0	0	460	137	
15	0	0	0	0	460	137	
0	0	0	0	0	460	136	
1	0	0	0	0	460	136	
2	0	0	0	0	461	137	
3	0	0	0	0	461	136	
4	0	0	0	0	461	136	
5	0	0	0	0	461	137	
6	0	0	0	0	461	136	
7	0	0	0	0	460	137	
8	0	0	0	0	461	137	
9	0	0	0	0	464	136	
10	0	0	0	0	465	137	
11	0	0	0	0	466	137	
12	0	0	0	0	467	136	
13	0	0	0	0	468	137	
14	0	0	0	0	468	137	
15	0	0	0	0	472	137	
0	0	0	0	0	474	136	
1	0	0	0	0	474	137	
2	0	0	0	0	472	136	
3	0	0	0	0	470	136	
4	0	0	0	0	468	137	
5	0	0	0	0	467	137	
6	0	0	0	0	467	136	
7	0	0	0	0	467	137	
8	0	0	0	0	467	137	
9	0	0	0	0	467	136	
10	0	0	0	0	470	137	
11	0	0	0	0	472	136	
12	0	0	0	0	473	136	
13	0	0	0	0	475	137	
14	0	0	0	0	476	137	
15	0	0	0	0	478	136	
0	0	0	0	0	480	137	
1	0	0	0	0	481	137	
2	0	0	0	0	481	136	
3	0	0	0	0	482	137	
4	0	0	0	0	481	135	
5	0	0	0	0	482	137	
6	0	0	0	0	481	137	
7	0	0	0	0	483	136	
8	0	0	0	0	483	137	
9	0	0	0	0	483	136	
10	0	0	0	0	483	136	
11	0	0	0	0	483	137	
12	0	0	0	0	482	136	
13	0	0	0	0	483	136	
14	0	0	0	0	483	137	
15	0	0	0	0	483	135	
0	0	0	0	0	483	136	
1	0	0	0	0	484	137	
2	0	0	0	0	485	135	
3	0	0	0	0	489	137	
4	0	0	0	0	492	137	
5	0	0	0	0	492	136	
6	0	0	0	0	490	137	
7	0	0	0	0	489	135	
8	0	0	0	0	487	137	
9	0	0	0	0	487	137	
10	0	0	0	0	487	135	
11	0	0	0	0	486	137	
12	0	0	0	0	487	137	
13	0	0	0	0	487	136	
14	0	0	0	0	488	137	
15	0	0	0	0	490	135	
0	0	0	0	0	493	136	
1	0	0	0	0	494	137	
2	0	0	0	0	494	135	
3	0	0	0	0	494	137	
4	0	0	0	0	493	136	
5	0	0	0	0	494	136	
6	0	0	0	0	496	137	
7	0	0	0	0	499	135	
8	0	0	0	0	499	137	
9	0	0	0	0	497	137	
10	0	0	0	0	496	136	
11	0	0	0	0	495	136	
12	0	0	0	0	494	137	
13	0	0	0	0	494	135	
14	0	0	0	0	494	136	
15	0	0	0	0	495	137	
0	0	0	0	0	497	135	
1	0	0	0	0	498	137	
2	0	0	0	0	499	136	
3	0	0	0	0	500	136	
4	0	0	0	0	501	137	
5	0	0	0	0	502	135	
6	0	0	0	0	502	137	
7	0	0	0	0	502	137	
8	0	0	0	0	502	135	
9	0	0	0	0	502	137	
10	0	0	0	0	502	137	
11	0	0	0	0	502	136	
12	0	0	0	0	502	136	
13	0	0	0	0	503	137	
14	0	0	0	0	503	135	
15	0	0	0	0	502	136	
0	0	0	0	0	503	137	
1	0	0	0	0	504	137	
2	0	0	0	0	504	135	
3	0	0	0	0	505	137	
4	0	0	0	0	505	137	
5	0	0	0	0	504	135	
6	0	0	0	0	504	137	
7	0	0	0	0	503	136	
8	0	0	0	0	503	136	
9	0	0	0	0	504	137	
10	0	0	0	0	505	135	
11	0	0	0	0	505	136	
12	0	0	0	0	506	137	
13	0	0	0	0	507	135	
14	0	0	0	0	507	136	
15	0	0	0	0	508	137	
0	0	0	0	0	512	137	
1	0	0	0	0	516	136	
2	0	0	0	0	517	137	
3	0	0	0	0	513	135	
4	0	0	0	0	512	137	
5	0	0	0	0	511	137	
6	0	0	0	0	510	135	
7	0	0	0	0	510	137	
8	0	0	0	0	510	137	
9	0	0	0	0	509	135	
10	0	0	0	0	509	137	
11	0	0	0	0	509	136	
12	0	0	0	0	510	136	
13	0	0	0	0	510	137	
14	0	0	0	0	511	135	
15	0	0	0	0	512	136	
0	0	0	0	0	513	137	
1	0	0	0	0	515	135	
2	0	0	0	0	517	136	
3	0	0	0	0	517	137	
4	0	0	0	0	518	135	
5	0	0	0	0	518	137	
6	0	0	0	0	517	137	
7	0	0	0	0	517	135	
8	0	0	0	0	517	137	
9	0	0	0	0	516	137	
10	0	0	0	0	516	135	
11	0	0	0	0	516	136	
12	0	0	0	0	515	136	
13	0	0	0	0	514	136	
14	0	0	0	0	514	137	
15	0	0	0	0	515	137	
0	0	0	0	0	515	135	
1	0	0	0	0	516	137	
2	0	0	0	0	516	137	
3	0	0	0	0	516	135	
4	0	0	0	0	516	137	
5	0	0	0	0	516	137	
6	0	0	0	0	516	135	
7	0	0	0	0	516	137	
8	0	0	0	0	517	136	
9	0	0	0	0	520	135	
10	0	0	0	0	521	137	
11	0	0	0	0	520	137	
12	0	0	0	0	518	135	
13	0	0	0	0	517	136	
14	0	0	0	0	515	137	
15	0	0	0	0	515	136	
0	0	0	0	0	515	135	
1	0	0	0	0	516	137	
2	0	0	0	0	518	136	
3	0	0	0	0	519	135	
4	0	0	0	0	519	137	
5	0	0	0	0	519	136	
6	0	0	0	0	519	136	
7	0	0	0	0	519	137	
8	0	0	0	0	518	135	
9	0	0	0	0	519	136	
10	0	0	0	0	519	137	
11	0	0	0	0	518	135	
12	0	0	0	0	518	136	
13	0	0	0	0	516	136	
14	0	0	0	0	516	135	
15	0	0	0	0	516	136	
0	0	0	0	0	515	136	
1	0	0	0	0	516	136	
2	0	0	0	0	516	135	
