# OpenSignals Text File Format. Version 1
# {"98:D3:B1:FD:3D:90": {"position": 0, "device": "bitalino_rev", "device name": "98:D3:B1:FD:3D:90", "device connection": "BTH98:D3:B1:FD:3D:90", "sampling rate": 1000, "resolution": [4, 1, 1, 1, 1, 10, 10], "firmware version": 1281, "comments": "", "keywords": "", "mode": 0, "sync interval": 2, "date": "2022-3-10", "time": "17:57:35.598", "channels": [2, 3], "sensor": ["ECGBIT", "EDABITREV"], "label": ["A2", "A3"], "column": ["nSeq", "I1", "I2", "O1", "O2", "A2", "A3"], "special": [{}, {}], "digital IO": [0, 0, 1, 1]}}
# EndOfHeader
0	0	0	0	0	528	35	
1	0	0	0	0	528	36	
2	0	0	0	0	527	37	
3	0	0	0	0	527	36	
4	0	0	0	0	527	34	
5	0	0	0	0	527	36	
6	0	0	0	0	527	36	
7	0	0	0	0	527	34	
8	0	0	0	0	527	36	
9	0	0	0	0	527	37	
10	0	0	0	0	527	35	
11	0	0	0	0	526	35	
12	0	0	0	0	526	36	
13	0	0	0	0	525	37	
14	0	0	0	0	524	35	
15	0	0	0	0	525	35	
0	0	0	0	0	524	36	
1	0	0	0	0	523	37	
2	0	0	0	0	523	35	
3	0	0	0	0	522	36	
4	0	0	0	0	522	36	
5	0	0	0	0	521	36	
6	0	0	0	0	519	35	
7	0	0	0	0	518	36	
8	0	0	0	0	517	37	
9	0	0	0	0	516	35	
10	0	0	0	0	515	35	
11	0	0	0	0	514	37	
12	0	0	0	0	513	34	
13	0	0	0	0	512	35	
14	0	0	0	0	511	37	
15	0	0	0	0	510	35	
0	0	0	0	0	508	36	
1	0	0	0	0	507	37	
2	0	0	0	0	505	36	
3	0	0	0	0	504	35	
4	0	0	0	0	504	36	
5	0	0	0	0	503	37	
6	0	0	0	0	502	35	
7	0	0	0	0	501	35	
8	0	0	0	0	500	37	
9	0	0	0	0	501	35	
10	0	0	0	0	500	35	
11	0	0	0	0	500	35	
12	0	0	0	0	500	37	
13	0	0	0	0	500	35	
14	0	0	0	0	499	36	
15	0	0	0	0	500	36	
0	0	0	0	0	501	34	
1	0	0	0	0	501	36	
2	0	0	0	0	502	37	
3	0	0	0	0	501	36	
4	0	0	0	0	502	35	
5	0	0	0	0	502	35	
6	0	0	0	0	501	37	
7	0	0	0	0	501	35	
8	0	0	0	0	501	35	
9	0	0	0	0	500	35	
10	0	0	0	0	499	37	
11	0	0	0	0	499	35	
12	0	0	0	0	499	36	
13	0	0	0	0	499	36	
14	0	0	0	0	499	37	
15	0	0	0	0	499	34	
0	0	0	0	0	499	35	
1	0	0	0	0	499	37	
2	0	0	0	0	499	35	
3	0	0	0	0	499	35	
4	0	0	0	0	499	35	
5	0	0	0	0	499	36	
6	0	0	0	0	498	35	
7	0	0	0	0	497	35	
8	0	0	0	0	497	36	
9	0	0	0	0	496	36	
10	0	0	0	0	496	35	
11	0	0	0	0	496	36	
12	0	0	0	0	497	36	
13	0	0	0	0	497	35	
14	0	0	0	0	498	35	
15	0	0	0	0	498	36	
0	0	0	0	0	499	37	
1	0	0	0	0	499	35	
2	0	0	0	0	499	35	
3	0	0	0	0	499	36	
4	0	0	0	0	499	37	
5	0	0	0	0	499	35	
6	0	0	0	0	498	36	
7	0	0	0	0	498	36	
8	0	0	0	0	498	36	
9	0	0	0	0	497	35	
10	0	0	0	0	498	36	
11	0	0	0	0	498	36	
12	0	0	0	0	499	36	
13	0	0	0	0	499	34	
14	0	0	0	0	499	36	
15	0	0	0	0	499	36	
0	0	0	0	0	500	36	
1	0	0	0	0	502	35	
2	0	0	0	0	503	36	
3	0	0	0	0	504	36	
4	0	0	0	0	505	37	
5	0	0	0	0	508	35	
6	0	0	0	0	509	35	
7	0	0	0	0	512	36	
8	0	0	0	0	516	37	
9	0	0	0	0	522	35	
10	0	0	0	0	529	35	
11	0	0	0	0	537	36	
12	0	0	0	0	545	37	
13	0	0	0	0	555	35	
14	0	0	0	0	564	35	
15	0	0	0	0	574	36	
0	0	0	0	0	583	37	
1	0	0	0	0	593	35	
2	0	0	0	0	602	36	
3	0	0	0	0	610	37	
4	0	0	0	0	616	35	
5	0	0	0	0	621	35	
6	0	0	0	0	626	36	
7	0	0	0	0	629	36	
8	0	0	0	0	631	35	
9	0	0	0	0	630	36	
10	0	0	0	0	628	37	
11	0	0	0	0	626	36	
12	0	0	0	0	624	34	
13	0	0	0	0	620	36	
14	0	0	0	0	615	37	
15	0	0	0	0	608	35	
0	0	0	0	0	602	35	
1	0	0	0	0	596	36	
2	0	0	0	0	588	37	
3	0	0	0	0	580	35	
4	0	0	0	0	573	35	
5	0	0	0	0	567	36	
6	0	0	0	0	560	37	
7	0	0	0	0	551	35	
8	0	0	0	0	543	36	
9	0	0	0	0	533	37	
10	0	0	0	0	523	36	
11	0	0	0	0	513	34	
12	0	0	0	0	502	36	
13	0	0	0	0	491	37	
14	0	0	0	0	483	36	
15	0	0	0	0	474	35	
0	0	0	0	0	467	36	
1	0	0	0	0	462	37	
2	0	0	0	0	458	36	
3	0	0	0	0	453	35	
4	0	0	0	0	451	36	
5	0	0	0	0	448	36	
6	0	0	0	0	447	35	
7	0	0	0	0	445	36	
8	0	0	0	0	445	36	
9	0	0	0	0	445	36	
10	0	0	0	0	445	35	
11	0	0	0	0	445	36	
12	0	0	0	0	445	37	
13	0	0	0	0	445	36	
14	0	0	0	0	448	35	
15	0	0	0	0	450	35	
0	0	0	0	0	453	37	
1	0	0	0	0	456	36	
2	0	0	0	0	459	35	
3	0	0	0	0	462	36	
4	0	0	0	0	465	37	
5	0	0	0	0	467	36	
6	0	0	0	0	467	34	
7	0	0	0	0	468	36	
8	0	0	0	0	469	37	
9	0	0	0	0	470	35	
10	0	0	0	0	471	36	
11	0	0	0	0	472	37	
12	0	0	0	0	473	36	
13	0	0	0	0	475	35	
14	0	0	0	0	475	36	
15	0	0	0	0	476	36	
0	0	0	0	0	476	34	
1	0	0	0	0	477	36	
2	0	0	0	0	476	37	
3	0	0	0	0	476	36	
4	0	0	0	0	478	35	
5	0	0	0	0	478	36	
6	0	0	0	0	479	36	
7	0	0	0	0	479	36	
8	0	0	0	0	478	34	
9	0	0	0	0	480	36	
10	0	0	0	0	480	37	
11	0	0	0	0	479	36	
12	0	0	0	0	479	35	
13	0	0	0	0	478	36	
14	0	0	0	0	479	36	
15	0	0	0	0	479	36	
0	0	0	0	0	479	35	
1	0	0	0	0	479	36	
2	0	0	0	0	480	36	
3	0	0	0	0	481	37	
4	0	0	0	0	482	36	
5	0	0	0	0	482	34	
6	0	0	0	0	483	35	
7	0	0	0	0	484	37	
8	0	0	0	0	484	35	
9	0	0	0	0	484	35	
10	0	0	0	0	485	36	
11	0	0	0	0	485	36	
12	0	0	0	0	485	34	
13	0	0	0	0	486	35	
14	0	0	0	0	486	37	
15	0	0	0	0	486	36	
0	0	0	0	0	487	35	
1	0	0	0	0	487	36	
2	0	0	0	0	487	36	
3	0	0	0	0	487	36	
4	0	0	0	0	487	35	
5	0	0	0	0	487	36	
6	0	0	0	0	488	36	
7	0	0	0	0	488	36	
8	0	0	0	0	489	34	
9	0	0	0	0	489	36	
10	0	0	0	0	489	37	
11	0	0	0	0	490	36	
12	0	0	0	0	491	35	
13	0	0	0	0	492	35	
14	0	0	0	0	493	37	
15	0	0	0	0	494	35	
0	0	0	0	0	495	35	
1	0	0	0	0	495	36	
2	0	0	0	0	495	37	
3	0	0	0	0	495	36	
4	0	0	0	0	496	34	
5	0	0	0	0	496	35	
6	0	0	0	0	497	37	
7	0	0	0	0	497	35	
8	0	0	0	0	497	36	
9	0	0	0	0	497	36	
10	0	0	0	0	498	36	
11	0	0	0	0	499	34	
12	0	0	0	0	499	35	
13	0	0	0	0	500	37	
14	0	0	0	0	501	36	
15	0	0	0	0	502	35	
0	0	0	0	0	502	36	
1	0	0	0	0	503	37	
2	0	0	0	0	503	35	
3	0	0	0	0	502	36	
4	0	0	0	0	502	37	
5	0	0	0	0	503	35	
6	0	0	0	0	503	36	
7	0	0	0	0	502	36	
8	0	0	0	0	502	36	
9	0	0	0	0	501	35	
10	0	0	0	0	502	36	
11	0	0	0	0	502	36	
12	0	0	0	0	503	36	
13	0	0	0	0	504	34	
14	0	0	0	0	504	36	
15	0	0	0	0	504	37	
0	0	0	0	0	504	35	
1	0	0	0	0	504	35	
2	0	0	0	0	505	35	
3	0	0	0	0	505	37	
4	0	0	0	0	506	35	
5	0	0	0	0	506	35	
6	0	0	0	0	507	36	
7	0	0	0	0	507	34	
8	0	0	0	0	507	36	
9	0	0	0	0	507	37	
10	0	0	0	0	508	36	
11	0	0	0	0	508	34	
12	0	0	0	0	508	36	
13	0	0	0	0	509	36	
14	0	0	0	0	509	37	
15	0	0	0	0	509	35	
0	0	0	0	0	510	36	
1	0	0	0	0	510	36	
2	0	0	0	0	511	36	
3	0	0	0	0	511	35	
4	0	0	0	0	510	36	
5	0	0	0	0	510	36	
6	0	0	0	0	510	36	
7	0	0	0	0	510	35	
8	0	0	0	0	511	36	
9	0	0	0	0	511	37	
10	0	0	0	0	511	35	
11	0	0	0	0	511	35	
12	0	0	0	0	512	35	
13	0	0	0	0	512	37	
14	0	0	0	0	513	35	
15	0	0	0	0	513	36	
0	0	0	0	0	514	37	
1	0	0	0	0	515	36	
2	0	0	0	0	516	34	
3	0	0	0	0	517	35	
4	0	0	0	0	517	37	
5	0	0	0	0	516	36	
6	0	0	0	0	516	34	
7	0	0	0	0	515	35	
8	0	0	0	0	515	36	
9	0	0	0	0	515	34	
10	0	0	0	0	515	36	
11	0	0	0	0	516	37	
12	0	0	0	0	517	35	
13	0	0	0	0	518	36	
14	0	0	0	0	518	36	
15	0	0	0	0	519	36	
0	0	0	0	0	519	35	
1	0	0	0	0	521	35	
2	0	0	0	0	523	36	
3	0	0	0	0	524	37	
4	0	0	0	0	524	35	
5	0	0	0	0	525	35	
6	0	0	0	0	524	36	
7	0	0	0	0	524	36	
8	0	0	0	0	524	35	
9	0	0	0	0	524	36	
10	0	0	0	0	523	36	
11	0	0	0	0	522	34	
12	0	0	0	0	523	35	
13	0	0	0	0	523	37	
14	0	0	0	0	524	35	
15	0	0	0	0	524	36	
0	0	0	0	0	525	36	
1	0	0	0	0	525	36	
2	0	0	0	0	525	34	
3	0	0	0	0	526	36	
4	0	0	0	0	526	37	
5	0	0	0	0	527	36	
6	0	0	0	0	527	34	
7	0	0	0	0	527	35	
8	0	0	0	0	527	37	
9	0	0	0	0	528	35	
10	0	0	0	0	529	36	
11	0	0	0	0	530	37	
12	0	0	0	0	529	35	
13	0	0	0	0	531	36	
14	0	0	0	0	531	36	
15	0	0	0	0	531	36	
0	0	0	0	0	531	34	
1	0	0	0	0	532	36	
2	0	0	0	0	532	36	
3	0	0	0	0	532	34	
4	0	0	0	0	533	36	
5	0	0	0	0	534	36	
6	0	0	0	0	535	36	
7	0	0	0	0	536	34	
8	0	0	0	0	536	36	
9	0	0	0	0	536	37	
10	0	0	0	0	537	35	
11	0	0	0	0	537	36	
12	0	0	0	0	537	36	
13	0	0	0	0	537	36	
14	0	0	0	0	539	34	
15	0	0	0	0	540	36	
0	0	0	0	0	541	37	
1	0	0	0	0	541	35	
2	0	0	0	0	541	36	
3	0	0	0	0	542	36	
4	0	0	0	0	543	37	
5	0	0	0	0	543	35	
6	0	0	0	0	545	36	
7	0	0	0	0	545	36	
8	0	0	0	0	545	35	
9	0	0	0	0	545	36	
10	0	0	0	0	547	36	
11	0	0	0	0	547	36	
12	0	0	0	0	548	34	
13	0	0	0	0	549	36	
14	0	0	0	0	549	37	
15	0	0	0	0	550	36	
0	0	0	0	0	551	34	
1	0	0	0	0	551	36	
2	0	0	0	0	552	36	
3	0	0	0	0	553	35	
4	0	0	0	0	554	36	
5	0	0	0	0	555	37	
6	0	0	0	0	555	34	
7	0	0	0	0	555	36	
8	0	0	0	0	556	37	
9	0	0	0	0	556	35	
10	0	0	0	0	556	35	
11	0	0	0	0	556	36	
12	0	0	0	0	557	37	
13	0	0	0	0	557	35	
14	0	0	0	0	556	36	
15	0	0	0	0	556	36	
0	0	0	0	0	556	36	
1	0	0	0	0	556	34	
2	0	0	0	0	557	35	
3	0	0	0	0	557	37	
4	0	0	0	0	557	35	
5	0	0	0	0	558	35	
6	0	0	0	0	558	36	
7	0	0	0	0	559	37	
8	0	0	0	0	558	35	
9	0	0	0	0	558	35	
10	0	0	0	0	558	36	
11	0	0	0	0	557	35	
12	0	0	0	0	558	36	
13	0	0	0	0	557	36	
14	0	0	0	0	556	34	
15	0	0	0	0	555	36	
0	0	0	0	0	554	37	
1	0	0	0	0	555	36	
2	0	0	0	0	554	35	
3	0	0	0	0	553	37	
4	0	0	0	0	552	35	
5	0	0	0	0	551	34	
6	0	0	0	0	549	35	
7	0	0	0	0	548	37	
8	0	0	0	0	546	35	
9	0	0	0	0	545	35	
10	0	0	0	0	543	36	
11	0	0	0	0	541	36	
12	0	0	0	0	540	35	
13	0	0	0	0	539	36	
14	0	0	0	0	537	36	
15	0	0	0	0	535	35	
0	0	0	0	0	533	36	
1	0	0	0	0	530	37	
2	0	0	0	0	528	35	
3	0	0	0	0	527	35	
4	0	0	0	0	525	36	
5	0	0	0	0	523	35	
6	0	0	0	0	520	35	
7	0	0	0	0	519	36	
8	0	0	0	0	517	36	
9	0	0	0	0	515	35	
10	0	0	0	0	513	36	
11	0	0	0	0	511	36	
12	0	0	0	0	508	37	
13	0	0	0	0	506	34	
14	0	0	0	0	504	35	
15	0	0	0	0	502	36	
0	0	0	0	0	500	34	
1	0	0	0	0	497	35	
2	0	0	0	0	495	36	
3	0	0	0	0	492	34	
4	0	0	0	0	490	35	
5	0	0	0	0	487	37	
6	0	0	0	0	485	34	
7	0	0	0	0	482	35	
8	0	0	0	0	481	36	
9	0	0	0	0	479	34	
10	0	0	0	0	478	36	
11	0	0	0	0	476	36	
12	0	0	0	0	474	34	
13	0	0	0	0	474	35	
14	0	0	0	0	472	36	
15	0	0	0	0	472	35	
0	0	0	0	0	472	36	
1	0	0	0	0	470	36	
2	0	0	0	0	470	35	
3	0	0	0	0	469	36	
4	0	0	0	0	468	35	
5	0	0	0	0	467	35	
6	0	0	0	0	465	36	
7	0	0	0	0	465	36	
8	0	0	0	0	464	37	
9	0	0	0	0	463	36	
10	0	0	0	0	463	35	
11	0	0	0	0	463	37	
12	0	0	0	0	463	35	
13	0	0	0	0	463	36	
14	0	0	0	0	462	37	
15	0	0	0	0	462	35	
0	0	0	0	0	461	35	
1	0	0	0	0	460	37	
2	0	0	0	0	461	34	
3	0	0	0	0	461	35	
4	0	0	0	0	462	36	
5	0	0	0	0	462	34	
6	0	0	0	0	462	35	
7	0	0	0	0	463	36	
8	0	0	0	0	463	35	
9	0	0	0	0	463	35	
10	0	0	0	0	464	36	
11	0	0	0	0	464	34	
12	0	0	0	0	464	35	
13	0	0	0	0	464	37	
14	0	0	0	0	464	35	
15	0	0	0	0	465	35	
0	0	0	0	0	466	35	
1	0	0	0	0	467	37	
2	0	0	0	0	467	36	
3	0	0	0	0	467	35	
4	0	0	0	0	467	36	
5	0	0	0	0	468	36	
6	0	0	0	0	468	35	
7	0	0	0	0	468	35	
8	0	0	0	0	468	35	
9	0	0	0	0	468	37	
10	0	0	0	0	469	35	
11	0	0	0	0	470	35	
12	0	0	0	0	471	35	
13	0	0	0	0	472	37	
14	0	0	0	0	472	35	
15	0	0	0	0	473	35	
0	0	0	0	0	473	36	
1	0	0	0	0	474	36	
2	0	0	0	0	475	35	
3	0	0	0	0	475	36	
4	0	0	0	0	476	36	
5	0	0	0	0	476	36	
6	0	0	0	0	478	34	
7	0	0	0	0	479	35	
8	0	0	0	0	480	37	
9	0	0	0	0	480	36	
10	0	0	0	0	481	34	
11	0	0	0	0	481	35	
12	0	0	0	0	482	37	
13	0	0	0	0	482	35	
14	0	0	0	0	482	36	
15	0	0	0	0	483	36	
0	0	0	0	0	483	37	
1	0	0	0	0	483	35	
2	0	0	0	0	484	36	
3	0	0	0	0	484	37	
4	0	0	0	0	485	35	
5	0	0	0	0	485	35	
6	0	0	0	0	487	35	
7	0	0	0	0	487	37	
8	0	0	0	0	486	35	
9	0	0	0	0	486	35	
10	0	0	0	0	486	36	
11	0	0	0	0	487	37	
12	0	0	0	0	488	35	
13	0	0	0	0	488	36	
14	0	0	0	0	488	36	
15	0	0	0	0	488	36	
0	0	0	0	0	488	34	
1	0	0	0	0	489	35	
2	0	0	0	0	489	37	
3	0	0	0	0	489	35	
4	0	0	0	0	490	35	
5	0	0	0	0	491	35	
6	0	0	0	0	492	37	
7	0	0	0	0	494	35	
8	0	0	0	0	495	35	
9	0	0	0	0	495	35	
10	0	0	0	0	496	37	
11	0	0	0	0	495	35	
12	0	0	0	0	496	36	
13	0	0	0	0	496	37	
14	0	0	0	0	496	35	
15	0	0	0	0	496	35	
0	0	0	0	0	496	37	
1	0	0	0	0	497	35	
2	0	0	0	0	497	36	
3	0	0	0	0	498	36	
4	0	0	0	0	498	36	
5	0	0	0	0	499	34	
6	0	0	0	0	499	36	
7	0	0	0	0	500	36	
8	0	0	0	0	500	35	
9	0	0	0	0	501	36	
10	0	0	0	0	501	36	
11	0	0	0	0	501	36	
12	0	0	0	0	502	35	
13	0	0	0	0	502	35	
14	0	0	0	0	503	37	
15	0	0	0	0	502	35	
0	0	0	0	0	502	35	
1	0	0	0	0	503	36	
2	0	0	0	0	502	36	
3	0	0	0	0	503	35	
4	0	0	0	0	504	35	
5	0	0	0	0	504	36	
6	0	0	0	0	505	35	
7	0	0	0	0	506	36	
8	0	0	0	0	507	36	
9	0	0	0	0	507	36	
10	0	0	0	0	508	34	
11	0	0	0	0	508	35	
12	0	0	0	0	508	37	
13	0	0	0	0	508	36	
14	0	0	0	0	509	34	
15	0	0	0	0	509	36	
0	0	0	0	0	509	37	
1	0	0	0	0	509	36	
2	0	0	0	0	509	34	
3	0	0	0	0	510	35	
4	0	0	0	0	510	37	
5	0	0	0	0	510	34	
6	0	0	0	0	510	35	
7	0	0	0	0	510	37	
8	0	0	0	0	510	34	
9	0	0	0	0	510	35	
10	0	0	0	0	510	36	
11	0	0	0	0	511	35	
12	0	0	0	0	511	36	
13	0	0	0	0	511	36	
14	0	0	0	0	512	36	
15	0	0	0	0	512	34	
0	0	0	0	0	511	35	
1	0	0	0	0	510	37	
2	0	0	0	0	510	35	
3	0	0	0	0	511	34	
4	0	0	0	0	511	35	
5	0	0	0	0	511	37	
6	0	0	0	0	511	35	
7	0	0	0	0	511	34	
8	0	0	0	0	511	35	
9	0	0	0	0	511	37	
10	0	0	0	0	511	35	
11	0	0	0	0	511	34	
12	0	0	0	0	511	35	
13	0	0	0	0	511	37	
14	0	0	0	0	512	36	
15	0	0	0	0	512	34	
0	0	0	0	0	512	35	
1	0	0	0	0	512	37	
2	0	0	0	0	513	35	
3	0	0	0	0	513	35	
4	0	0	0	0	513	37	
5	0	0	0	0	512	35	
6	0	0	0	0	512	35	
7	0	0	0	0	512	36	
8	0	0	0	0	512	36	
9	0	0	0	0	512	34	
10	0	0	0	0	512	35	
11	0	0	0	0	513	37	
12	0	0	0	0	513	35	
13	0	0	0	0	513	35	
14	0	0	0	0	513	36	
15	0	0	0	0	513	36	
0	0	0	0	0	513	34	
1	0	0	0	0	514	35	
2	0	0	0	0	513	37	
3	0	0	0	0	513	35	
4	0	0	0	0	514	36	
5	0	0	0	0	515	36	
6	0	0	0	0	515	36	
7	0	0	0	0	513	34	
8	0	0	0	0	513	35	
9	0	0	0	0	514	36	
10	0	0	0	0	515	35	
11	0	0	0	0	515	36	
12	0	0	0	0	515	36	
13	0	0	0	0	514	36	
14	0	0	0	0	514	34	
15	0	0	0	0	515	35	
0	0	0	0	0	515	37	
1	0	0	0	0	515	35	
2	0	0	0	0	515	35	
3	0	0	0	0	514	35	
4	0	0	0	0	513	37	
5	0	0	0	0	514	35	
6	0	0	0	0	513	34	
7	0	0	0	0	513	36	
8	0	0	0	0	513	35	
9	0	0	0	0	514	35	
10	0	0	0	0	514	36	
11	0	0	0	0	513	36	
12	0	0	0	0	514	35	
13	0	0	0	0	514	35	
14	0	0	0	0	514	35	
15	0	0	0	0	514	37	
0	0	0	0	0	515	35	
1	0	0	0	0	515	35	
2	0	0	0	0	515	35	
3	0	0	0	0	515	37	
4	0	0	0	0	515	35	
5	0	0	0	0	515	34	
6	0	0	0	0	515	35	
7	0	0	0	0	514	37	
8	0	0	0	0	514	35	
9	0	0	0	0	514	36	
10	0	0	0	0	514	37	
11	0	0	0	0	515	36	
12	0	0	0	0	516	35	
13	0	0	0	0	516	35	
14	0	0	0	0	516	35	
15	0	0	0	0	516	37	
0	0	0	0	0	516	36	
1	0	0	0	0	517	34	
2	0	0	0	0	516	35	
3	0	0	0	0	516	37	
4	0	0	0	0	516	36	
5	0	0	0	0	516	34	
6	0	0	0	0	516	36	
7	0	0	0	0	516	37	
8	0	0	0	0	516	36	
9	0	0	0	0	515	34	
10	0	0	0	0	515	35	
11	0	0	0	0	515	37	
12	0	0	0	0	515	36	
13	0	0	0	0	515	34	
14	0	0	0	0	515	35	
15	0	0	0	0	516	37	
0	0	0	0	0	517	35	
1	0	0	0	0	517	36	
2	0	0	0	0	517	37	
3	0	0	0	0	516	35	
4	0	0	0	0	515	35	
5	0	0	0	0	516	37	
6	0	0	0	0	515	35	
7	0	0	0	0	515	34	
8	0	0	0	0	516	35	
9	0	0	0	0	515	37	
10	0	0	0	0	516	35	
11	0	0	0	0	515	34	
12	0	0	0	0	515	35	
13	0	0	0	0	515	37	
14	0	0	0	0	516	35	
15	0	0	0	0	516	35	
0	0	0	0	0	516	35	
1	0	0	0	0	515	37	
2	0	0	0	0	515	35	
3	0	0	0	0	516	36	
4	0	0	0	0	516	35	
5	0	0	0	0	516	37	
6	0	0	0	0	515	34	
7	0	0	0	0	515	35	
8	0	0	0	0	515	37	
9	0	0	0	0	515	36	
10	0	0	0	0	516	34	
11	0	0	0	0	516	35	
12	0	0	0	0	516	37	
13	0	0	0	0	516	35	
14	0	0	0	0	516	34	
15	0	0	0	0	515	35	
0	0	0	0	0	515	37	
1	0	0	0	0	515	35	
2	0	0	0	0	515	34	
3	0	0	0	0	514	35	
4	0	0	0	0	515	36	
5	0	0	0	0	516	34	
6	0	0	0	0	516	35	
7	0	0	0	0	515	36	
8	0	0	0	0	516	35	
9	0	0	0	0	515	35	
10	0	0	0	0	516	35	
11	0	0	0	0	516	37	
12	0	0	0	0	515	35	
13	0	0	0	0	515	34	
14	0	0	0	0	515	35	
15	0	0	0	0	515	36	
0	0	0	0	0	516	35	
1	0	0	0	0	516	36	
2	0	0	0	0	515	36	
3	0	0	0	0	515	35	
4	0	0	0	0	515	34	
5	0	0	0	0	515	35	
6	0	0	0	0	515	36	
7	0	0	0	0	515	34	
8	0	0	0	0	515	35	
9	0	0	0	0	516	37	
10	0	0	0	0	516	36	
11	0	0	0	0	516	34	
12	0	0	0	0	517	35	
13	0	0	0	0	517	37	
14	0	0	0	0	517	35	
15	0	0	0	0	518	36	
0	0	0	0	0	519	37	
1	0	0	0	0	518	35	
2	0	0	0	0	517	36	
3	0	0	0	0	517	36	
4	0	0	0	0	516	35	
5	0	0	0	0	515	34	
6	0	0	0	0	515	35	
7	0	0	0	0	514	37	
8	0	0	0	0	514	35	
9	0	0	0	0	515	36	
10	0	0	0	0	515	36	
11	0	0	0	0	515	37	
12	0	0	0	0	515	34	
13	0	0	0	0	515	36	
14	0	0	0	0	515	36	
15	0	0	0	0	515	36	
0	0	0	0	0	515	35	
1	0	0	0	0	515	35	
2	0	0	0	0	515	36	
3	0	0	0	0	515	37	
4	0	0	0	0	516	35	
5	0	0	0	0	516	34	
6	0	0	0	0	516	35	
7	0	0	0	0	516	37	
8	0	0	0	0	516	36	
9	0	0	0	0	516	34	
10	0	0	0	0	516	35	
11	0	0	0	0	516	36	
12	0	0	0	0	516	34	
13	0	0	0	0	515	36	
14	0	0	0	0	515	37	
15	0	0	0	0	516	35	
0	0	0	0	0	517	34	
1	0	0	0	0	518	35	
2	0	0	0	0	519	36	
3	0	0	0	0	518	36	
4	0	0	0	0	518	34	
5	0	0	0	0	518	35	
6	0	0	0	0	517	36	
7	0	0	0	0	516	35	
8	0	0	0	0	515	34	
9	0	0	0	0	516	35	
10	0	0	0	0	516	37	
11	0	0	0	0	516	36	
12	0	0	0	0	516	34	
13	0	0	0	0	516	36	
14	0	0	0	0	516	37	
15	0	0	0	0	516	35	
0	0	0	0	0	516	36	
1	0	0	0	0	516	35	
2	0	0	0	0	517	37	
3	0	0	0	0	517	34	
4	0	0	0	0	517	35	
5	0	0	0	0	518	37	
6	0	0	0	0	519	35	
7	0	0	0	0	519	34	
8	0	0	0	0	518	35	
9	0	0	0	0	518	36	
10	0	0	0	0	517	34	
11	0	0	0	0	516	35	
12	0	0	0	0	516	36	
13	0	0	0	0	516	35	
14	0	0	0	0	516	34	
15	0	0	0	0	517	35	
0	0	0	0	0	516	37	
1	0	0	0	0	517	36	
2	0	0	0	0	517	34	
3	0	0	0	0	518	35	
4	0	0	0	0	519	37	
5	0	0	0	0	519	35	
6	0	0	0	0	519	34	
7	0	0	0	0	519	35	
8	0	0	0	0	518	36	
9	0	0	0	0	519	36	
10	0	0	0	0	519	35	
11	0	0	0	0	519	36	
12	0	0	0	0	519	37	
13	0	0	0	0	520	35	
14	0	0	0	0	520	34	
15	0	0	0	0	520	35	
0	0	0	0	0	521	37	
1	0	0	0	0	521	35	
2	0	0	0	0	521	35	
3	0	0	0	0	521	37	
4	0	0	0	0	521	35	
5	0	0	0	0	522	34	
6	0	0	0	0	521	35	
7	0	0	0	0	521	36	
8	0	0	0	0	521	36	
9	0	0	0	0	521	34	
10	0	0	0	0	520	35	
11	0	0	0	0	519	36	
12	0	0	0	0	519	36	
13	0	0	0	0	519	34	
14	0	0	0	0	519	35	
15	0	0	0	0	520	36	
0	0	0	0	0	520	36	
1	0	0	0	0	521	35	
2	0	0	0	0	522	35	
3	0	0	0	0	521	35	
4	0	0	0	0	521	37	
5	0	0	0	0	521	35	
6	0	0	0	0	520	34	
7	0	0	0	0	521	35	
8	0	0	0	0	520	37	
9	0	0	0	0	520	35	
10	0	0	0	0	520	36	
11	0	0	0	0	521	36	
12	0	0	0	0	521	36	
13	0	0	0	0	520	34	
14	0	0	0	0	520	35	
15	0	0	0	0	519	37	
0	0	0	0	0	520	34	
1	0	0	0	0	520	35	
2	0	0	0	0	521	37	
3	0	0	0	0	520	35	
4	0	0	0	0	521	35	
5	0	0	0	0	523	35	
6	0	0	0	0	523	37	
7	0	0	0	0	523	35	
8	0	0	0	0	523	35	
9	0	0	0	0	522	37	
10	0	0	0	0	522	35	
11	0	0	0	0	523	35	
12	0	0	0	0	522	37	
13	0	0	0	0	521	35	
14	0	0	0	0	521	35	
15	0	0	0	0	521	36	
0	0	0	0	0	521	35	
1	0	0	0	0	522	35	
2	0	0	0	0	522	36	
3	0	0	0	0	522	34	
4	0	0	0	0	522	35	
5	0	0	0	0	523	37	
6	0	0	0	0	523	35	
7	0	0	0	0	523	34	
8	0	0	0	0	523	35	
9	0	0	0	0	523	37	
10	0	0	0	0	523	35	
11	0	0	0	0	523	36	
12	0	0	0	0	522	36	
13	0	0	0	0	522	35	
14	0	0	0	0	521	35	
15	0	0	0	0	522	35	
0	0	0	0	0	522	37	
1	0	0	0	0	523	35	
2	0	0	0	0	523	35	
3	0	0	0	0	523	36	
4	0	0	0	0	522	35	
5	0	0	0	0	521	34	
6	0	0	0	0	521	35	
7	0	0	0	0	521	37	
8	0	0	0	0	521	35	
9	0	0	0	0	520	35	
10	0	0	0	0	520	36	
11	0	0	0	0	519	34	
12	0	0	0	0	518	35	
13	0	0	0	0	518	35	
14	0	0	0	0	519	34	
15	0	0	0	0	519	35	
0	0	0	0	0	519	37	
1	0	0	0	0	518	35	
2	0	0	0	0	518	35	
3	0	0	0	0	518	36	
4	0	0	0	0	519	35	
5	0	0	0	0	519	34	
6	0	0	0	0	519	36	
7	0	0	0	0	519	35	
8	0	0	0	0	519	35	
9	0	0	0	0	518	35	
10	0	0	0	0	519	36	
11	0	0	0	0	519	34	
12	0	0	0	0	518	35	
13	0	0	0	0	519	37	
14	0	0	0	0	518	35	
15	0	0	0	0	518	35	
0	0	0	0	0	518	35	
1	0	0	0	0	517	36	
2	0	0	0	0	516	35	
3	0	0	0	0	515	36	
4	0	0	0	0	516	36	
5	0	0	0	0	518	35	
6	0	0	0	0	518	35	
7	0	0	0	0	518	35	
8	0	0	0	0	517	36	
9	0	0	0	0	517	34	
10	0	0	0	0	516	35	
11	0	0	0	0	515	36	
12	0	0	0	0	515	36	
13	0	0	0	0	515	34	
14	0	0	0	0	515	35	
15	0	0	0	0	515	37	
0	0	0	0	0	515	35	
1	0	0	0	0	515	34	
2	0	0	0	0	516	35	
3	0	0	0	0	517	37	
4	0	0	0	0	518	35	
5	0	0	0	0	517	34	
6	0	0	0	0	516	35	
7	0	0	0	0	517	37	
8	0	0	0	0	517	35	
9	0	0	0	0	517	36	
10	0	0	0	0	516	36	
11	0	0	0	0	516	35	
12	0	0	0	0	515	34	
13	0	0	0	0	515	35	
14	0	0	0	0	515	37	
15	0	0	0	0	515	35	
0	0	0	0	0	515	34	
1	0	0	0	0	515	35	
2	0	0	0	0	515	37	
3	0	0	0	0	515	35	
4	0	0	0	0	515	35	
5	0	0	0	0	516	36	
6	0	0	0	0	518	35	
7	0	0	0	0	518	34	
8	0	0	0	0	518	35	
9	0	0	0	0	518	35	
10	0	0	0	0	518	35	
11	0	0	0	0	518	36	
12	0	0	0	0	517	35	
13	0	0	0	0	518	34	
14	0	0	0	0	518	35	
15	0	0	0	0	518	37	
0	0	0	0	0	518	35	
1	0	0	0	0	518	36	
2	0	0	0	0	519	36	
3	0	0	0	0	519	35	
4	0	0	0	0	519	34	
5	0	0	0	0	520	36	
6	0	0	0	0	520	36	
7	0	0	0	0	521	34	
8	0	0	0	0	522	35	
9	0	0	0	0	523	37	
10	0	0	0	0	523	35	
11	0	0	0	0	524	36	
12	0	0	0	0	524	36	
13	0	0	0	0	524	36	
14	0	0	0	0	524	34	
15	0	0	0	0	524	35	
0	0	0	0	0	523	36	
1	0	0	0	0	522	35	
2	0	0	0	0	521	34	
3	0	0	0	0	521	35	
4	0	0	0	0	521	37	
5	0	0	0	0	522	35	
6	0	0	0	0	521	36	
7	0	0	0	0	521	36	
8	0	0	0	0	522	36	
9	0	0	0	0	523	34	
10	0	0	0	0	524	35	
11	0	0	0	0	524	37	
12	0	0	0	0	525	35	
13	0	0	0	0	524	35	
14	0	0	0	0	523	35	
15	0	0	0	0	523	36	
0	0	0	0	0	523	34	
1	0	0	0	0	524	35	
2	0	0	0	0	524	37	
3	0	0	0	0	525	35	
4	0	0	0	0	525	35	
5	0	0	0	0	525	36	
6	0	0	0	0	525	34	
7	0	0	0	0	525	36	
8	0	0	0	0	525	36	
9	0	0	0	0	525	35	
10	0	0	0	0	525	34	
11	0	0	0	0	526	35	
12	0	0	0	0	526	37	
13	0	0	0	0	526	35	
14	0	0	0	0	526	35	
15	0	0	0	0	525	36	
0	0	0	0	0	524	36	
1	0	0	0	0	523	35	
2	0	0	0	0	522	35	
3	0	0	0	0	521	37	
4	0	0	0	0	521	35	
5	0	0	0	0	521	34	
6	0	0	0	0	521	35	
7	0	0	0	0	520	36	
8	0	0	0	0	520	35	
9	0	0	0	0	521	35	
10	0	0	0	0	522	35	
11	0	0	0	0	522	37	
12	0	0	0	0	523	34	
13	0	0	0	0	524	35	
14	0	0	0	0	525	36	
15	0	0	0	0	525	35	
0	0	0	0	0	524	34	
1	0	0	0	0	525	35	
2	0	0	0	0	526	37	
3	0	0	0	0	526	35	
4	0	0	0	0	525	35	
5	0	0	0	0	526	36	
6	0	0	0	0	526	35	
7	0	0	0	0	527	34	
8	0	0	0	0	527	35	
9	0	0	0	0	527	37	
10	0	0	0	0	526	35	
11	0	0	0	0	525	34	
12	0	0	0	0	525	35	
13	0	0	0	0	525	37	
14	0	0	0	0	525	35	
15	0	0	0	0	525	35	
0	0	0	0	0	525	35	
1	0	0	0	0	525	36	
2	0	0	0	0	524	35	
3	0	0	0	0	524	34	
4	0	0	0	0	524	35	
5	0	0	0	0	525	36	
6	0	0	0	0	526	35	
7	0	0	0	0	528	35	
8	0	0	0	0	528	35	
9	0	0	0	0	528	37	
10	0	0	0	0	530	35	
11	0	0	0	0	530	34	
12	0	0	0	0	531	35	
13	0	0	0	0	532	36	
14	0	0	0	0	532	35	
15	0	0	0	0	532	34	
0	0	0	0	0	531	35	
1	0	0	0	0	530	36	
2	0	0	0	0	530	35	
3	0	0	0	0	529	34	
4	0	0	0	0	529	35	
5	0	0	0	0	530	36	
6	0	0	0	0	530	35	
7	0	0	0	0	530	35	
8	0	0	0	0	530	36	
9	0	0	0	0	529	35	
10	0	0	0	0	528	34	
11	0	0	0	0	527	35	
12	0	0	0	0	527	36	
13	0	0	0	0	526	34	
14	0	0	0	0	526	35	
15	0	0	0	0	525	37	
0	0	0	0	0	524	34	
1	0	0	0	0	525	35	
2	0	0	0	0	525	36	
3	0	0	0	0	524	34	
4	0	0	0	0	524	35	
5	0	0	0	0	524	35	
6	0	0	0	0	523	34	
7	0	0	0	0	523	36	
8	0	0	0	0	523	35	
9	0	0	0	0	523	34	
10	0	0	0	0	523	36	
11	0	0	0	0	523	35	
12	0	0	0	0	523	34	
13	0	0	0	0	522	35	
14	0	0	0	0	521	35	
15	0	0	0	0	520	34	
0	0	0	0	0	520	36	
1	0	0	0	0	519	35	
2	0	0	0	0	518	35	
3	0	0	0	0	517	36	
4	0	0	0	0	515	35	
5	0	0	0	0	513	34	
6	0	0	0	0	511	36	
7	0	0	0	0	511	35	
8	0	0	0	0	510	35	
9	0	0	0	0	509	36	
10	0	0	0	0	508	35	
11	0	0	0	0	507	35	
12	0	0	0	0	505	35	
13	0	0	0	0	504	34	
14	0	0	0	0	504	35	
15	0	0	0	0	503	35	
0	0	0	0	0	502	35	
1	0	0	0	0	502	37	
2	0	0	0	0	502	34	
3	0	0	0	0	502	35	
4	0	0	0	0	502	36	
5	0	0	0	0	502	34	
6	0	0	0	0	502	35	
7	0	0	0	0	502	35	
8	0	0	0	0	502	35	
9	0	0	0	0	502	36	
10	0	0	0	0	503	34	
11	0	0	0	0	503	35	
12	0	0	0	0	504	35	
13	0	0	0	0	504	35	
14	0	0	0	0	504	36	
15	0	0	0	0	504	35	
0	0	0	0	0	504	34	
1	0	0	0	0	504	35	
2	0	0	0	0	505	35	
3	0	0	0	0	505	36	
4	0	0	0	0	505	34	
5	0	0	0	0	505	35	
6	0	0	0	0	505	36	
7	0	0	0	0	505	35	
8	0	0	0	0	506	34	
9	0	0	0	0	506	35	
10	0	0	0	0	506	37	
11	0	0	0	0	506	34	
12	0	0	0	0	506	35	
13	0	0	0	0	505	36	
14	0	0	0	0	504	35	
15	0	0	0	0	505	34	
0	0	0	0	0	505	35	
1	0	0	0	0	505	36	
2	0	0	0	0	504	35	
3	0	0	0	0	504	34	
4	0	0	0	0	504	35	
5	0	0	0	0	504	36	
6	0	0	0	0	504	35	
7	0	0	0	0	505	34	
8	0	0	0	0	505	35	
9	0	0	0	0	505	37	
10	0	0	0	0	505	35	
11	0	0	0	0	504	35	
12	0	0	0	0	504	36	
13	0	0	0	0	504	35	
14	0	0	0	0	502	34	
15	0	0	0	0	502	35	
0	0	0	0	0	501	36	
1	0	0	0	0	501	35	
2	0	0	0	0	501	34	
3	0	0	0	0	501	35	
4	0	0	0	0	502	36	
5	0	0	0	0	503	35	
6	0	0	0	0	504	34	
7	0	0	0	0	505	35	
8	0	0	0	0	508	36	
9	0	0	0	0	510	35	
10	0	0	0	0	513	34	
11	0	0	0	0	515	35	
12	0	0	0	0	518	37	
13	0	0	0	0	521	35	
14	0	0	0	0	527	35	
15	0	0	0	0	535	37	
0	0	0	0	0	545	34	
1	0	0	0	0	555	36	
2	0	0	0	0	565	36	
3	0	0	0	0	576	35	
4	0	0	0	0	588	34	
5	0	0	0	0	600	35	
6	0	0	0	0	609	36	
7	0	0	0	0	618	35	
8	0	0	0	0	625	36	
9	0	0	0	0	631	36	
10	0	0	0	0	635	35	
11	0	0	0	0	638	34	
12	0	0	0	0	641	35	
13	0	0	0	0	642	35	
14	0	0	0	0	644	34	
15	0	0	0	0	643	35	
0	0	0	0	0	643	36	
1	0	0	0	0	643	35	
2	0	0	0	0	641	35	
3	0	0	0	0	637	37	
4	0	0	0	0	632	35	
5	0	0	0	0	625	34	
6	0	0	0	0	618	35	
7	0	0	0	0	609	36	
8	0	0	0	0	601	34	
9	0	0	0	0	592	35	
10	0	0	0	0	586	37	
11	0	0	0	0	578	34	
12	0	0	0	0	571	35	
13	0	0	0	0	562	36	
14	0	0	0	0	553	35	
15	0	0	0	0	543	34	
0	0	0	0	0	532	35	
1	0	0	0	0	521	37	
2	0	0	0	0	510	35	
3	0	0	0	0	499	35	
4	0	0	0	0	492	35	
5	0	0	0	0	484	35	
6	0	0	0	0	478	34	
7	0	0	0	0	471	35	
8	0	0	0	0	466	36	
9	0	0	0	0	463	35	
10	0	0	0	0	459	34	
11	0	0	0	0	457	35	
12	0	0	0	0	455	36	
13	0	0	0	0	455	34	
14	0	0	0	0	455	35	
15	0	0	0	0	455	35	
0	0	0	0	0	456	34	
1	0	0	0	0	459	35	
2	0	0	0	0	461	36	
3	0	0	0	0	464	35	
4	0	0	0	0	467	35	
5	0	0	0	0	469	36	
6	0	0	0	0	472	35	
7	0	0	0	0	473	34	
8	0	0	0	0	475	35	
9	0	0	0	0	476	37	
10	0	0	0	0	478	35	
11	0	0	0	0	479	34	
12	0	0	0	0	479	35	
13	0	0	0	0	480	36	
14	0	0	0	0	481	35	
15	0	0	0	0	482	34	
0	0	0	0	0	483	35	
1	0	0	0	0	482	35	
2	0	0	0	0	483	34	
3	0	0	0	0	483	36	
4	0	0	0	0	483	35	
5	0	0	0	0	484	35	
6	0	0	0	0	484	36	
7	0	0	0	0	485	35	
8	0	0	0	0	484	35	
9	0	0	0	0	484	36	
10	0	0	0	0	484	35	
11	0	0	0	0	483	34	
12	0	0	0	0	483	35	
13	0	0	0	0	484	36	
14	0	0	0	0	485	35	
15	0	0	0	0	486	35	
0	0	0	0	0	486	36	
1	0	0	0	0	486	36	
2	0	0	0	0	486	34	
3	0	0	0	0	486	35	
4	0	0	0	0	485	36	
5	0	0	0	0	485	35	
6	0	0	0	0	487	34	
7	0	0	0	0	487	35	
8	0	0	0	0	487	36	
9	0	0	0	0	487	34	
10	0	0	0	0	487	35	
11	0	0	0	0	487	36	
12	0	0	0	0	487	34	
13	0	0	0	0	487	35	
14	0	0	0	0	487	37	
15	0	0	0	0	488	34	
0	0	0	0	0	489	35	
1	0	0	0	0	488	36	
2	0	0	0	0	488	34	
3	0	0	0	0	488	35	
4	0	0	0	0	488	36	
5	0	0	0	0	489	35	
6	0	0	0	0	488	35	
7	0	0	0	0	489	36	
8	0	0	0	0	489	35	
9	0	0	0	0	489	34	
10	0	0	0	0	489	35	
11	0	0	0	0	489	36	
12	0	0	0	0	489	34	
13	0	0	0	0	490	35	
14	0	0	0	0	491	36	
15	0	0	0	0	491	35	
0	0	0	0	0	492	34	
1	0	0	0	0	492	35	
2	0	0	0	0	494	36	
3	0	0	0	0	495	35	
4	0	0	0	0	496	34	
5	0	0	0	0	497	35	
6	0	0	0	0	498	37	
7	0	0	0	0	498	35	
8	0	0	0	0	499	35	
9	0	0	0	0	499	35	
10	0	0	0	0	499	35	
11	0	0	0	0	499	35	
12	0	0	0	0	499	35	
13	0	0	0	0	499	35	
14	0	0	0	0	499	34	
15	0	0	0	0	499	35	
0	0	0	0	0	500	36	
1	0	0	0	0	499	35	
2	0	0	0	0	499	34	
3	0	0	0	0	499	35	
4	0	0	0	0	499	35	
5	0	0	0	0	499	36	
6	0	0	0	0	500	35	
7	0	0	0	0	500	35	
8	0	0	0	0	499	36	
9	0	0	0	0	500	35	
10	0	0	0	0	500	34	
11	0	0	0	0	502	35	
12	0	0	0	0	501	35	
13	0	0	0	0	501	34	
14	0	0	0	0	501	35	
15	0	0	0	0	501	35	
0	0	0	0	0	501	35	
1	0	0	0	0	500	36	
2	0	0	0	0	501	35	
3	0	0	0	0	502	34	
4	0	0	0	0	503	35	
5	0	0	0	0	504	36	
6	0	0	0	0	505	35	
7	0	0	0	0	505	35	
8	0	0	0	0	506	36	
9	0	0	0	0	507	35	
10	0	0	0	0	507	34	
11	0	0	0	0	508	35	
12	0	0	0	0	508	35	
13	0	0	0	0	508	34	
14	0	0	0	0	508	35	
15	0	0	0	0	507	37	
0	0	0	0	0	507	34	
1	0	0	0	0	507	35	
2	0	0	0	0	507	36	
3	0	0	0	0	506	35	
4	0	0	0	0	506	35	
5	0	0	0	0	506	35	
6	0	0	0	0	507	35	
7	0	0	0	0	507	34	
8	0	0	0	0	508	35	
9	0	0	0	0	507	36	
10	0	0	0	0	507	34	
11	0	0	0	0	507	35	
12	0	0	0	0	507	36	
13	0	0	0	0	506	35	
14	0	0	0	0	508	34	
15	0	0	0	0	508	35	
0	0	0	0	0	509	36	
1	0	0	0	0	510	35	
2	0	0	0	0	510	34	
3	0	0	0	0	509	35	
4	0	0	0	0	510	36	
5	0	0	0	0	510	35	
6	0	0	0	0	510	34	
7	0	0	0	0	510	36	
8	0	0	0	0	511	35	
9	0	0	0	0	511	34	
10	0	0	0	0	512	35	
11	0	0	0	0	512	36	
12	0	0	0	0	512	35	
13	0	0	0	0	512	35	
14	0	0	0	0	512	35	
15	0	0	0	0	512	37	
0	0	0	0	0	511	35	
1	0	0	0	0	510	35	
2	0	0	0	0	510	35	
3	0	0	0	0	509	36	
4	0	0	0	0	510	35	
5	0	0	0	0	510	34	
6	0	0	0	0	510	35	
7	0	0	0	0	511	36	
8	0	0	0	0	512	35	
9	0	0	0	0	513	35	
10	0	0	0	0	514	35	
11	0	0	0	0	515	35	
12	0	0	0	0	515	34	
13	0	0	0	0	515	35	
14	0	0	0	0	515	36	
15	0	0	0	0	515	34	
0	0	0	0	0	515	35	
1	0	0	0	0	516	36	
2	0	0	0	0	516	35	
3	0	0	0	0	516	34	
4	0	0	0	0	516	35	
5	0	0	0	0	515	36	
6	0	0	0	0	515	35	
7	0	0	0	0	515	34	
8	0	0	0	0	515	35	
9	0	0	0	0	515	35	
10	0	0	0	0	515	34	
11	0	0	0	0	516	35	
12	0	0	0	0	516	35	
13	0	0	0	0	517	35	
14	0	0	0	0	518	34	
15	0	0	0	0	518	35	
0	0	0	0	0	519	35	
1	0	0	0	0	519	35	
2	0	0	0	0	519	34	
3	0	0	0	0	520	35	
4	0	0	0	0	522	36	
5	0	0	0	0	523	35	
6	0	0	0	0	523	35	
7	0	0	0	0	523	35	
8	0	0	0	0	523	36	
9	0	0	0	0	524	34	
10	0	0	0	0	524	35	
11	0	0	0	0	525	36	
12	0	0	0	0	526	34	
13	0	0	0	0	526	35	
14	0	0	0	0	526	36	
15	0	0	0	0	526	35	
0	0	0	0	0	526	34	
1	0	0	0	0	527	35	
2	0	0	0	0	528	35	
3	0	0	0	0	529	34	
4	0	0	0	0	530	35	
5	0	0	0	0	530	36	
6	0	0	0	0	531	35	
7	0	0	0	0	532	34	
8	0	0	0	0	531	35	
9	0	0	0	0	532	36	
10	0	0	0	0	531	35	
11	0	0	0	0	533	35	
12	0	0	0	0	534	35	
13	0	0	0	0	534	36	
14	0	0	0	0	535	34	
15	0	0	0	0	536	35	
0	0	0	0	0	537	36	
1	0	0	0	0	537	35	
2	0	0	0	0	537	34	
3	0	0	0	0	537	35	
4	0	0	0	0	538	36	
5	0	0	0	0	539	35	
6	0	0	0	0	539	34	
7	0	0	0	0	540	35	
8	0	0	0	0	541	36	
9	0	0	0	0	542	35	
10	0	0	0	0	541	34	
11	0	0	0	0	541	35	
12	0	0	0	0	541	36	
13	0	0	0	0	541	35	
14	0	0	0	0	542	34	
15	0	0	0	0	543	36	
0	0	0	0	0	542	35	
1	0	0	0	0	542	34	
2	0	0	0	0	543	35	
3	0	0	0	0	543	36	
4	0	0	0	0	544	35	
5	0	0	0	0	545	34	
6	0	0	0	0	545	35	
7	0	0	0	0	545	36	
8	0	0	0	0	545	35	
9	0	0	0	0	544	34	
10	0	0	0	0	544	35	
11	0	0	0	0	543	36	
12	0	0	0	0	544	34	
13	0	0	0	0	544	35	
14	0	0	0	0	545	36	
15	0	0	0	0	544	35	
0	0	0	0	0	543	34	
1	0	0	0	0	542	35	
2	0	0	0	0	540	35	
3	0	0	0	0	540	34	
4	0	0	0	0	539	35	
5	0	0	0	0	538	36	
6	0	0	0	0	537	34	
7	0	0	0	0	536	35	
8	0	0	0	0	535	36	
9	0	0	0	0	533	35	
10	0	0	0	0	532	35	
11	0	0	0	0	531	36	
12	0	0	0	0	531	35	
13	0	0	0	0	530	34	
14	0	0	0	0	529	35	
15	0	0	0	0	528	36	
0	0	0	0	0	527	35	
1	0	0	0	0	526	34	
2	0	0	0	0	525	35	
3	0	0	0	0	525	36	
4	0	0	0	0	523	36	
5	0	0	0	0	521	34	
6	0	0	0	0	519	35	
7	0	0	0	0	518	35	
8	0	0	0	0	516	36	
9	0	0	0	0	513	34	
10	0	0	0	0	512	35	
11	0	0	0	0	510	36	
12	0	0	0	0	508	35	
13	0	0	0	0	505	34	
14	0	0	0	0	503	35	
15	0	0	0	0	502	36	
0	0	0	0	0	500	34	
1	0	0	0	0	498	35	
2	0	0	0	0	496	35	
3	0	0	0	0	493	34	
4	0	0	0	0	492	35	
5	0	0	0	0	490	35	
6	0	0	0	0	488	34	
7	0	0	0	0	486	35	
8	0	0	0	0	484	35	
9	0	0	0	0	482	34	
10	0	0	0	0	480	35	
11	0	0	0	0	478	35	
12	0	0	0	0	477	34	
13	0	0	0	0	475	35	
14	0	0	0	0	473	35	
15	0	0	0	0	472	34	
0	0	0	0	0	471	35	
1	0	0	0	0	469	36	
2	0	0	0	0	467	35	
3	0	0	0	0	466	34	
4	0	0	0	0	464	35	
5	0	0	0	0	463	36	
6	0	0	0	0	461	35	
7	0	0	0	0	460	35	
8	0	0	0	0	459	35	
9	0	0	0	0	459	36	
10	0	0	0	0	459	35	
11	0	0	0	0	459	35	
12	0	0	0	0	459	36	
13	0	0	0	0	459	35	
14	0	0	0	0	459	34	
15	0	0	0	0	459	35	
0	0	0	0	0	458	36	
1	0	0	0	0	457	35	
2	0	0	0	0	456	34	
3	0	0	0	0	456	35	
4	0	0	0	0	455	36	
5	0	0	0	0	455	34	
6	0	0	0	0	454	35	
7	0	0	0	0	453	35	
8	0	0	0	0	454	35	
9	0	0	0	0	453	35	
10	0	0	0	0	454	35	
11	0	0	0	0	454	35	
12	0	0	0	0	453	35	
13	0	0	0	0	453	33	
14	0	0	0	0	453	35	
15	0	0	0	0	453	36	
0	0	0	0	0	454	35	
1	0	0	0	0	455	35	
2	0	0	0	0	455	36	
3	0	0	0	0	456	34	
4	0	0	0	0	456	35	
5	0	0	0	0	457	35	
6	0	0	0	0	457	34	
7	0	0	0	0	457	35	
8	0	0	0	0	456	36	
9	0	0	0	0	457	35	
10	0	0	0	0	457	35	
11	0	0	0	0	457	35	
12	0	0	0	0	459	35	
13	0	0	0	0	459	33	
14	0	0	0	0	459	35	
15	0	0	0	0	459	36	
0	0	0	0	0	460	34	
1	0	0	0	0	459	35	
2	0	0	0	0	461	36	
3	0	0	0	0	463	35	
4	0	0	0	0	463	35	
5	0	0	0	0	464	35	
6	0	0	0	0	464	35	
7	0	0	0	0	465	35	
8	0	0	0	0	465	35	
9	0	0	0	0	465	35	
10	0	0	0	0	465	34	
11	0	0	0	0	466	35	
12	0	0	0	0	467	36	
13	0	0	0	0	467	35	
14	0	0	0	0	467	33	
15	0	0	0	0	467	35	
0	0	0	0	0	468	36	
1	0	0	0	0	469	35	
2	0	0	0	0	469	35	
3	0	0	0	0	470	35	
4	0	0	0	0	471	35	
5	0	0	0	0	471	34	
6	0	0	0	0	471	35	
7	0	0	0	0	472	35	
8	0	0	0	0	472	34	
9	0	0	0	0	472	35	
10	0	0	0	0	473	36	
11	0	0	0	0	473	35	
12	0	0	0	0	474	35	
13	0	0	0	0	475	35	
14	0	0	0	0	475	35	
15	0	0	0	0	475	34	
0	0	0	0	0	476	35	
1	0	0	0	0	476	36	
2	0	0	0	0	476	35	
3	0	0	0	0	476	35	
4	0	0	0	0	477	36	
5	0	0	0	0	477	34	
6	0	0	0	0	478	35	
7	0	0	0	0	478	35	
8	0	0	0	0	478	35	
9	0	0	0	0	478	34	
10	0	0	0	0	478	35	
11	0	0	0	0	478	36	
12	0	0	0	0	478	35	
13	0	0	0	0	478	34	
14	0	0	0	0	479	35	
15	0	0	0	0	480	35	
0	0	0	0	0	480	35	
1	0	0	0	0	480	34	
2	0	0	0	0	481	35	
3	0	0	0	0	481	36	
4	0	0	0	0	481	34	
5	0	0	0	0	482	35	
6	0	0	0	0	483	36	
7	0	0	0	0	483	35	
8	0	0	0	0	484	35	
9	0	0	0	0	486	35	
10	0	0	0	0	486	36	
11	0	0	0	0	487	34	
12	0	0	0	0	487	35	
13	0	0	0	0	487	35	
14	0	0	0	0	487	34	
15	0	0	0	0	488	36	
0	0	0	0	0	489	35	
1	0	0	0	0	489	35	
2	0	0	0	0	489	35	
3	0	0	0	0	489	35	
4	0	0	0	0	490	33	
5	0	0	0	0	490	35	
6	0	0	0	0	490	36	
7	0	0	0	0	489	35	
8	0	0	0	0	490	35	
9	0	0	0	0	491	35	
10	0	0	0	0	492	36	
11	0	0	0	0	492	34	
12	0	0	0	0	491	35	
13	0	0	0	0	492	35	
14	0	0	0	0	492	34	
15	0	0	0	0	492	35	
0	0	0	0	0	492	36	
1	0	0	0	0	493	35	
2	0	0	0	0	494	34	
3	0	0	0	0	494	35	
4	0	0	0	0	494	36	
5	0	0	0	0	494	34	
6	0	0	0	0	494	35	
7	0	0	0	0	494	35	
8	0	0	0	0	495	35	
9	0	0	0	0	495	34	
10	0	0	0	0	496	35	
11	0	0	0	0	496	36	
12	0	0	0	0	496	35	
13	0	0	0	0	495	34	
14	0	0	0	0	495	36	
15	0	0	0	0	495	35	
0	0	0	0	0	496	35	
1	0	0	0	0	497	35	
2	0	0	0	0	497	35	
3	0	0	0	0	499	34	
4	0	0	0	0	499	35	
5	0	0	0	0	500	36	
6	0	0	0	0	500	35	
7	0	0	0	0	500	33	
8	0	0	0	0	501	35	
9	0	0	0	0	501	36	
10	0	0	0	0	502	35	
11	0	0	0	0	502	34	
12	0	0	0	0	501	35	
13	0	0	0	0	500	36	
14	0	0	0	0	500	35	
15	0	0	0	0	501	35	
0	0	0	0	0	500	35	
1	0	0	0	0	501	36	
2	0	0	0	0	502	35	
3	0	0	0	0	502	34	
4	0	0	0	0	503	35	
5	0	0	0	0	503	36	
6	0	0	0	0	504	34	
7	0	0	0	0	504	35	
8	0	0	0	0	503	35	
9	0	0	0	0	503	35	
10	0	0	0	0	502	34	
11	0	0	0	0	503	35	
12	0	0	0	0	503	36	
13	0	0	0	0	504	35	
14	0	0	0	0	504	35	
15	0	0	0	0	504	35	
0	0	0	0	0	504	35	
1	0	0	0	0	505	36	
2	0	0	0	0	505	35	
3	0	0	0	0	505	35	
4	0	0	0	0	504	35	
5	0	0	0	0	504	36	
6	0	0	0	0	504	35	
7	0	0	0	0	505	34	
8	0	0	0	0	505	35	
9	0	0	0	0	506	36	
10	0	0	0	0	506	35	
11	0	0	0	0	505	34	
12	0	0	0	0	505	35	
13	0	0	0	0	504	36	
14	0	0	0	0	504	35	
15	0	0	0	0	503	35	
0	0	0	0	0	503	35	
1	0	0	0	0	504	36	
2	0	0	0	0	504	35	
3	0	0	0	0	505	34	
4	0	0	0	0	505	35	
5	0	0	0	0	505	36	
6	0	0	0	0	506	35	
7	0	0	0	0	507	34	
8	0	0	0	0	507	35	
9	0	0	0	0	508	36	
10	0	0	0	0	508	35	
11	0	0	0	0	507	34	
12	0	0	0	0	507	35	
13	0	0	0	0	507	35	
14	0	0	0	0	508	36	
15	0	0	0	0	507	35	
0	0	0	0	0	508	34	
1	0	0	0	0	508	35	
2	0	0	0	0	509	36	
3	0	0	0	0	508	35	
4	0	0	0	0	507	33	
5	0	0	0	0	507	35	
6	0	0	0	0	507	36	
7	0	0	0	0	507	35	
8	0	0	0	0	507	35	
9	0	0	0	0	507	35	
10	0	0	0	0	507	36	
11	0	0	0	0	506	34	
12	0	0	0	0	506	35	
13	0	0	0	0	505	35	
14	0	0	0	0	505	35	
15	0	0	0	0	505	34	
0	0	0	0	0	504	35	
1	0	0	0	0	504	35	
2	0	0	0	0	504	36	
3	0	0	0	0	504	35	
4	0	0	0	0	505	35	
5	0	0	0	0	505	35	
6	0	0	0	0	505	35	
7	0	0	0	0	505	34	
8	0	0	0	0	504	35	
9	0	0	0	0	504	36	
10	0	0	0	0	504	34	
11	0	0	0	0	504	35	
12	0	0	0	0	504	36	
13	0	0	0	0	504	35	
14	0	0	0	0	504	34	
15	0	0	0	0	504	35	
0	0	0	0	0	504	35	
1	0	0	0	0	505	34	
2	0	0	0	0	505	35	
3	0	0	0	0	507	36	
4	0	0	0	0	507	35	
5	0	0	0	0	508	34	
6	0	0	0	0	509	35	
7	0	0	0	0	510	36	
8	0	0	0	0	509	34	
9	0	0	0	0	510	35	
10	0	0	0	0	510	35	
11	0	0	0	0	510	35	
12	0	0	0	0	510	34	
13	0	0	0	0	510	35	
14	0	0	0	0	510	36	
15	0	0	0	0	510	34	
0	0	0	0	0	510	35	
1	0	0	0	0	509	35	
2	0	0	0	0	510	35	
3	0	0	0	0	510	34	
4	0	0	0	0	511	35	
5	0	0	0	0	511	35	
6	0	0	0	0	511	36	
7	0	0	0	0	511	35	
8	0	0	0	0	511	35	
9	0	0	0	0	510	35	
10	0	0	0	0	510	35	
11	0	0	0	0	510	34	
12	0	0	0	0	510	35	
13	0	0	0	0	510	35	
14	0	0	0	0	510	35	
15	0	0	0	0	510	34	
0	0	0	0	0	510	35	
1	0	0	0	0	510	36	
2	0	0	0	0	510	35	
3	0	0	0	0	510	33	
4	0	0	0	0	511	35	
5	0	0	0	0	512	35	
6	0	0	0	0	513	34	
7	0	0	0	0	512	35	
8	0	0	0	0	512	36	
9	0	0	0	0	513	35	
10	0	0	0	0	513	34	
11	0	0	0	0	513	35	
12	0	0	0	0	513	36	
13	0	0	0	0	513	33	
14	0	0	0	0	513	35	
15	0	0	0	0	514	35	
0	0	0	0	0	514	34	
1	0	0	0	0	515	35	
2	0	0	0	0	516	35	
3	0	0	0	0	516	35	
4	0	0	0	0	515	33	
5	0	0	0	0	515	35	
6	0	0	0	0	515	35	
7	0	0	0	0	515	35	
8	0	0	0	0	515	33	
9	0	0	0	0	515	35	
10	0	0	0	0	515	36	
11	0	0	0	0	516	35	
12	0	0	0	0	515	34	
13	0	0	0	0	515	35	
14	0	0	0	0	516	35	
15	0	0	0	0	516	34	
0	0	0	0	0	515	35	
1	0	0	0	0	515	36	
2	0	0	0	0	515	35	
3	0	0	0	0	515	34	
4	0	0	0	0	515	35	
5	0	0	0	0	515	36	
6	0	0	0	0	515	34	
7	0	0	0	0	516	35	
8	0	0	0	0	517	35	
9	0	0	0	0	517	35	
10	0	0	0	0	518	33	
11	0	0	0	0	518	35	
12	0	0	0	0	518	36	
13	0	0	0	0	518	34	
14	0	0	0	0	517	35	
15	0	0	0	0	516	36	
0	0	0	0	0	516	35	
1	0	0	0	0	517	34	
2	0	0	0	0	516	35	
3	0	0	0	0	516	35	
4	0	0	0	0	516	33	
5	0	0	0	0	516	35	
6	0	0	0	0	516	36	
7	0	0	0	0	516	35	
8	0	0	0	0	516	35	
9	0	0	0	0	516	35	
10	0	0	0	0	516	36	
11	0	0	0	0	517	34	
12	0	0	0	0	517	35	
13	0	0	0	0	518	35	
14	0	0	0	0	518	35	
15	0	0	0	0	519	34	
0	0	0	0	0	519	35	
1	0	0	0	0	519	35	
2	0	0	0	0	520	34	
3	0	0	0	0	520	35	
4	0	0	0	0	520	36	
5	0	0	0	0	519	34	
6	0	0	0	0	519	35	
7	0	0	0	0	519	35	
8	0	0	0	0	519	35	
9	0	0	0	0	519	33	
10	0	0	0	0	519	35	
11	0	0	0	0	519	36	
12	0	0	0	0	519	35	
13	0	0	0	0	518	35	
14	0	0	0	0	518	35	
15	0	0	0	0	518	35	
0	0	0	0	0	518	33	
1	0	0	0	0	518	35	
2	0	0	0	0	519	36	
3	0	0	0	0	519	35	
4	0	0	0	0	519	34	
5	0	0	0	0	519	35	
6	0	0	0	0	519	36	
7	0	0	0	0	519	35	
8	0	0	0	0	519	34	
9	0	0	0	0	520	35	
10	0	0	0	0	520	35	
11	0	0	0	0	521	33	
12	0	0	0	0	521	35	
13	0	0	0	0	522	35	
14	0	0	0	0	522	34	
15	0	0	0	0	521	35	
0	0	0	0	0	520	35	
1	0	0	0	0	520	35	
2	0	0	0	0	520	34	
3	0	0	0	0	520	35	
4	0	0	0	0	520	35	
5	0	0	0	0	519	35	
6	0	0	0	0	519	33	
7	0	0	0	0	519	35	
8	0	0	0	0	518	36	
9	0	0	0	0	518	35	
10	0	0	0	0	517	34	
11	0	0	0	0	517	35	
12	0	0	0	0	518	36	
13	0	0	0	0	518	35	
14	0	0	0	0	519	34	
15	0	0	0	0	518	35	
0	0	0	0	0	517	36	
1	0	0	0	0	517	35	
2	0	0	0	0	516	35	
3	0	0	0	0	516	35	
4	0	0	0	0	517	35	
5	0	0	0	0	518	33	
6	0	0	0	0	518	35	
7	0	0	0	0	518	36	
8	0	0	0	0	518	34	
9	0	0	0	0	518	35	
10	0	0	0	0	518	35	
11	0	0	0	0	518	35	
12	0	0	0	0	518	33	
13	0	0	0	0	518	35	
14	0	0	0	0	519	36	
15	0	0	0	0	520	35	
0	0	0	0	0	520	34	
1	0	0	0	0	520	35	
2	0	0	0	0	520	36	
3	0	0	0	0	519	35	
4	0	0	0	0	519	34	
5	0	0	0	0	519	35	
6	0	0	0	0	518	35	
7	0	0	0	0	517	34	
8	0	0	0	0	516	35	
9	0	0	0	0	515	36	
10	0	0	0	0	515	35	
11	0	0	0	0	515	35	
12	0	0	0	0	516	36	
13	0	0	0	0	516	35	
14	0	0	0	0	515	33	
15	0	0	0	0	515	35	
0	0	0	0	0	515	35	
1	0	0	0	0	515	34	
2	0	0	0	0	515	35	
3	0	0	0	0	515	35	
4	0	0	0	0	515	35	
5	0	0	0	0	515	33	
6	0	0	0	0	514	35	
7	0	0	0	0	514	35	
8	0	0	0	0	515	35	
9	0	0	0	0	515	34	
10	0	0	0	0	515	35	
11	0	0	0	0	514	36	
12	0	0	0	0	514	34	
13	0	0	0	0	514	35	
14	0	0	0	0	514	35	
15	0	0	0	0	515	35	
0	0	0	0	0	515	34	
1	0	0	0	0	515	35	
2	0	0	0	0	515	35	
3	0	0	0	0	515	36	
4	0	0	0	0	515	34	
5	0	0	0	0	515	35	
6	0	0	0	0	515	35	
7	0	0	0	0	514	36	
8	0	0	0	0	513	34	
9	0	0	0	0	513	35	
10	0	0	0	0	513	35	
11	0	0	0	0	513	36	
12	0	0	0	0	513	33	
13	0	0	0	0	513	35	
14	0	0	0	0	512	35	
15	0	0	0	0	513	34	
0	0	0	0	0	513	35	
1	0	0	0	0	513	35	
2	0	0	0	0	513	35	
3	0	0	0	0	513	36	
4	0	0	0	0	513	33	
5	0	0	0	0	514	35	
6	0	0	0	0	514	36	
7	0	0	0	0	515	35	
8	0	0	0	0	515	34	
9	0	0	0	0	515	35	
10	0	0	0	0	516	36	
11	0	0	0	0	517	35	
12	0	0	0	0	518	34	
13	0	0	0	0	517	35	
14	0	0	0	0	517	36	
15	0	0	0	0	517	35	
0	0	0	0	0	517	34	
1	0	0	0	0	516	35	
2	0	0	0	0	516	35	
3	0	0	0	0	517	34	
4	0	0	0	0	516	35	
5	0	0	0	0	517	36	
6	0	0	0	0	517	35	
7	0	0	0	0	516	34	
8	0	0	0	0	516	35	
9	0	0	0	0	516	36	
10	0	0	0	0	515	35	
11	0	0	0	0	515	35	
12	0	0	0	0	515	35	
13	0	0	0	0	515	35	
14	0	0	0	0	516	34	
15	0	0	0	0	515	35	
0	0	0	0	0	516	36	
1	0	0	0	0	517	35	
2	0	0	0	0	518	34	
3	0	0	0	0	518	35	
4	0	0	0	0	518	36	
5	0	0	0	0	518	34	
6	0	0	0	0	519	35	
7	0	0	0	0	519	36	
8	0	0	0	0	518	34	
9	0	0	0	0	518	35	
10	0	0	0	0	518	35	
11	0	0	0	0	518	35	
12	0	0	0	0	517	34	
13	0	0	0	0	517	35	
14	0	0	0	0	517	35	
15	0	0	0	0	517	36	
0	0	0	0	0	517	35	
1	0	0	0	0	517	34	
2	0	0	0	0	517	35	
3	0	0	0	0	518	36	
4	0	0	0	0	518	35	
5	0	0	0	0	518	35	
6	0	0	0	0	518	35	
7	0	0	0	0	518	35	
8	0	0	0	0	517	34	
9	0	0	0	0	516	35	
10	0	0	0	0	515	35	
11	0	0	0	0	514	36	
12	0	0	0	0	515	35	
13	0	0	0	0	515	34	
14	0	0	0	0	515	35	
15	0	0	0	0	515	36	
0	0	0	0	0	515	35	
1	0	0	0	0	515	34	
2	0	0	0	0	515	35	
3	0	0	0	0	514	35	
4	0	0	0	0	513	35	
5	0	0	0	0	513	34	
6	0	0	0	0	513	34	
7	0	0	0	0	512	35	
8	0	0	0	0	512	36	
9	0	0	0	0	512	34	
10	0	0	0	0	512	35	
11	0	0	0	0	513	35	
12	0	0	0	0	513	35	
13	0	0	0	0	514	33	
14	0	0	0	0	515	35	
15	0	0	0	0	514	35	
0	0	0	0	0	513	35	
1	0	0	0	0	514	34	
2	0	0	0	0	514	35	
3	0	0	0	0	515	35	
4	0	0	0	0	515	36	
5	0	0	0	0	515	33	
6	0	0	0	0	516	35	
7	0	0	0	0	515	36	
8	0	0	0	0	515	35	
9	0	0	0	0	514	35	
10	0	0	0	0	513	35	
11	0	0	0	0	513	35	
12	0	0	0	0	513	34	
13	0	0	0	0	513	35	
14	0	0	0	0	513	36	
15	0	0	0	0	513	35	
0	0	0	0	0	512	33	
1	0	0	0	0	512	35	
2	0	0	0	0	512	35	
3	0	0	0	0	512	35	
4	0	0	0	0	513	33	
5	0	0	0	0	512	35	
6	0	0	0	0	512	35	
7	0	0	0	0	511	35	
8	0	0	0	0	511	34	
9	0	0	0	0	511	34	
10	0	0	0	0	510	35	
11	0	0	0	0	509	35	
12	0	0	0	0	508	33	
13	0	0	0	0	508	35	
14	0	0	0	0	509	36	
15	0	0	0	0	509	35	
0	0	0	0	0	511	35	
1	0	0	0	0	512	35	
2	0	0	0	0	512	36	
3	0	0	0	0	511	33	
4	0	0	0	0	510	35	
5	0	0	0	0	511	36	
6	0	0	0	0	511	34	
7	0	0	0	0	511	35	
8	0	0	0	0	511	36	
9	0	0	0	0	510	35	
10	0	0	0	0	510	34	
11	0	0	0	0	510	35	
12	0	0	0	0	509	35	
13	0	0	0	0	510	33	
14	0	0	0	0	510	35	
15	0	0	0	0	509	36	
0	0	0	0	0	508	35	
1	0	0	0	0	508	34	
2	0	0	0	0	510	35	
3	0	0	0	0	510	36	
4	0	0	0	0	510	34	
5	0	0	0	0	511	35	
6	0	0	0	0	511	36	
7	0	0	0	0	511	34	
8	0	0	0	0	511	35	
9	0	0	0	0	511	35	
10	0	0	0	0	510	34	
11	0	0	0	0	510	35	
12	0	0	0	0	510	35	
13	0	0	0	0	510	34	
14	0	0	0	0	510	35	
15	0	0	0	0	510	35	
0	0	0	0	0	510	35	
1	0	0	0	0	510	34	
2	0	0	0	0	510	35	
3	0	0	0	0	511	35	
4	0	0	0	0	510	33	
5	0	0	0	0	511	35	
6	0	0	0	0	511	36	
7	0	0	0	0	511	35	
8	0	0	0	0	511	34	
9	0	0	0	0	511	35	
10	0	0	0	0	511	36	
11	0	0	0	0	511	35	
12	0	0	0	0	511	35	
13	0	0	0	0	511	35	
14	0	0	0	0	511	35	
15	0	0	0	0	511	34	
0	0	0	0	0	511	35	
1	0	0	0	0	511	35	
2	0	0	0	0	512	35	
3	0	0	0	0	512	33	
4	0	0	0	0	511	35	
5	0	0	0	0	511	36	
6	0	0	0	0	511	34	
7	0	0	0	0	511	35	
8	0	0	0	0	511	35	
9	0	0	0	0	512	35	
10	0	0	0	0	512	33	
11	0	0	0	0	511	35	
12	0	0	0	0	512	36	
13	0	0	0	0	512	33	
14	0	0	0	0	512	35	
15	0	0	0	0	512	36	
0	0	0	0	0	511	35	
1	0	0	0	0	512	34	
2	0	0	0	0	512	35	
3	0	0	0	0	512	35	
4	0	0	0	0	512	33	
5	0	0	0	0	511	35	
6	0	0	0	0	511	36	
7	0	0	0	0	510	35	
8	0	0	0	0	511	34	
9	0	0	0	0	511	35	
10	0	0	0	0	511	35	
11	0	0	0	0	511	34	
12	0	0	0	0	511	35	
13	0	0	0	0	511	36	
14	0	0	0	0	511	34	
15	0	0	0	0	511	35	
0	0	0	0	0	511	36	
1	0	0	0	0	510	35	
2	0	0	0	0	511	33	
3	0	0	0	0	512	35	
4	0	0	0	0	511	36	
5	0	0	0	0	512	34	
6	0	0	0	0	512	35	
7	0	0	0	0	512	35	
8	0	0	0	0	511	35	
9	0	0	0	0	511	33	
10	0	0	0	0	510	35	
11	0	0	0	0	509	36	
12	0	0	0	0	509	35	
13	0	0	0	0	508	34	
14	0	0	0	0	508	35	
15	0	0	0	0	507	36	
0	0	0	0	0	507	34	
1	0	0	0	0	507	35	
2	0	0	0	0	506	36	
3	0	0	0	0	505	35	
4	0	0	0	0	505	34	
5	0	0	0	0	506	35	
6	0	0	0	0	507	36	
7	0	0	0	0	508	35	
8	0	0	0	0	508	34	
9	0	0	0	0	508	35	
10	0	0	0	0	509	35	
11	0	0	0	0	509	33	
12	0	0	0	0	510	35	
13	0	0	0	0	510	36	
14	0	0	0	0	510	35	
15	0	0	0	0	510	35	
0	0	0	0	0	509	35	
1	0	0	0	0	509	36	
2	0	0	0	0	509	35	
3	0	0	0	0	509	35	
4	0	0	0	0	509	36	
5	0	0	0	0	509	35	
6	0	0	0	0	509	34	
7	0	0	0	0	509	35	
8	0	0	0	0	509	36	
9	0	0	0	0	509	34	
10	0	0	0	0	509	35	
11	0	0	0	0	510	36	
12	0	0	0	0	510	35	
13	0	0	0	0	511	35	
14	0	0	0	0	511	36	
15	0	0	0	0	512	35	
0	0	0	0	0	513	35	
1	0	0	0	0	513	36	
2	0	0	0	0	513	33	
3	0	0	0	0	513	35	
4	0	0	0	0	514	36	
5	0	0	0	0	515	35	
6	0	0	0	0	514	33	
7	0	0	0	0	515	35	
8	0	0	0	0	515	36	
9	0	0	0	0	515	35	
10	0	0	0	0	514	33	
11	0	0	0	0	514	35	
12	0	0	0	0	515	36	
13	0	0	0	0	515	34	
14	0	0	0	0	515	35	
15	0	0	0	0	515	36	
0	0	0	0	0	515	35	
1	0	0	0	0	515	34	
2	0	0	0	0	515	35	
3	0	0	0	0	516	36	
4	0	0	0	0	516	34	
5	0	0	0	0	515	35	
6	0	0	0	0	515	35	
7	0	0	0	0	515	35	
8	0	0	0	0	516	34	
9	0	0	0	0	516	35	
10	0	0	0	0	516	36	
11	0	0	0	0	518	34	
12	0	0	0	0	519	35	
13	0	0	0	0	519	35	
14	0	0	0	0	520	35	
15	0	0	0	0	520	33	
0	0	0	0	0	521	35	
1	0	0	0	0	521	35	
2	0	0	0	0	521	33	
3	0	0	0	0	520	35	
4	0	0	0	0	520	35	
5	0	0	0	0	521	34	
6	0	0	0	0	520	35	
7	0	0	0	0	519	35	
8	0	0	0	0	519	35	
9	0	0	0	0	518	35	
10	0	0	0	0	517	35	
11	0	0	0	0	516	34	
12	0	0	0	0	515	35	
13	0	0	0	0	513	36	
14	0	0	0	0	512	34	
15	0	0	0	0	512	35	
0	0	0	0	0	510	35	
1	0	0	0	0	510	35	
2	0	0	0	0	509	35	
3	0	0	0	0	508	36	
4	0	0	0	0	508	35	
5	0	0	0	0	508	34	
6	0	0	0	0	508	35	
7	0	0	0	0	508	35	
8	0	0	0	0	507	33	
9	0	0	0	0	507	35	
10	0	0	0	0	507	36	
11	0	0	0	0	507	35	
12	0	0	0	0	507	34	
13	0	0	0	0	507	35	
14	0	0	0	0	506	36	
15	0	0	0	0	505	35	
0	0	0	0	0	505	34	
1	0	0	0	0	504	35	
2	0	0	0	0	504	36	
3	0	0	0	0	504	34	
4	0	0	0	0	502	35	
5	0	0	0	0	500	36	
6	0	0	0	0	499	35	
7	0	0	0	0	498	35	
8	0	0	0	0	497	36	
9	0	0	0	0	496	35	
10	0	0	0	0	495	34	
11	0	0	0	0	494	35	
12	0	0	0	0	493	35	
13	0	0	0	0	492	35	
14	0	0	0	0	492	35	
15	0	0	0	0	492	35	
0	0	0	0	0	492	34	
1	0	0	0	0	492	35	
2	0	0	0	0	493	36	
3	0	0	0	0	492	35	
4	0	0	0	0	492	34	
5	0	0	0	0	492	35	
6	0	0	0	0	492	36	
7	0	0	0	0	493	34	
8	0	0	0	0	493	35	
9	0	0	0	0	492	36	
10	0	0	0	0	492	35	
11	0	0	0	0	492	34	
12	0	0	0	0	492	35	
13	0	0	0	0	493	36	
14	0	0	0	0	493	34	
15	0	0	0	0	493	35	
0	0	0	0	0	493	36	
1	0	0	0	0	494	34	
2	0	0	0	0	494	35	
3	0	0	0	0	494	36	
4	0	0	0	0	493	35	
5	0	0	0	0	492	33	
6	0	0	0	0	492	35	
7	0	0	0	0	492	36	
8	0	0	0	0	492	33	
9	0	0	0	0	492	35	
10	0	0	0	0	492	35	
11	0	0	0	0	493	34	
12	0	0	0	0	493	35	
13	0	0	0	0	493	36	
14	0	0	0	0	495	34	
15	0	0	0	0	496	35	
0	0	0	0	0	496	35	
1	0	0	0	0	497	35	
2	0	0	0	0	498	34	
3	0	0	0	0	498	35	
4	0	0	0	0	498	36	
5	0	0	0	0	499	35	
6	0	0	0	0	498	35	
7	0	0	0	0	497	36	
8	0	0	0	0	497	34	
9	0	0	0	0	497	35	
10	0	0	0	0	498	36	
11	0	0	0	0	498	35	
12	0	0	0	0	499	35	
13	0	0	0	0	499	35	
14	0	0	0	0	500	36	
15	0	0	0	0	501	35	
0	0	0	0	0	501	35	
1	0	0	0	0	501	35	
2	0	0	0	0	500	35	
3	0	0	0	0	499	33	
4	0	0	0	0	498	35	
5	0	0	0	0	497	36	
6	0	0	0	0	498	34	
7	0	0	0	0	498	35	
8	0	0	0	0	499	35	
9	0	0	0	0	500	35	
10	0	0	0	0	502	34	
11	0	0	0	0	504	35	
12	0	0	0	0	505	35	
13	0	0	0	0	509	35	
14	0	0	0	0	513	35	
15	0	0	0	0	518	33	
0	0	0	0	0	524	35	
1	0	0	0	0	532	36	
2	0	0	0	0	542	35	
3	0	0	0	0	552	33	
4	0	0	0	0	564	35	
5	0	0	0	0	576	36	
6	0	0	0	0	588	33	
7	0	0	0	0	599	35	
8	0	0	0	0	609	35	
9	0	0	0	0	619	33	
10	0	0	0	0	627	35	
11	0	0	0	0	634	35	
12	0	0	0	0	639	33	
13	0	0	0	0	644	35	
14	0	0	0	0	649	35	
15	0	0	0	0	652	35	
0	0	0	0	0	654	36	
1	0	0	0	0	655	34	
2	0	0	0	0	655	35	
3	0	0	0	0	655	35	
4	0	0	0	0	654	34	
5	0	0	0	0	651	35	
6	0	0	0	0	645	34	
7	0	0	0	0	639	35	
8	0	0	0	0	631	36	
9	0	0	0	0	622	34	
10	0	0	0	0	613	35	
11	0	0	0	0	604	35	
12	0	0	0	0	596	35	
13	0	0	0	0	590	36	
14	0	0	0	0	583	34	
15	0	0	0	0	575	36	
0	0	0	0	0	565	34	
1	0	0	0	0	556	35	
2	0	0	0	0	545	36	
3	0	0	0	0	533	35	
4	0	0	0	0	521	36	
5	0	0	0	0	509	33	
6	0	0	0	0	499	35	
7	0	0	0	0	491	35	
8	0	0	0	0	483	35	
9	0	0	0	0	477	36	
10	0	0	0	0	472	34	
11	0	0	0	0	468	35	
12	0	0	0	0	464	35	
13	0	0	0	0	461	33	
14	0	0	0	0	459	35	
15	0	0	0	0	459	35	
0	0	0	0	0	459	35	
1	0	0	0	0	459	36	
2	0	0	0	0	459	33	
3	0	0	0	0	460	35	
4	0	0	0	0	462	35	
5	0	0	0	0	464	35	
6	0	0	0	0	466	36	
7	0	0	0	0	469	34	
8	0	0	0	0	471	35	
9	0	0	0	0	474	35	
10	0	0	0	0	477	34	
11	0	0	0	0	480	36	
12	0	0	0	0	483	34	
13	0	0	0	0	486	36	
14	0	0	0	0	487	35	
15	0	0	0	0	488	35	
0	0	0	0	0	488	36	
1	0	0	0	0	488	33	
2	0	0	0	0	488	35	
3	0	0	0	0	488	35	
4	0	0	0	0	488	33	
5	0	0	0	0	487	35	
6	0	0	0	0	487	35	
7	0	0	0	0	486	34	
8	0	0	0	0	486	35	
9	0	0	0	0	486	35	
10	0	0	0	0	486	35	
11	0	0	0	0	486	35	
12	0	0	0	0	486	35	
13	0	0	0	0	486	36	
14	0	0	0	0	486	33	
15	0	0	0	0	485	35	
0	0	0	0	0	486	35	
1	0	0	0	0	486	34	
2	0	0	0	0	486	36	
3	0	0	0	0	487	35	
4	0	0	0	0	487	35	
5	0	0	0	0	488	36	
6	0	0	0	0	488	34	
7	0	0	0	0	487	35	
8	0	0	0	0	489	34	
9	0	0	0	0	489	35	
10	0	0	0	0	490	35	
11	0	0	0	0	491	33	
12	0	0	0	0	491	36	
13	0	0	0	0	492	34	
14	0	0	0	0	492	35	
15	0	0	0	0	492	35	
0	0	0	0	0	493	34	
1	0	0	0	0	493	36	
2	0	0	0	0	494	35	
3	0	0	0	0	494	35	
4	0	0	0	0	494	35	
5	0	0	0	0	494	34	
6	0	0	0	0	494	36	
7	0	0	0	0	495	35	
8	0	0	0	0	495	35	
9	0	0	0	0	496	36	
10	0	0	0	0	496	33	
11	0	0	0	0	497	35	
12	0	0	0	0	498	35	
13	0	0	0	0	499	34	
14	0	0	0	0	499	35	
15	0	0	0	0	500	35	
0	0	0	0	0	500	35	
1	0	0	0	0	500	35	
2	0	0	0	0	500	35	
3	0	0	0	0	500	35	
4	0	0	0	0	500	35	
5	0	0	0	0	499	36	
6	0	0	0	0	499	35	
7	0	0	0	0	499	35	
8	0	0	0	0	500	36	
9	0	0	0	0	500	35	
10	0	0	0	0	501	35	
11	0	0	0	0	502	35	
12	0	0	0	0	501	35	
13	0	0	0	0	501	34	
14	0	0	0	0	500	35	
15	0	0	0	0	500	36	
0	0	0	0	0	500	33	
1	0	0	0	0	501	35	
2	0	0	0	0	502	35	
3	0	0	0	0	503	35	
4	0	0	0	0	503	36	
5	0	0	0	0	503	33	
6	0	0	0	0	502	35	
7	0	0	0	0	502	35	
8	0	0	0	0	502	34	
9	0	0	0	0	502	36	
10	0	0	0	0	503	35	
11	0	0	0	0	503	35	
12	0	0	0	0	504	36	
13	0	0	0	0	504	33	
14	0	0	0	0	504	35	
15	0	0	0	0	505	35	
0	0	0	0	0	505	35	
1	0	0	0	0	505	36	
2	0	0	0	0	505	34	
3	0	0	0	0	505	35	
4	0	0	0	0	506	35	
5	0	0	0	0	506	34	
6	0	0	0	0	506	36	
7	0	0	0	0	507	35	
8	0	0	0	0	507	35	
9	0	0	0	0	508	36	
10	0	0	0	0	508	34	
11	0	0	0	0	508	35	
12	0	0	0	0	509	35	
13	0	0	0	0	509	35	
14	0	0	0	0	509	36	
15	0	0	0	0	508	35	
0	0	0	0	0	509	35	
1	0	0	0	0	509	36	
2	0	0	0	0	508	34	
3	0	0	0	0	508	35	
4	0	0	0	0	508	35	
5	0	0	0	0	508	35	
6	0	0	0	0	509	35	
7	0	0	0	0	510	34	
8	0	0	0	0	511	35	
9	0	0	0	0	512	35	
10	0	0	0	0	513	35	
11	0	0	0	0	513	36	
12	0	0	0	0	513	34	
13	0	0	0	0	513	35	
14	0	0	0	0	513	35	
15	0	0	0	0	513	33	
0	0	0	0	0	513	35	
1	0	0	0	0	513	35	
2	0	0	0	0	514	35	
3	0	0	0	0	514	36	
4	0	0	0	0	513	34	
5	0	0	0	0	513	35	
6	0	0	0	0	514	35	
7	0	0	0	0	515	34	
8	0	0	0	0	516	36	
9	0	0	0	0	516	34	
10	0	0	0	0	515	35	
11	0	0	0	0	515	35	
12	0	0	0	0	515	35	
13	0	0	0	0	515	36	
14	0	0	0	0	515	34	
15	0	0	0	0	514	35	
0	0	0	0	0	515	35	
1	0	0	0	0	515	34	
2	0	0	0	0	515	35	
3	0	0	0	0	516	35	
4	0	0	0	0	517	35	
5	0	0	0	0	516	35	
6	0	0	0	0	516	34	
7	0	0	0	0	517	35	
8	0	0	0	0	518	35	
9	0	0	0	0	518	34	
10	0	0	0	0	518	35	
11	0	0	0	0	519	35	
12	0	0	0	0	519	35	
13	0	0	0	0	520	36	
14	0	0	0	0	520	35	
15	0	0	0	0	521	35	
0	0	0	0	0	521	35	
1	0	0	0	0	521	35	
2	0	0	0	0	521	34	
3	0	0	0	0	521	35	
4	0	0	0	0	522	36	
5	0	0	0	0	522	34	
6	0	0	0	0	521	35	
7	0	0	0	0	522	34	
8	0	0	0	0	523	35	
9	0	0	0	0	524	35	
10	0	0	0	0	524	35	
11	0	0	0	0	525	36	
12	0	0	0	0	526	34	
13	0	0	0	0	526	35	
14	0	0	0	0	525	35	
15	0	0	0	0	525	35	
0	0	0	0	0	526	36	
1	0	0	0	0	527	35	
2	0	0	0	0	528	35	
3	0	0	0	0	529	36	
4	0	0	0	0	531	33	
5	0	0	0	0	531	35	
6	0	0	0	0	532	35	
7	0	0	0	0	533	35	
8	0	0	0	0	533	36	
9	0	0	0	0	533	35	
10	0	0	0	0	532	35	
11	0	0	0	0	533	36	
12	0	0	0	0	534	33	
13	0	0	0	0	535	35	
14	0	0	0	0	536	35	
15	0	0	0	0	536	33	
0	0	0	0	0	536	35	
1	0	0	0	0	537	35	
2	0	0	0	0	537	35	
3	0	0	0	0	538	35	
4	0	0	0	0	539	34	
5	0	0	0	0	539	35	
6	0	0	0	0	539	35	
7	0	0	0	0	540	35	
8	0	0	0	0	540	35	
9	0	0	0	0	540	35	
10	0	0	0	0	540	36	
11	0	0	0	0	541	34	
12	0	0	0	0	541	35	
13	0	0	0	0	542	35	
14	0	0	0	0	542	35	
15	0	0	0	0	542	36	
0	0	0	0	0	542	34	
1	0	0	0	0	542	36	
2	0	0	0	0	543	34	
3	0	0	0	0	544	35	
4	0	0	0	0	544	35	
5	0	0	0	0	544	35	
6	0	0	0	0	544	35	
7	0	0	0	0	544	34	
8	0	0	0	0	544	35	
9	0	0	0	0	544	35	
10	0	0	0	0	544	35	
11	0	0	0	0	545	36	
12	0	0	0	0	545	34	
13	0	0	0	0	545	35	
14	0	0	0	0	545	35	
15	0	0	0	0	545	34	
0	0	0	0	0	546	36	
1	0	0	0	0	547	34	
2	0	0	0	0	547	35	
3	0	0	0	0	546	34	
4	0	0	0	0	547	35	
5	0	0	0	0	547	36	
6	0	0	0	0	547	34	
7	0	0	0	0	547	35	
8	0	0	0	0	547	35	
9	0	0	0	0	547	35	
10	0	0	0	0	547	36	
11	0	0	0	0	547	33	
12	0	0	0	0	547	35	
13	0	0	0	0	546	35	
14	0	0	0	0	545	35	
15	0	0	0	0	545	36	
0	0	0	0	0	545	34	
1	0	0	0	0	545	35	
2	0	0	0	0	544	36	
3	0	0	0	0	543	35	
4	0	0	0	0	542	35	
5	0	0	0	0	542	36	
6	0	0	0	0	542	35	
7	0	0	0	0	541	34	
8	0	0	0	0	540	35	
9	0	0	0	0	540	36	
10	0	0	0	0	540	35	
11	0	0	0	0	540	35	
12	0	0	0	0	540	35	
13	0	0	0	0	538	35	
14	0	0	0	0	537	35	
15	0	0	0	0	536	35	
0	0	0	0	0	534	35	
1	0	0	0	0	533	34	
2	0	0	0	0	531	35	
3	0	0	0	0	530	36	
4	0	0	0	0	529	35	
5	0	0	0	0	528	34	
6	0	0	0	0	527	35	
7	0	0	0	0	525	35	
8	0	0	0	0	524	34	
9	0	0	0	0	523	35	
10	0	0	0	0	520	35	
11	0	0	0	0	519	34	
12	0	0	0	0	516	35	
13	0	0	0	0	514	36	
14	0	0	0	0	513	35	
15	0	0	0	0	511	35	
0	0	0	0	0	509	36	
1	0	0	0	0	507	35	
2	0	0	0	0	504	34	
3	0	0	0	0	502	35	
4	0	0	0	0	500	36	
5	0	0	0	0	497	35	
6	0	0	0	0	495	35	
7	0	0	0	0	493	36	
8	0	0	0	0	490	35	
9	0	0	0	0	487	35	
10	0	0	0	0	486	36	
11	0	0	0	0	485	35	
12	0	0	0	0	483	34	
13	0	0	0	0	481	35	
14	0	0	0	0	480	35	
15	0	0	0	0	478	34	
0	0	0	0	0	476	35	
1	0	0	0	0	474	36	
2	0	0	0	0	472	34	
3	0	0	0	0	471	35	
4	0	0	0	0	469	36	
5	0	0	0	0	467	34	
6	0	0	0	0	464	35	
7	0	0	0	0	463	36	
8	0	0	0	0	462	34	
9	0	0	0	0	461	35	
10	0	0	0	0	460	36	
11	0	0	0	0	459	35	
12	0	0	0	0	458	35	
13	0	0	0	0	457	36	
14	0	0	0	0	457	35	
15	0	0	0	0	457	34	
0	0	0	0	0	455	35	
1	0	0	0	0	455	36	
2	0	0	0	0	455	35	
3	0	0	0	0	454	35	
4	0	0	0	0	452	36	
5	0	0	0	0	451	35	
6	0	0	0	0	452	35	
7	0	0	0	0	451	36	
8	0	0	0	0	451	34	
9	0	0	0	0	451	35	
10	0	0	0	0	451	36	
11	0	0	0	0	451	34	
12	0	0	0	0	450	35	
13	0	0	0	0	451	36	
14	0	0	0	0	451	35	
15	0	0	0	0	450	35	
0	0	0	0	0	450	36	
1	0	0	0	0	450	34	
2	0	0	0	0	451	35	
3	0	0	0	0	451	36	
4	0	0	0	0	452	35	
5	0	0	0	0	452	35	
6	0	0	0	0	452	35	
7	0	0	0	0	453	36	
8	0	0	0	0	453	35	
9	0	0	0	0	453	35	
10	0	0	0	0	454	35	
11	0	0	0	0	455	35	
12	0	0	0	0	454	34	
13	0	0	0	0	454	35	
14	0	0	0	0	454	36	
15	0	0	0	0	454	35	
0	0	0	0	0	454	35	
1	0	0	0	0	454	36	
2	0	0	0	0	454	34	
3	0	0	0	0	454	35	
4	0	0	0	0	455	36	
5	0	0	0	0	455	35	
6	0	0	0	0	456	35	
7	0	0	0	0	457	35	
8	0	0	0	0	459	35	
9	0	0	0	0	459	34	
10	0	0	0	0	460	35	
11	0	0	0	0	460	35	
12	0	0	0	0	460	34	
13	0	0	0	0	461	35	
14	0	0	0	0	462	35	
15	0	0	0	0	462	34	
0	0	0	0	0	462	35	
1	0	0	0	0	461	35	
2	0	0	0	0	461	34	
3	0	0	0	0	461	35	
4	0	0	0	0	460	36	
5	0	0	0	0	461	35	
6	0	0	0	0	462	34	
7	0	0	0	0	462	35	
8	0	0	0	0	462	36	
9	0	0	0	0	461	35	
10	0	0	0	0	461	35	
11	0	0	0	0	461	36	
12	0	0	0	0	462	35	
13	0	0	0	0	462	35	
14	0	0	0	0	463	35	
15	0	0	0	0	463	35	
0	0	0	0	0	465	35	
1	0	0	0	0	465	35	
2	0	0	0	0	466	36	
3	0	0	0	0	467	35	
4	0	0	0	0	467	34	
5	0	0	0	0	467	35	
6	0	0	0	0	467	36	
7	0	0	0	0	468	35	
8	0	0	0	0	468	34	
9	0	0	0	0	468	35	
10	0	0	0	0	468	36	
11	0	0	0	0	467	35	
12	0	0	0	0	468	34	
13	0	0	0	0	469	35	
14	0	0	0	0	469	35	
15	0	0	0	0	470	34	
0	0	0	0	0	471	35	
1	0	0	0	0	472	36	
2	0	0	0	0	472	35	
3	0	0	0	0	472	34	
4	0	0	0	0	472	35	
5	0	0	0	0	472	36	
6	0	0	0	0	473	34	
7	0	0	0	0	472	35	
8	0	0	0	0	473	36	
9	0	0	0	0	473	35	
10	0	0	0	0	473	34	
11	0	0	0	0	474	35	
12	0	0	0	0	475	35	
13	0	0	0	0	475	34	
14	0	0	0	0	476	35	
15	0	0	0	0	476	36	
0	0	0	0	0	477	35	
1	0	0	0	0	477	34	
2	0	0	0	0	478	35	
3	0	0	0	0	478	36	
4	0	0	0	0	477	34	
5	0	0	0	0	477	35	
6	0	0	0	0	478	35	
7	0	0	0	0	477	34	
8	0	0	0	0	478	35	
9	0	0	0	0	479	35	
10	0	0	0	0	479	34	
11	0	0	0	0	478	35	
12	0	0	0	0	479	36	
13	0	0	0	0	479	35	
14	0	0	0	0	479	35	
15	0	0	0	0	480	35	
0	0	0	0	0	480	36	
1	0	0	0	0	480	34	
2	0	0	0	0	481	35	
3	0	0	0	0	481	36	
4	0	0	0	0	483	34	
5	0	0	0	0	483	35	
6	0	0	0	0	484	36	
7	0	0	0	0	484	35	
8	0	0	0	0	484	35	
9	0	0	0	0	485	35	
10	0	0	0	0	485	35	
11	0	0	0	0	484	33	
12	0	0	0	0	485	35	
13	0	0	0	0	485	36	
14	0	0	0	0	485	35	
15	0	0	0	0	486	34	
0	0	0	0	0	487	35	
1	0	0	0	0	487	35	
2	0	0	0	0	487	34	
3	0	0	0	0	488	35	
4	0	0	0	0	490	35	
5	0	0	0	0	489	34	
6	0	0	0	0	490	35	
7	0	0	0	0	489	36	
8	0	0	0	0	488	35	
9	0	0	0	0	488	35	
10	0	0	0	0	488	35	
11	0	0	0	0	488	35	
12	0	0	0	0	487	34	
13	0	0	0	0	488	35	
14	0	0	0	0	488	36	
15	0	0	0	0	489	34	
0	0	0	0	0	489	35	
1	0	0	0	0	489	36	
2	0	0	0	0	491	35	
3	0	0	0	0	491	35	
4	0	0	0	0	491	36	
5	0	0	0	0	492	34	
6	0	0	0	0	492	35	
7	0	0	0	0	493	35	
8	0	0	0	0	492	34	
9	0	0	0	0	492	35	
10	0	0	0	0	492	35	
11	0	0	0	0	492	34	
12	0	0	0	0	492	35	
13	0	0	0	0	492	36	
14	0	0	0	0	492	35	
15	0	0	0	0	493	34	
0	0	0	0	0	493	35	
1	0	0	0	0	493	35	
2	0	0	0	0	493	34	
3	0	0	0	0	493	35	
4	0	0	0	0	494	35	
5	0	0	0	0	494	34	
6	0	0	0	0	494	35	
7	0	0	0	0	495	35	
8	0	0	0	0	495	34	
9	0	0	0	0	495	35	
10	0	0	0	0	495	36	
11	0	0	0	0	494	35	
12	0	0	0	0	494	35	
13	0	0	0	0	493	35	
14	0	0	0	0	493	35	
15	0	0	0	0	493	34	
0	0	0	0	0	494	35	
1	0	0	0	0	494	35	
2	0	0	0	0	496	34	
3	0	0	0	0	497	35	
4	0	0	0	0	497	35	
5	0	0	0	0	497	34	
6	0	0	0	0	497	35	
7	0	0	0	0	496	36	
8	0	0	0	0	497	34	
9	0	0	0	0	497	35	
10	0	0	0	0	497	36	
11	0	0	0	0	497	34	
12	0	0	0	0	497	35	
13	0	0	0	0	498	36	
14	0	0	0	0	498	35	
15	0	0	0	0	498	34	
0	0	0	0	0	498	35	
1	0	0	0	0	499	36	
2	0	0	0	0	499	35	
3	0	0	0	0	499	34	
4	0	0	0	0	500	35	
5	0	0	0	0	501	36	
6	0	0	0	0	501	35	
7	0	0	0	0	501	35	
8	0	0	0	0	501	36	
9	0	0	0	0	501	35	
10	0	0	0	0	501	34	
11	0	0	0	0	501	35	
12	0	0	0	0	500	36	
13	0	0	0	0	500	35	
14	0	0	0	0	500	35	
15	0	0	0	0	499	36	
0	0	0	0	0	499	35	
1	0	0	0	0	500	34	
2	0	0	0	0	500	35	
3	0	0	0	0	501	36	
4	0	0	0	0	501	34	
5	0	0	0	0	501	35	
6	0	0	0	0	502	36	
7	0	0	0	0	502	35	
8	0	0	0	0	503	35	
9	0	0	0	0	504	36	
10	0	0	0	0	504	35	
11	0	0	0	0	505	34	
12	0	0	0	0	505	35	
13	0	0	0	0	506	35	
14	0	0	0	0	505	34	
15	0	0	0	0	505	35	
0	0	0	0	0	506	35	
1	0	0	0	0	506	36	
2	0	0	0	0	507	35	
3	0	0	0	0	507	34	
4	0	0	0	0	508	35	
5	0	0	0	0	508	36	
6	0	0	0	0	507	35	
7	0	0	0	0	507	35	
8	0	0	0	0	506	36	
9	0	0	0	0	507	35	
10	0	0	0	0	506	34	
11	0	0	0	0	506	35	
12	0	0	0	0	506	35	
13	0	0	0	0	506	35	
14	0	0	0	0	507	36	
15	0	0	0	0	507	35	
0	0	0	0	0	507	35	
1	0	0	0	0	506	36	
2	0	0	0	0	506	34	
3	0	0	0	0	507	35	
4	0	0	0	0	507	36	
5	0	0	0	0	508	34	
6	0	0	0	0	508	35	
7	0	0	0	0	508	36	
8	0	0	0	0	509	35	
9	0	0	0	0	509	35	
10	0	0	0	0	509	35	
11	0	0	0	0	508	35	
12	0	0	0	0	508	34	
13	0	0	0	0	508	35	
14	0	0	0	0	508	36	
15	0	0	0	0	508	34	
0	0	0	0	0	508	35	
1	0	0	0	0	508	35	
2	0	0	0	0	507	35	
3	0	0	0	0	507	34	
4	0	0	0	0	507	35	
5	0	0	0	0	508	36	
6	0	0	0	0	508	34	
7	0	0	0	0	509	35	
8	0	0	0	0	509	36	
9	0	0	0	0	510	34	
10	0	0	0	0	510	35	
11	0	0	0	0	510	35	
12	0	0	0	0	510	34	
13	0	0	0	0	511	35	
14	0	0	0	0	511	36	
15	0	0	0	0	512	35	
0	0	0	0	0	511	35	
1	0	0	0	0	512	35	
2	0	0	0	0	512	34	
3	0	0	0	0	512	35	
4	0	0	0	0	513	35	
5	0	0	0	0	513	34	
6	0	0	0	0	513	35	
7	0	0	0	0	512	36	
8	0	0	0	0	512	34	
9	0	0	0	0	513	35	
10	0	0	0	0	513	35	
11	0	0	0	0	513	36	
12	0	0	0	0	512	34	
13	0	0	0	0	512	35	
14	0	0	0	0	512	36	
15	0	0	0	0	512	35	
0	0	0	0	0	512	34	
1	0	0	0	0	512	35	
2	0	0	0	0	512	36	
3	0	0	0	0	513	35	
4	0	0	0	0	513	35	
5	0	0	0	0	513	36	
6	0	0	0	0	513	35	
7	0	0	0	0	513	35	
8	0	0	0	0	514	36	
9	0	0	0	0	515	35	
10	0	0	0	0	515	34	
11	0	0	0	0	516	35	
12	0	0	0	0	516	36	
13	0	0	0	0	516	35	
14	0	0	0	0	516	35	
15	0	0	0	0	515	35	
0	0	0	0	0	514	35	
1	0	0	0	0	513	35	
2	0	0	0	0	512	36	
3	0	0	0	0	512	34	
4	0	0	0	0	512	35	
5	0	0	0	0	513	36	
6	0	0	0	0	513	35	
7	0	0	0	0	515	35	
8	0	0	0	0	515	36	
9	0	0	0	0	515	35	
10	0	0	0	0	516	34	
11	0	0	0	0	516	35	
12	0	0	0	0	517	36	
13	0	0	0	0	517	35	
14	0	0	0	0	517	34	
15	0	0	0	0	517	35	
0	0	0	0	0	516	35	
1	0	0	0	0	517	35	
2	0	0	0	0	517	35	
3	0	0	0	0	516	36	
4	0	0	0	0	515	34	
5	0	0	0	0	515	35	
6	0	0	0	0	516	36	
7	0	0	0	0	516	34	
8	0	0	0	0	516	35	
9	0	0	0	0	515	36	
10	0	0	0	0	515	34	
11	0	0	0	0	516	35	
12	0	0	0	0	517	36	
13	0	0	0	0	517	35	
14	0	0	0	0	517	34	
15	0	0	0	0	517	35	
0	0	0	0	0	518	36	
1	0	0	0	0	518	35	
2	0	0	0	0	518	35	
3	0	0	0	0	518	35	
4	0	0	0	0	518	35	
5	0	0	0	0	518	34	
6	0	0	0	0	518	35	
7	0	0	0	0	518	36	
8	0	0	0	0	517	34	
9	0	0	0	0	516	35	
10	0	0	0	0	516	35	
11	0	0	0	0	516	35	
12	0	0	0	0	517	34	
13	0	0	0	0	516	35	
14	0	0	0	0	517	36	
15	0	0	0	0	517	35	
0	0	0	0	0	517	35	
1	0	0	0	0	517	35	
2	0	0	0	0	517	35	
3	0	0	0	0	516	33	
4	0	0	0	0	516	35	
5	0	0	0	0	516	36	
6	0	0	0	0	517	34	
7	0	0	0	0	517	35	
8	0	0	0	0	516	36	
9	0	0	0	0	517	35	
10	0	0	0	0	515	34	
11	0	0	0	0	515	35	
12	0	0	0	0	515	35	
13	0	0	0	0	514	35	
14	0	0	0	0	514	36	
15	0	0	0	0	513	35	
0	0	0	0	0	513	34	
1	0	0	0	0	513	35	
2	0	0	0	0	513	36	
3	0	0	0	0	513	34	
4	0	0	0	0	514	35	
5	0	0	0	0	513	35	
6	0	0	0	0	514	36	
7	0	0	0	0	514	34	
8	0	0	0	0	515	35	
9	0	0	0	0	515	35	
10	0	0	0	0	515	35	
11	0	0	0	0	516	34	
12	0	0	0	0	515	35	
13	0	0	0	0	515	36	
14	0	0	0	0	515	34	
15	0	0	0	0	514	35	
0	0	0	0	0	514	36	
1	0	0	0	0	513	35	
2	0	0	0	0	513	34	
3	0	0	0	0	513	35	
4	0	0	0	0	513	36	
5	0	0	0	0	513	34	
6	0	0	0	0	513	35	
7	0	0	0	0	512	35	
8	0	0	0	0	512	35	
9	0	0	0	0	512	34	
10	0	0	0	0	512	35	
11	0	0	0	0	513	35	
12	0	0	0	0	513	34	
13	0	0	0	0	513	35	
14	0	0	0	0	513	36	
15	0	0	0	0	513	34	
0	0	0	0	0	513	35	
1	0	0	0	0	513	35	
2	0	0	0	0	512	34	
3	0	0	0	0	513	35	
4	0	0	0	0	512	35	
5	0	0	0	0	512	34	
6	0	0	0	0	512	35	
7	0	0	0	0	512	36	
8	0	0	0	0	511	35	
9	0	0	0	0	511	34	
10	0	0	0	0	511	36	
11	0	0	0	0	511	34	
12	0	0	0	0	511	35	
13	0	0	0	0	511	36	
14	0	0	0	0	511	35	
15	0	0	0	0	511	34	
0	0	0	0	0	511	35	
1	0	0	0	0	511	35	
2	0	0	0	0	511	34	
3	0	0	0	0	511	35	
4	0	0	0	0	511	36	
5	0	0	0	0	510	35	
6	0	0	0	0	511	34	
7	0	0	0	0	511	35	
8	0	0	0	0	510	36	
9	0	0	0	0	509	35	
10	0	0	0	0	509	35	
11	0	0	0	0	510	36	
12	0	0	0	0	510	35	
13	0	0	0	0	509	34	
14	0	0	0	0	509	35	
15	0	0	0	0	508	35	
0	0	0	0	0	509	35	
1	0	0	0	0	508	34	
2	0	0	0	0	508	35	
3	0	0	0	0	507	35	
4	0	0	0	0	508	34	
5	0	0	0	0	508	35	
6	0	0	0	0	508	35	
7	0	0	0	0	508	34	
8	0	0	0	0	507	35	
9	0	0	0	0	507	36	
10	0	0	0	0	508	34	
11	0	0	0	0	507	35	
12	0	0	0	0	507	36	
13	0	0	0	0	506	35	
14	0	0	0	0	507	34	
15	0	0	0	0	507	35	
0	0	0	0	0	508	35	
1	0	0	0	0	508	34	
2	0	0	0	0	508	35	
3	0	0	0	0	508	36	
4	0	0	0	0	508	35	
5	0	0	0	0	508	34	
6	0	0	0	0	510	35	
7	0	0	0	0	510	36	
8	0	0	0	0	511	35	
9	0	0	0	0	510	35	
10	0	0	0	0	510	36	
11	0	0	0	0	511	35	
12	0	0	0	0	510	34	
13	0	0	0	0	510	35	
14	0	0	0	0	510	36	
15	0	0	0	0	510	35	
0	0	0	0	0	510	34	
1	0	0	0	0	509	35	
2	0	0	0	0	509	36	
3	0	0	0	0	510	34	
4	0	0	0	0	510	35	
5	0	0	0	0	510	35	
6	0	0	0	0	510	36	
7	0	0	0	0	510	35	
8	0	0	0	0	510	35	
9	0	0	0	0	509	35	
10	0	0	0	0	510	35	
11	0	0	0	0	510	34	
12	0	0	0	0	510	35	
13	0	0	0	0	511	36	
14	0	0	0	0	511	35	
15	0	0	0	0	511	35	
0	0	0	0	0	510	35	
1	0	0	0	0	511	35	
2	0	0	0	0	511	35	
3	0	0	0	0	512	36	
4	0	0	0	0	512	36	
5	0	0	0	0	512	34	
6	0	0	0	0	513	36	
7	0	0	0	0	512	35	
8	0	0	0	0	513	34	
9	0	0	0	0	513	35	
10	0	0	0	0	514	36	
11	0	0	0	0	514	35	
12	0	0	0	0	514	35	
13	0	0	0	0	514	35	
14	0	0	0	0	515	36	
15	0	0	0	0	515	35	
0	0	0	0	0	516	35	
1	0	0	0	0	516	35	
2	0	0	0	0	515	35	
3	0	0	0	0	515	34	
4	0	0	0	0	515	35	
5	0	0	0	0	514	36	
6	0	0	0	0	515	34	
7	0	0	0	0	515	35	
8	0	0	0	0	515	35	
9	0	0	0	0	516	36	
10	0	0	0	0	517	35	
11	0	0	0	0	518	35	
12	0	0	0	0	518	35	
13	0	0	0	0	517	36	
14	0	0	0	0	517	34	
15	0	0	0	0	517	35	
0	0	0	0	0	517	35	
1	0	0	0	0	518	35	
2	0	0	0	0	518	34	
3	0	0	0	0	518	35	
4	0	0	0	0	518	36	
5	0	0	0	0	517	35	
6	0	0	0	0	518	34	
7	0	0	0	0	518	35	
8	0	0	0	0	518	36	
9	0	0	0	0	518	35	
10	0	0	0	0	518	35	
11	0	0	0	0	518	36	
12	0	0	0	0	518	34	
13	0	0	0	0	518	35	
14	0	0	0	0	519	36	
15	0	0	0	0	519	35	
0	0	0	0	0	519	34	
1	0	0	0	0	520	35	
2	0	0	0	0	520	36	
3	0	0	0	0	520	34	
4	0	0	0	0	520	35	
5	0	0	0	0	520	36	
6	0	0	0	0	520	34	
7	0	0	0	0	520	35	
8	0	0	0	0	519	36	
9	0	0	0	0	519	35	
10	0	0	0	0	518	34	
11	0	0	0	0	517	35	
12	0	0	0	0	517	35	
13	0	0	0	0	516	34	
14	0	0	0	0	516	35	
15	0	0	0	0	517	36	
0	0	0	0	0	518	35	
1	0	0	0	0	517	35	
2	0	0	0	0	517	36	
3	0	0	0	0	518	35	
4	0	0	0	0	519	34	
5	0	0	0	0	518	35	
6	0	0	0	0	518	36	
7	0	0	0	0	517	34	
8	0	0	0	0	516	35	
9	0	0	0	0	515	35	
10	0	0	0	0	515	35	
11	0	0	0	0	515	36	
12	0	0	0	0	515	35	
13	0	0	0	0	514	34	
14	0	0	0	0	515	35	
15	0	0	0	0	515	35	
0	0	0	0	0	515	34	
1	0	0	0	0	515	35	
2	0	0	0	0	514	35	
3	0	0	0	0	515	34	
4	0	0	0	0	515	35	
5	0	0	0	0	515	35	
6	0	0	0	0	515	34	
7	0	0	0	0	514	36	
8	0	0	0	0	514	35	
9	0	0	0	0	513	35	
10	0	0	0	0	514	36	
11	0	0	0	0	515	34	
12	0	0	0	0	515	35	
13	0	0	0	0	515	35	
14	0	0	0	0	515	34	
15	0	0	0	0	514	36	
0	0	0	0	0	514	35	
1	0	0	0	0	514	35	
2	0	0	0	0	515	36	
3	0	0	0	0	516	34	
4	0	0	0	0	516	35	
5	0	0	0	0	517	35	
6	0	0	0	0	517	34	
7	0	0	0	0	516	35	
8	0	0	0	0	517	36	
9	0	0	0	0	517	34	
10	0	0	0	0	516	35	
11	0	0	0	0	516	36	
12	0	0	0	0	516	34	
13	0	0	0	0	518	35	
14	0	0	0	0	518	36	
15	0	0	0	0	519	35	
0	0	0	0	0	519	35	
1	0	0	0	0	519	36	
2	0	0	0	0	518	35	
3	0	0	0	0	518	34	
4	0	0	0	0	518	35	
5	0	0	0	0	517	36	
6	0	0	0	0	517	35	
7	0	0	0	0	517	34	
8	0	0	0	0	516	35	
9	0	0	0	0	516	35	
10	0	0	0	0	518	33	
11	0	0	0	0	518	35	
12	0	0	0	0	519	36	
13	0	0	0	0	519	35	
14	0	0	0	0	521	35	
15	0	0	0	0	523	35	
0	0	0	0	0	524	35	
1	0	0	0	0	525	34	
2	0	0	0	0	526	35	
3	0	0	0	0	526	36	
4	0	0	0	0	527	35	
5	0	0	0	0	527	33	
6	0	0	0	0	528	35	
7	0	0	0	0	528	35	
8	0	0	0	0	527	35	
9	0	0	0	0	527	36	
10	0	0	0	0	526	34	
11	0	0	0	0	524	35	
12	0	0	0	0	523	36	
13	0	0	0	0	521	34	
14	0	0	0	0	519	35	
15	0	0	0	0	519	35	
0	0	0	0	0	518	35	
1	0	0	0	0	518	35	
2	0	0	0	0	518	34	
3	0	0	0	0	518	35	
4	0	0	0	0	519	35	
5	0	0	0	0	520	33	
6	0	0	0	0	520	35	
7	0	0	0	0	521	35	
8	0	0	0	0	521	35	
9	0	0	0	0	521	36	
10	0	0	0	0	521	35	
11	0	0	0	0	520	34	
12	0	0	0	0	521	35	
13	0	0	0	0	521	36	
14	0	0	0	0	520	35	
15	0	0	0	0	519	34	
0	0	0	0	0	519	35	
1	0	0	0	0	520	35	
2	0	0	0	0	519	34	
3	0	0	0	0	519	35	
4	0	0	0	0	519	35	
5	0	0	0	0	519	33	
6	0	0	0	0	519	35	
7	0	0	0	0	518	36	
8	0	0	0	0	518	34	
9	0	0	0	0	516	35	
10	0	0	0	0	515	36	
11	0	0	0	0	513	35	
12	0	0	0	0	511	35	
13	0	0	0	0	510	35	
14	0	0	0	0	509	35	
15	0	0	0	0	508	35	
0	0	0	0	0	508	36	
1	0	0	0	0	508	35	
2	0	0	0	0	508	34	
3	0	0	0	0	508	35	
4	0	0	0	0	508	35	
5	0	0	0	0	509	33	
6	0	0	0	0	509	35	
7	0	0	0	0	510	36	
8	0	0	0	0	509	35	
9	0	0	0	0	509	34	
10	0	0	0	0	510	35	
11	0	0	0	0	510	36	
12	0	0	0	0	510	35	
13	0	0	0	0	509	34	
14	0	0	0	0	509	35	
15	0	0	0	0	510	36	
0	0	0	0	0	509	34	
1	0	0	0	0	510	35	
2	0	0	0	0	510	36	
3	0	0	0	0	509	35	
4	0	0	0	0	509	35	
5	0	0	0	0	508	34	
6	0	0	0	0	508	35	
7	0	0	0	0	508	36	
8	0	0	0	0	508	34	
9	0	0	0	0	508	35	
10	0	0	0	0	508	36	
11	0	0	0	0	508	35	
12	0	0	0	0	508	33	
13	0	0	0	0	509	35	
14	0	0	0	0	510	36	
15	0	0	0	0	511	35	
0	0	0	0	0	510	33	
1	0	0	0	0	510	35	
2	0	0	0	0	511	35	
3	0	0	0	0	511	35	
4	0	0	0	0	511	33	
5	0	0	0	0	512	35	
6	0	0	0	0	511	35	
7	0	0	0	0	512	35	
8	0	0	0	0	512	35	
9	0	0	0	0	511	35	
10	0	0	0	0	512	35	
11	0	0	0	0	511	35	
12	0	0	0	0	511	35	
13	0	0	0	0	510	35	
14	0	0	0	0	510	36	
15	0	0	0	0	510	34	
0	0	0	0	0	510	35	
1	0	0	0	0	510	35	
2	0	0	0	0	510	36	
3	0	0	0	0	509	35	
4	0	0	0	0	508	35	
5	0	0	0	0	508	35	
6	0	0	0	0	507	35	
7	0	0	0	0	508	34	
8	0	0	0	0	510	35	
9	0	0	0	0	511	35	
10	0	0	0	0	513	36	
11	0	0	0	0	513	34	
12	0	0	0	0	514	35	
13	0	0	0	0	515	36	
14	0	0	0	0	518	35	
15	0	0	0	0	520	34	
0	0	0	0	0	524	35	
1	0	0	0	0	529	35	
2	0	0	0	0	536	34	
3	0	0	0	0	544	35	
4	0	0	0	0	553	34	
5	0	0	0	0	563	35	
6	0	0	0	0	575	35	
7	0	0	0	0	585	33	
8	0	0	0	0	596	35	
9	0	0	0	0	606	36	
10	0	0	0	0	615	35	
11	0	0	0	0	625	34	
12	0	0	0	0	633	35	
13	0	0	0	0	639	36	
14	0	0	0	0	643	34	
15	0	0	0	0	647	34	
0	0	0	0	0	651	35	
1	0	0	0	0	653	36	
2	0	0	0	0	655	36	
3	0	0	0	0	655	35	
4	0	0	0	0	654	34	
5	0	0	0	0	653	35	
6	0	0	0	0	650	35	
7	0	0	0	0	646	35	
8	0	0	0	0	639	34	
9	0	0	0	0	632	34	
10	0	0	0	0	624	35	
11	0	0	0	0	616	36	
12	0	0	0	0	607	35	
13	0	0	0	0	600	34	
14	0	0	0	0	593	35	
15	0	0	0	0	586	36	
0	0	0	0	0	577	36	
1	0	0	0	0	567	33	
2	0	0	0	0	556	35	
3	0	0	0	0	545	36	
4	0	0	0	0	534	35	
5	0	0	0	0	521	33	
6	0	0	0	0	510	35	
7	0	0	0	0	499	36	
8	0	0	0	0	491	35	
9	0	0	0	0	484	33	
10	0	0	0	0	479	35	
11	0	0	0	0	475	36	
12	0	0	0	0	470	35	
13	0	0	0	0	467	34	
14	0	0	0	0	464	35	
15	0	0	0	0	462	35	
0	0	0	0	0	461	34	
1	0	0	0	0	460	35	
2	0	0	0	0	460	36	
3	0	0	0	0	461	34	
4	0	0	0	0	461	35	
5	0	0	0	0	463	36	
6	0	0	0	0	464	35	
7	0	0	0	0	465	35	
8	0	0	0	0	467	36	
9	0	0	0	0	469	34	
10	0	0	0	0	471	35	
11	0	0	0	0	473	36	
12	0	0	0	0	476	35	
13	0	0	0	0	479	35	
14	0	0	0	0	481	35	
15	0	0	0	0	482	35	
0	0	0	0	0	483	33	
1	0	0	0	0	484	35	
2	0	0	0	0	486	35	
3	0	0	0	0	487	34	
4	0	0	0	0	487	35	
5	0	0	0	0	487	35	
6	0	0	0	0	487	35	
7	0	0	0	0	489	36	
8	0	0	0	0	490	35	
9	0	0	0	0	491	33	
10	0	0	0	0	492	36	
11	0	0	0	0	492	35	
12	0	0	0	0	493	34	
13	0	0	0	0	493	35	
14	0	0	0	0	492	35	
15	0	0	0	0	492	34	
0	0	0	0	0	492	35	
1	0	0	0	0	492	36	
2	0	0	0	0	492	35	
3	0	0	0	0	492	33	
4	0	0	0	0	492	35	
5	0	0	0	0	493	36	
6	0	0	0	0	493	35	
7	0	0	0	0	494	34	
8	0	0	0	0	494	35	
9	0	0	0	0	495	36	
10	0	0	0	0	494	35	
11	0	0	0	0	495	35	
12	0	0	0	0	494	36	
13	0	0	0	0	494	35	
14	0	0	0	0	495	33	
15	0	0	0	0	496	35	
0	0	0	0	0	497	36	
1	0	0	0	0	497	35	
2	0	0	0	0	497	34	
3	0	0	0	0	498	35	
4	0	0	0	0	497	36	
5	0	0	0	0	497	34	
6	0	0	0	0	497	35	
7	0	0	0	0	497	35	
8	0	0	0	0	499	35	
9	0	0	0	0	499	34	
10	0	0	0	0	499	35	
11	0	0	0	0	498	35	
12	0	0	0	0	499	35	
13	0	0	0	0	499	34	
14	0	0	0	0	499	35	
15	0	0	0	0	499	36	
0	0	0	0	0	499	34	
1	0	0	0	0	499	35	
2	0	0	0	0	499	35	
3	0	0	0	0	500	35	
4	0	0	0	0	501	34	
5	0	0	0	0	502	35	
6	0	0	0	0	502	35	
7	0	0	0	0	501	35	
8	0	0	0	0	501	34	
9	0	0	0	0	501	35	
10	0	0	0	0	502	35	
11	0	0	0	0	503	35	
12	0	0	0	0	504	34	
13	0	0	0	0	504	35	
14	0	0	0	0	504	35	
15	0	0	0	0	504	35	
0	0	0	0	0	504	35	
1	0	0	0	0	505	35	
2	0	0	0	0	505	34	
3	0	0	0	0	506	35	
4	0	0	0	0	507	36	
5	0	0	0	0	506	35	
6	0	0	0	0	505	35	
7	0	0	0	0	505	35	
8	0	0	0	0	506	35	
9	0	0	0	0	506	34	
10	0	0	0	0	506	35	
11	0	0	0	0	507	36	
12	0	0	0	0	508	35	
13	0	0	0	0	508	33	
14	0	0	0	0	509	35	
15	0	0	0	0	510	36	
0	0	0	0	0	511	35	
1	0	0	0	0	511	34	
2	0	0	0	0	512	35	
3	0	0	0	0	511	35	
4	0	0	0	0	511	35	
5	0	0	0	0	511	36	
6	0	0	0	0	512	34	
7	0	0	0	0	512	35	
8	0	0	0	0	513	35	
9	0	0	0	0	513	35	
10	0	0	0	0	513	34	
11	0	0	0	0	513	35	
12	0	0	0	0	513	35	
13	0	0	0	0	514	35	
14	0	0	0	0	515	33	
15	0	0	0	0	516	35	
0	0	0	0	0	517	36	
1	0	0	0	0	516	35	
2	0	0	0	0	516	34	
3	0	0	0	0	516	35	
4	0	0	0	0	516	35	
5	0	0	0	0	516	34	
6	0	0	0	0	516	35	
7	0	0	0	0	516	36	
8	0	0	0	0	518	35	
9	0	0	0	0	518	34	
10	0	0	0	0	519	35	
11	0	0	0	0	519	36	
12	0	0	0	0	519	35	
13	0	0	0	0	519	34	
14	0	0	0	0	519	35	
15	0	0	0	0	520	35	
0	0	0	0	0	520	33	
1	0	0	0	0	520	35	
2	0	0	0	0	520	36	
3	0	0	0	0	520	35	
4	0	0	0	0	520	34	
5	0	0	0	0	520	35	
6	0	0	0	0	520	36	
7	0	0	0	0	520	34	
8	0	0	0	0	520	35	
9	0	0	0	0	521	35	
10	0	0	0	0	521	35	
11	0	0	0	0	521	33	
12	0	0	0	0	522	35	
13	0	0	0	0	523	35	
14	0	0	0	0	523	35	
15	0	0	0	0	524	33	
0	0	0	0	0	524	35	
1	0	0	0	0	524	36	
2	0	0	0	0	525	35	
3	0	0	0	0	526	33	
4	0	0	0	0	526	34	
5	0	0	0	0	526	36	
6	0	0	0	0	525	35	
7	0	0	0	0	526	35	
8	0	0	0	0	526	36	
9	0	0	0	0	527	34	
10	0	0	0	0	527	35	
11	0	0	0	0	527	36	
12	0	0	0	0	527	35	
13	0	0	0	0	526	35	
14	0	0	0	0	526	35	
15	0	0	0	0	525	35	
0	0	0	0	0	525	33	
1	0	0	0	0	526	35	
2	0	0	0	0	526	36	
3	0	0	0	0	527	35	
4	0	0	0	0	527	33	
5	0	0	0	0	529	35	
6	0	0	0	0	529	36	
7	0	0	0	0	529	34	
8	0	0	0	0	530	35	
9	0	0	0	0	530	36	
10	0	0	0	0	530	35	
11	0	0	0	0	529	34	
12	0	0	0	0	530	35	
13	0	0	0	0	531	36	
14	0	0	0	0	530	34	
15	0	0	0	0	530	35	
0	0	0	0	0	530	35	
1	0	0	0	0	530	35	
2	0	0	0	0	531	35	
3	0	0	0	0	530	36	
4	0	0	0	0	530	34	
5	0	0	0	0	529	35	
6	0	0	0	0	530	36	
7	0	0	0	0	531	33	
8	0	0	0	0	529	34	
9	0	0	0	0	531	35	
10	0	0	0	0	532	36	
11	0	0	0	0	532	35	
12	0	0	0	0	532	35	
13	0	0	0	0	533	35	
14	0	0	0	0	535	35	
15	0	0	0	0	535	33	
0	0	0	0	0	536	35	
1	0	0	0	0	537	36	
2	0	0	0	0	537	34	
3	0	0	0	0	538	35	
4	0	0	0	0	539	35	
5	0	0	0	0	538	35	
6	0	0	0	0	539	33	
7	0	0	0	0	539	35	
8	0	0	0	0	539	36	
9	0	0	0	0	539	35	
10	0	0	0	0	538	33	
11	0	0	0	0	538	35	
12	0	0	0	0	538	36	
13	0	0	0	0	538	34	
14	0	0	0	0	539	35	
15	0	0	0	0	539	36	
0	0	0	0	0	539	35	
1	0	0	0	0	539	35	
2	0	0	0	0	540	35	
3	0	0	0	0	540	35	
4	0	0	0	0	539	33	
5	0	0	0	0	540	34	
6	0	0	0	0	539	36	
7	0	0	0	0	539	34	
8	0	0	0	0	539	35	
9	0	0	0	0	540	36	
10	0	0	0	0	539	34	
11	0	0	0	0	539	35	
12	0	0	0	0	539	36	
13	0	0	0	0	539	35	
14	0	0	0	0	539	34	
15	0	0	0	0	540	35	
0	0	0	0	0	540	35	
1	0	0	0	0	540	34	
2	0	0	0	0	540	35	
3	0	0	0	0	540	36	
4	0	0	0	0	540	35	
5	0	0	0	0	541	33	
6	0	0	0	0	542	35	
7	0	0	0	0	543	36	
8	0	0	0	0	543	34	
9	0	0	0	0	543	35	
10	0	0	0	0	542	35	
11	0	0	0	0	542	35	
12	0	0	0	0	543	34	
13	0	0	0	0	543	35	
14	0	0	0	0	542	36	
15	0	0	0	0	543	35	
0	0	0	0	0	543	33	
1	0	0	0	0	543	35	
2	0	0	0	0	543	36	
3	0	0	0	0	543	33	
4	0	0	0	0	543	35	
5	0	0	0	0	542	35	
6	0	0	0	0	541	33	
7	0	0	0	0	540	35	
8	0	0	0	0	541	36	
9	0	0	0	0	540	34	
10	0	0	0	0	539	34	
11	0	0	0	0	538	35	
12	0	0	0	0	537	35	
13	0	0	0	0	537	33	
14	0	0	0	0	536	35	
15	0	0	0	0	536	35	
0	0	0	0	0	535	34	
1	0	0	0	0	534	34	
2	0	0	0	0	532	35	
3	0	0	0	0	531	33	
4	0	0	0	0	529	35	
5	0	0	0	0	528	36	
6	0	0	0	0	528	35	
7	0	0	0	0	527	33	
8	0	0	0	0	526	35	
9	0	0	0	0	523	35	
10	0	0	0	0	521	33	
11	0	0	0	0	519	35	
12	0	0	0	0	518	36	
13	0	0	0	0	515	35	
14	0	0	0	0	513	33	
15	0	0	0	0	511	35	
0	0	0	0	0	509	35	
1	0	0	0	0	508	36	
2	0	0	0	0	506	35	
3	0	0	0	0	503	35	
4	0	0	0	0	500	34	
5	0	0	0	0	498	35	
6	0	0	0	0	496	36	
7	0	0	0	0	494	34	
8	0	0	0	0	492	35	
9	0	0	0	0	489	35	
10	0	0	0	0	487	35	
11	0	0	0	0	486	34	
12	0	0	0	0	483	35	
13	0	0	0	0	481	35	
14	0	0	0	0	479	35	
15	0	0	0	0	476	33	
0	0	0	0	0	473	35	
1	0	0	0	0	472	36	
2	0	0	0	0	470	33	
3	0	0	0	0	469	35	
4	0	0	0	0	467	36	
5	0	0	0	0	466	33	
6	0	0	0	0	465	35	
7	0	0	0	0	463	36	
8	0	0	0	0	462	35	
9	0	0	0	0	459	34	
10	0	0	0	0	457	35	
11	0	0	0	0	456	36	
12	0	0	0	0	456	34	
13	0	0	0	0	455	35	
14	0	0	0	0	454	35	
15	0	0	0	0	454	35	
0	0	0	0	0	453	34	
1	0	0	0	0	451	35	
2	0	0	0	0	451	36	
3	0	0	0	0	450	35	
4	0	0	0	0	450	34	
5	0	0	0	0	450	35	
6	0	0	0	0	449	36	
7	0	0	0	0	449	34	
8	0	0	0	0	450	35	
9	0	0	0	0	450	35	
10	0	0	0	0	450	35	
11	0	0	0	0	449	34	
12	0	0	0	0	449	35	
13	0	0	0	0	449	35	
14	0	0	0	0	449	35	
15	0	0	0	0	450	34	
0	0	0	0	0	450	35	
1	0	0	0	0	450	35	
2	0	0	0	0	448	34	
3	0	0	0	0	448	35	
4	0	0	0	0	448	35	
5	0	0	0	0	448	33	
6	0	0	0	0	449	35	
7	0	0	0	0	449	36	
8	0	0	0	0	449	33	
9	0	0	0	0	450	35	
10	0	0	0	0	451	36	
11	0	0	0	0	451	34	
12	0	0	0	0	451	35	
13	0	0	0	0	452	35	
14	0	0	0	0	452	35	
15	0	0	0	0	454	33	
0	0	0	0	0	454	35	
1	0	0	0	0	454	35	
2	0	0	0	0	454	33	
3	0	0	0	0	455	35	
4	0	0	0	0	455	36	
5	0	0	0	0	456	33	
6	0	0	0	0	457	35	
7	0	0	0	0	457	35	
8	0	0	0	0	458	33	
9	0	0	0	0	460	35	
10	0	0	0	0	461	36	
11	0	0	0	0	461	35	
12	0	0	0	0	462	35	
13	0	0	0	0	462	36	
14	0	0	0	0	463	34	
15	0	0	0	0	464	35	
0	0	0	0	0	464	36	
1	0	0	0	0	465	35	
2	0	0	0	0	466	33	
3	0	0	0	0	465	35	
4	0	0	0	0	466	35	
5	0	0	0	0	466	34	
6	0	0	0	0	466	36	
7	0	0	0	0	466	34	
8	0	0	0	0	466	35	
9	0	0	0	0	467	35	
10	0	0	0	0	469	35	
11	0	0	0	0	471	34	
12	0	0	0	0	472	35	
13	0	0	0	0	473	36	
14	0	0	0	0	474	33	
15	0	0	0	0	474	35	
0	0	0	0	0	474	36	
1	0	0	0	0	474	34	
2	0	0	0	0	474	35	
3	0	0	0	0	474	35	
4	0	0	0	0	474	34	
5	0	0	0	0	475	35	
6	0	0	0	0	475	35	
7	0	0	0	0	475	33	
8	0	0	0	0	476	35	
9	0	0	0	0	476	35	
10	0	0	0	0	477	33	
11	0	0	0	0	478	35	
12	0	0	0	0	479	36	
13	0	0	0	0	480	34	
14	0	0	0	0	480	35	
15	0	0	0	0	482	35	
0	0	0	0	0	483	35	
1	0	0	0	0	484	33	
2	0	0	0	0	485	35	
3	0	0	0	0	486	35	
4	0	0	0	0	486	36	
5	0	0	0	0	487	34	
6	0	0	0	0	487	35	
7	0	0	0	0	488	35	
8	0	0	0	0	488	35	
9	0	0	0	0	489	33	
10	0	0	0	0	489	35	
11	0	0	0	0	489	35	
12	0	0	0	0	489	34	
13	0	0	0	0	490	35	
14	0	0	0	0	491	36	
15	0	0	0	0	491	34	
0	0	0	0	0	491	35	
1	0	0	0	0	491	36	
2	0	0	0	0	491	35	
3	0	0	0	0	491	34	
4	0	0	0	0	492	35	
5	0	0	0	0	492	35	
6	0	0	0	0	494	33	
7	0	0	0	0	494	35	
8	0	0	0	0	495	36	
9	0	0	0	0	496	33	
10	0	0	0	0	496	35	
11	0	0	0	0	496	36	
12	0	0	0	0	496	35	
13	0	0	0	0	497	33	
14	0	0	0	0	497	35	
15	0	0	0	0	497	36	
0	0	0	0	0	497	34	
1	0	0	0	0	498	35	
2	0	0	0	0	499	36	
3	0	0	0	0	500	35	
4	0	0	0	0	501	34	
5	0	0	0	0	501	35	
6	0	0	0	0	500	36	
7	0	0	0	0	502	34	
8	0	0	0	0	502	35	
9	0	0	0	0	502	35	
10	0	0	0	0	503	35	
11	0	0	0	0	503	35	
12	0	0	0	0	504	36	
13	0	0	0	0	505	35	
14	0	0	0	0	505	33	
15	0	0	0	0	504	35	
0	0	0	0	0	504	36	
1	0	0	0	0	505	35	
2	0	0	0	0	507	33	
3	0	0	0	0	508	35	
4	0	0	0	0	507	36	
5	0	0	0	0	507	35	
6	0	0	0	0	507	33	
7	0	0	0	0	507	35	
8	0	0	0	0	506	36	
9	0	0	0	0	505	35	
10	0	0	0	0	505	33	
11	0	0	0	0	505	35	
12	0	0	0	0	506	36	
13	0	0	0	0	507	35	
14	0	0	0	0	508	35	
15	0	0	0	0	508	35	
0	0	0	0	0	508	36	
1	0	0	0	0	508	34	
2	0	0	0	0	508	34	
3	0	0	0	0	508	35	
4	0	0	0	0	508	35	
5	0	0	0	0	508	33	
6	0	0	0	0	508	35	
7	0	0	0	0	508	36	
8	0	0	0	0	508	35	
9	0	0	0	0	508	33	
10	0	0	0	0	508	35	
11	0	0	0	0	508	36	
12	0	0	0	0	508	34	
13	0	0	0	0	509	35	
14	0	0	0	0	509	35	
15	0	0	0	0	510	35	
0	0	0	0	0	510	34	
1	0	0	0	0	511	35	
2	0	0	0	0	511	36	
3	0	0	0	0	511	35	
4	0	0	0	0	510	33	
5	0	0	0	0	509	35	
6	0	0	0	0	508	35	
7	0	0	0	0	508	34	
8	0	0	0	0	508	35	
9	0	0	0	0	508	35	
10	0	0	0	0	508	35	
11	0	0	0	0	508	33	
12	0	0	0	0	509	35	
13	0	0	0	0	508	35	
14	0	0	0	0	509	33	
15	0	0	0	0	509	35	
0	0	0	0	0	509	36	
1	0	0	0	0	509	35	
2	0	0	0	0	508	33	
3	0	0	0	0	509	35	
4	0	0	0	0	508	36	
5	0	0	0	0	508	34	
6	0	0	0	0	509	34	
7	0	0	0	0	509	36	
8	0	0	0	0	509	35	
9	0	0	0	0	508	33	
10	0	0	0	0	508	35	
11	0	0	0	0	509	36	
12	0	0	0	0	509	35	
13	0	0	0	0	510	33	
14	0	0	0	0	510	35	
15	0	0	0	0	510	35	
0	0	0	0	0	511	35	
1	0	0	0	0	511	33	
2	0	0	0	0	512	35	
3	0	0	0	0	511	36	
4	0	0	0	0	511	35	
5	0	0	0	0	510	34	
6	0	0	0	0	511	35	
7	0	0	0	0	511	36	
8	0	0	0	0	512	34	
9	0	0	0	0	513	35	
10	0	0	0	0	512	35	
11	0	0	0	0	512	35	
12	0	0	0	0	512	34	
13	0	0	0	0	511	35	
14	0	0	0	0	511	35	
15	0	0	0	0	511	33	
0	0	0	0	0	511	35	
1	0	0	0	0	512	36	
2	0	0	0	0	513	35	
3	0	0	0	0	514	33	
4	0	0	0	0	513	35	
5	0	0	0	0	513	36	
6	0	0	0	0	512	34	
7	0	0	0	0	511	35	
8	0	0	0	0	512	36	
9	0	0	0	0	512	34	
10	0	0	0	0	511	35	
11	0	0	0	0	512	35	
12	0	0	0	0	512	35	
13	0	0	0	0	511	33	
14	0	0	0	0	511	35	
15	0	0	0	0	511	36	
0	0	0	0	0	512	33	
1	0	0	0	0	513	35	
2	0	0	0	0	513	35	
3	0	0	0	0	514	35	
4	0	0	0	0	514	35	
5	0	0	0	0	515	35	
6	0	0	0	0	514	33	
7	0	0	0	0	515	35	
8	0	0	0	0	515	35	
9	0	0	0	0	515	33	
10	0	0	0	0	515	35	
11	0	0	0	0	514	35	
12	0	0	0	0	513	35	
13	0	0	0	0	513	33	
14	0	0	0	0	515	35	
15	0	0	0	0	514	36	
0	0	0	0	0	513	34	
1	0	0	0	0	513	35	
2	0	0	0	0	513	35	
3	0	0	0	0	514	35	
4	0	0	0	0	515	33	
5	0	0	0	0	515	35	
6	0	0	0	0	515	36	
7	0	0	0	0	514	34	
8	0	0	0	0	513	35	
9	0	0	0	0	514	35	
10	0	0	0	0	513	35	
11	0	0	0	0	513	35	
12	0	0	0	0	513	35	
13	0	0	0	0	513	34	
14	0	0	0	0	515	35	
15	0	0	0	0	515	35	
0	0	0	0	0	514	35	
1	0	0	0	0	515	33	
2	0	0	0	0	516	35	
3	0	0	0	0	516	36	
4	0	0	0	0	515	33	
5	0	0	0	0	516	35	
6	0	0	0	0	515	35	
7	0	0	0	0	515	35	
8	0	0	0	0	516	33	
9	0	0	0	0	516	35	
10	0	0	0	0	515	36	
11	0	0	0	0	515	34	
12	0	0	0	0	516	34	
13	0	0	0	0	515	34	
14	0	0	0	0	515	36	
15	0	0	0	0	515	34	
0	0	0	0	0	516	34	
1	0	0	0	0	515	35	
2	0	0	0	0	515	36	
3	0	0	0	0	515	34	
4	0	0	0	0	514	33	
5	0	0	0	0	513	34	
6	0	0	0	0	514	36	
7	0	0	0	0	515	35	
8	0	0	0	0	516	33	
9	0	0	0	0	515	35	
10	0	0	0	0	515	35	
11	0	0	0	0	514	35	
12	0	0	0	0	514	33	
13	0	0	0	0	513	35	
14	0	0	0	0	512	35	
15	0	0	0	0	512	35	
0	0	0	0	0	512	33	
1	0	0	0	0	512	35	
2	0	0	0	0	512	36	
3	0	0	0	0	513	33	
4	0	0	0	0	513	35	
5	0	0	0	0	513	36	
6	0	0	0	0	513	35	
7	0	0	0	0	513	33	
8	0	0	0	0	513	35	
9	0	0	0	0	514	36	
10	0	0	0	0	515	34	
11	0	0	0	0	516	35	
12	0	0	0	0	516	36	
13	0	0	0	0	516	34	
14	0	0	0	0	515	34	
15	0	0	0	0	515	35	
0	0	0	0	0	515	35	
1	0	0	0	0	515	33	
2	0	0	0	0	515	35	
3	0	0	0	0	514	36	
4	0	0	0	0	514	34	
5	0	0	0	0	514	35	
6	0	0	0	0	514	35	
7	0	0	0	0	514	35	
8	0	0	0	0	514	33	
9	0	0	0	0	513	35	
10	0	0	0	0	513	36	
11	0	0	0	0	513	34	
12	0	0	0	0	514	34	
13	0	0	0	0	514	36	
14	0	0	0	0	515	34	
15	0	0	0	0	515	35	
0	0	0	0	0	516	36	
1	0	0	0	0	516	34	
2	0	0	0	0	515	35	
3	0	0	0	0	515	35	
4	0	0	0	0	515	36	
5	0	0	0	0	514	34	
6	0	0	0	0	515	35	
7	0	0	0	0	515	35	
8	0	0	0	0	515	35	
9	0	0	0	0	515	33	
10	0	0	0	0	515	35	
11	0	0	0	0	514	35	
12	0	0	0	0	514	35	
13	0	0	0	0	514	34	
14	0	0	0	0	513	35	
15	0	0	0	0	512	36	
0	0	0	0	0	513	35	
1	0	0	0	0	514	33	
2	0	0	0	0	513	35	
3	0	0	0	0	513	35	
4	0	0	0	0	512	35	
5	0	0	0	0	512	34	
6	0	0	0	0	511	35	
7	0	0	0	0	512	36	
8	0	0	0	0	512	34	
9	0	0	0	0	511	35	
10	0	0	0	0	511	35	
11	0	0	0	0	511	36	
12	0	0	0	0	512	34	
13	0	0	0	0	513	35	
14	0	0	0	0	512	35	
15	0	0	0	0	512	35	
0	0	0	0	0	512	33	
1	0	0	0	0	512	35	
2	0	0	0	0	511	36	
3	0	0	0	0	511	34	
4	0	0	0	0	512	33	
5	0	0	0	0	512	34	
6	0	0	0	0	512	36	
7	0	0	0	0	513	35	
8	0	0	0	0	512	33	
9	0	0	0	0	512	35	
10	0	0	0	0	512	36	
11	0	0	0	0	512	34	
12	0	0	0	0	513	34	
13	0	0	0	0	513	34	
14	0	0	0	0	513	36	
15	0	0	0	0	512	35	
0	0	0	0	0	512	33	
1	0	0	0	0	511	35	
2	0	0	0	0	511	35	
3	0	0	0	0	512	35	
4	0	0	0	0	512	33	
5	0	0	0	0	512	35	
6	0	0	0	0	513	36	
7	0	0	0	0	513	35	
8	0	0	0	0	513	33	
9	0	0	0	0	513	35	
10	0	0	0	0	513	36	
11	0	0	0	0	513	35	
12	0	0	0	0	514	33	
13	0	0	0	0	515	34	
14	0	0	0	0	515	35	
15	0	0	0	0	515	36	
0	0	0	0	0	515	34	
1	0	0	0	0	515	33	
2	0	0	0	0	515	34	
3	0	0	0	0	515	36	
4	0	0	0	0	515	35	
5	0	0	0	0	515	33	
6	0	0	0	0	515	35	
7	0	0	0	0	515	35	
8	0	0	0	0	515	34	
9	0	0	0	0	515	36	
10	0	0	0	0	516	35	
11	0	0	0	0	516	34	
12	0	0	0	0	515	35	
13	0	0	0	0	515	36	
14	0	0	0	0	515	34	
15	0	0	0	0	515	33	
0	0	0	0	0	515	35	
1	0	0	0	0	515	35	
2	0	0	0	0	515	33	
3	0	0	0	0	515	34	
4	0	0	0	0	514	36	
5	0	0	0	0	514	35	
6	0	0	0	0	514	33	
7	0	0	0	0	515	35	
8	0	0	0	0	515	35	
9	0	0	0	0	516	35	
10	0	0	0	0	515	35	
11	0	0	0	0	516	35	
12	0	0	0	0	515	36	
13	0	0	0	0	515	34	
14	0	0	0	0	515	33	
15	0	0	0	0	515	34	
0	0	0	0	0	515	36	
1	0	0	0	0	514	34	
2	0	0	0	0	513	34	
3	0	0	0	0	513	35	
4	0	0	0	0	512	36	
5	0	0	0	0	512	35	
6	0	0	0	0	511	33	
7	0	0	0	0	510	34	
8	0	0	0	0	510	36	
9	0	0	0	0	510	34	
10	0	0	0	0	510	35	
11	0	0	0	0	509	35	
12	0	0	0	0	509	35	
13	0	0	0	0	510	33	
14	0	0	0	0	508	34	
15	0	0	0	0	507	36	
0	0	0	0	0	507	35	
1	0	0	0	0	506	33	
2	0	0	0	0	506	35	
3	0	0	0	0	507	35	
4	0	0	0	0	507	35	
5	0	0	0	0	506	33	
6	0	0	0	0	506	34	
7	0	0	0	0	507	36	
8	0	0	0	0	507	35	
9	0	0	0	0	507	33	
10	0	0	0	0	507	35	
11	0	0	0	0	507	35	
12	0	0	0	0	506	34	
13	0	0	0	0	506	35	
14	0	0	0	0	506	35	
15	0	0	0	0	505	34	
0	0	0	0	0	505	34	
1	0	0	0	0	505	36	
2	0	0	0	0	505	35	
3	0	0	0	0	505	33	
4	0	0	0	0	505	34	
5	0	0	0	0	505	36	
6	0	0	0	0	506	34	
7	0	0	0	0	507	34	
8	0	0	0	0	507	35	
9	0	0	0	0	507	35	
10	0	0	0	0	507	33	
11	0	0	0	0	507	35	
12	0	0	0	0	507	35	
13	0	0	0	0	508	35	
14	0	0	0	0	508	35	
15	0	0	0	0	507	36	
0	0	0	0	0	508	35	
1	0	0	0	0	508	34	
2	0	0	0	0	507	36	
3	0	0	0	0	508	34	
4	0	0	0	0	508	34	
5	0	0	0	0	508	36	
6	0	0	0	0	509	35	
7	0	0	0	0	509	33	
8	0	0	0	0	510	35	
9	0	0	0	0	510	34	
10	0	0	0	0	510	35	
11	0	0	0	0	510	35	
12	0	0	0	0	511	35	
13	0	0	0	0	511	33	
14	0	0	0	0	511	35	
15	0	0	0	0	511	35	
0	0	0	0	0	511	35	
1	0	0	0	0	511	34	
2	0	0	0	0	510	35	
3	0	0	0	0	509	35	
4	0	0	0	0	510	34	
5	0	0	0	0	510	34	
6	0	0	0	0	509	35	
7	0	0	0	0	510	35	
8	0	0	0	0	509	33	
9	0	0	0	0	510	35	
10	0	0	0	0	511	36	
11	0	0	0	0	512	35	
12	0	0	0	0	513	35	
13	0	0	0	0	514	35	
14	0	0	0	0	513	35	
15	0	0	0	0	515	33	
0	0	0	0	0	516	34	
1	0	0	0	0	517	36	
2	0	0	0	0	516	35	
3	0	0	0	0	515	33	
4	0	0	0	0	514	34	
5	0	0	0	0	513	36	
6	0	0	0	0	512	35	
7	0	0	0	0	513	33	
8	0	0	0	0	514	35	
9	0	0	0	0	514	36	
10	0	0	0	0	514	35	
11	0	0	0	0	515	33	
12	0	0	0	0	515	34	
13	0	0	0	0	515	35	
14	0	0	0	0	515	33	
15	0	0	0	0	515	35	
0	0	0	0	0	516	35	
1	0	0	0	0	515	35	
2	0	0	0	0	515	34	
3	0	0	0	0	515	35	
4	0	0	0	0	515	36	
5	0	0	0	0	515	33	
6	0	0	0	0	515	35	
7	0	0	0	0	515	35	
8	0	0	0	0	515	35	
9	0	0	0	0	515	33	
10	0	0	0	0	515	34	
11	0	0	0	0	515	36	
12	0	0	0	0	515	34	
13	0	0	0	0	516	34	
14	0	0	0	0	515	35	
15	0	0	0	0	514	35	
0	0	0	0	0	515	33	
1	0	0	0	0	514	35	
2	0	0	0	0	514	35	
3	0	0	0	0	514	35	
4	0	0	0	0	515	33	
5	0	0	0	0	514	35	
6	0	0	0	0	514	35	
7	0	0	0	0	513	35	
8	0	0	0	0	513	33	
9	0	0	0	0	513	34	
10	0	0	0	0	512	36	
11	0	0	0	0	512	35	
12	0	0	0	0	511	33	
13	0	0	0	0	512	34	
14	0	0	0	0	512	35	
15	0	0	0	0	513	34	
0	0	0	0	0	513	35	
1	0	0	0	0	512	35	
2	0	0	0	0	512	36	
3	0	0	0	0	512	33	
4	0	0	0	0	512	35	
5	0	0	0	0	512	35	
6	0	0	0	0	513	33	
7	0	0	0	0	513	34	
8	0	0	0	0	512	36	
9	0	0	0	0	513	34	
10	0	0	0	0	513	35	
11	0	0	0	0	513	35	
12	0	0	0	0	513	35	
13	0	0	0	0	514	34	
14	0	0	0	0	515	35	
15	0	0	0	0	515	35	
0	0	0	0	0	514	33	
1	0	0	0	0	514	35	
2	0	0	0	0	513	36	
3	0	0	0	0	513	35	
4	0	0	0	0	512	33	
5	0	0	0	0	512	34	
6	0	0	0	0	512	36	
7	0	0	0	0	513	34	
8	0	0	0	0	513	35	
9	0	0	0	0	513	36	
10	0	0	0	0	514	34	
11	0	0	0	0	513	35	
12	0	0	0	0	512	35	
13	0	0	0	0	512	34	
14	0	0	0	0	513	35	
15	0	0	0	0	513	36	
0	0	0	0	0	514	34	
1	0	0	0	0	514	34	
2	0	0	0	0	513	35	
3	0	0	0	0	515	35	
4	0	0	0	0	515	34	
5	0	0	0	0	515	35	
6	0	0	0	0	514	34	
7	0	0	0	0	514	34	
8	0	0	0	0	514	35	
9	0	0	0	0	514	35	
10	0	0	0	0	514	33	
11	0	0	0	0	513	35	
12	0	0	0	0	513	36	
13	0	0	0	0	513	34	
14	0	0	0	0	513	35	
15	0	0	0	0	514	36	
0	0	0	0	0	515	34	
1	0	0	0	0	514	35	
2	0	0	0	0	514	35	
3	0	0	0	0	514	35	
4	0	0	0	0	514	33	
5	0	0	0	0	514	34	
6	0	0	0	0	514	36	
7	0	0	0	0	514	34	
8	0	0	0	0	514	34	
9	0	0	0	0	514	35	
10	0	0	0	0	515	34	
11	0	0	0	0	514	34	
12	0	0	0	0	513	35	
13	0	0	0	0	513	35	
14	0	0	0	0	513	33	
15	0	0	0	0	513	35	
0	0	0	0	0	512	33	
1	0	0	0	0	512	35	
2	0	0	0	0	511	35	
3	0	0	0	0	510	34	
4	0	0	0	0	510	35	
5	0	0	0	0	511	35	
6	0	0	0	0	511	33	
7	0	0	0	0	511	34	
8	0	0	0	0	511	36	
9	0	0	0	0	511	34	
10	0	0	0	0	512	35	
11	0	0	0	0	512	35	
12	0	0	0	0	512	34	
13	0	0	0	0	512	34	
14	0	0	0	0	512	36	
15	0	0	0	0	512	33	
0	0	0	0	0	514	35	
1	0	0	0	0	514	35	
2	0	0	0	0	514	33	
3	0	0	0	0	513	34	
4	0	0	0	0	512	35	
5	0	0	0	0	512	33	
6	0	0	0	0	511	34	
7	0	0	0	0	511	36	
8	0	0	0	0	511	35	
9	0	0	0	0	512	34	
10	0	0	0	0	512	35	
11	0	0	0	0	512	35	
12	0	0	0	0	515	33	
13	0	0	0	0	515	34	
14	0	0	0	0	516	36	
15	0	0	0	0	517	33	
0	0	0	0	0	518	34	
1	0	0	0	0	519	36	
2	0	0	0	0	520	33	
3	0	0	0	0	519	34	
4	0	0	0	0	519	35	
5	0	0	0	0	518	33	
6	0	0	0	0	518	35	
7	0	0	0	0	517	36	
8	0	0	0	0	517	34	
9	0	0	0	0	519	35	
10	0	0	0	0	520	35	
11	0	0	0	0	521	35	
12	0	0	0	0	523	33	
13	0	0	0	0	523	34	
14	0	0	0	0	523	36	
15	0	0	0	0	522	33	
0	0	0	0	0	523	35	
1	0	0	0	0	523	36	
2	0	0	0	0	523	34	
3	0	0	0	0	523	35	
4	0	0	0	0	524	36	
5	0	0	0	0	524	34	
6	0	0	0	0	524	35	
7	0	0	0	0	524	36	
8	0	0	0	0	524	35	
9	0	0	0	0	525	33	
10	0	0	0	0	527	35	
11	0	0	0	0	528	35	
12	0	0	0	0	528	35	
13	0	0	0	0	530	34	
14	0	0	0	0	530	35	
15	0	0	0	0	531	36	
0	0	0	0	0	532	34	
1	0	0	0	0	531	33	
2	0	0	0	0	531	35	
3	0	0	0	0	531	35	
4	0	0	0	0	531	33	
5	0	0	0	0	532	35	
6	0	0	0	0	531	35	
7	0	0	0	0	531	36	
8	0	0	0	0	530	34	
9	0	0	0	0	529	34	
10	0	0	0	0	528	35	
11	0	0	0	0	527	36	
12	0	0	0	0	526	34	
13	0	0	0	0	524	33	
14	0	0	0	0	524	35	
15	0	0	0	0	524	35	
0	0	0	0	0	524	33	
1	0	0	0	0	524	35	
2	0	0	0	0	524	35	
3	0	0	0	0	524	35	
4	0	0	0	0	524	35	
5	0	0	0	0	525	34	
6	0	0	0	0	525	35	
7	0	0	0	0	524	36	
8	0	0	0	0	524	34	
9	0	0	0	0	523	35	
10	0	0	0	0	523	35	
11	0	0	0	0	523	35	
12	0	0	0	0	523	34	
13	0	0	0	0	523	36	
14	0	0	0	0	522	34	
15	0	0	0	0	522	35	
0	0	0	0	0	522	35	
1	0	0	0	0	520	34	
2	0	0	0	0	519	35	
3	0	0	0	0	518	36	
4	0	0	0	0	516	33	
5	0	0	0	0	515	35	
6	0	0	0	0	514	35	
7	0	0	0	0	513	34	
8	0	0	0	0	511	35	
9	0	0	0	0	510	34	
10	0	0	0	0	508	35	
11	0	0	0	0	507	36	
12	0	0	0	0	506	34	
13	0	0	0	0	506	35	
14	0	0	0	0	507	36	
15	0	0	0	0	507	34	
0	0	0	0	0	507	34	
1	0	0	0	0	506	34	
2	0	0	0	0	506	35	
3	0	0	0	0	506	34	
4	0	0	0	0	507	35	
5	0	0	0	0	507	35	
6	0	0	0	0	506	35	
7	0	0	0	0	505	33	
8	0	0	0	0	506	35	
9	0	0	0	0	506	35	
10	0	0	0	0	505	35	
11	0	0	0	0	506	33	
12	0	0	0	0	505	34	
13	0	0	0	0	505	35	
14	0	0	0	0	506	35	
15	0	0	0	0	505	33	
0	0	0	0	0	505	34	
1	0	0	0	0	504	36	
2	0	0	0	0	505	34	
3	0	0	0	0	505	35	
4	0	0	0	0	505	35	
5	0	0	0	0	505	35	
6	0	0	0	0	506	34	
7	0	0	0	0	507	35	
8	0	0	0	0	507	36	
9	0	0	0	0	507	34	
10	0	0	0	0	508	33	
11	0	0	0	0	507	34	
12	0	0	0	0	507	35	
13	0	0	0	0	506	33	
14	0	0	0	0	506	34	
15	0	0	0	0	506	36	
0	0	0	0	0	506	33	
1	0	0	0	0	506	35	
2	0	0	0	0	506	35	
3	0	0	0	0	505	33	
4	0	0	0	0	504	35	
5	0	0	0	0	504	35	
6	0	0	0	0	504	33	
7	0	0	0	0	505	35	
8	0	0	0	0	505	35	
9	0	0	0	0	505	35	
10	0	0	0	0	505	33	
11	0	0	0	0	504	34	
12	0	0	0	0	502	36	
13	0	0	0	0	501	34	
14	0	0	0	0	502	34	
15	0	0	0	0	503	36	
0	0	0	0	0	502	35	
1	0	0	0	0	500	34	
2	0	0	0	0	500	34	
3	0	0	0	0	499	36	
4	0	0	0	0	499	34	
5	0	0	0	0	500	33	
6	0	0	0	0	502	35	
7	0	0	0	0	502	35	
8	0	0	0	0	504	33	
9	0	0	0	0	507	34	
10	0	0	0	0	508	36	
11	0	0	0	0	511	34	
12	0	0	0	0	514	33	
13	0	0	0	0	517	34	
14	0	0	0	0	521	35	
15	0	0	0	0	526	33	
0	0	0	0	0	535	34	
1	0	0	0	0	544	35	
2	0	0	0	0	555	34	
3	0	0	0	0	566	33	
4	0	0	0	0	577	35	
5	0	0	0	0	589	35	
6	0	0	0	0	600	33	
7	0	0	0	0	610	35	
8	0	0	0	0	619	35	
9	0	0	0	0	627	35	
10	0	0	0	0	634	33	
11	0	0	0	0	638	35	
12	0	0	0	0	641	36	
13	0	0	0	0	643	34	
14	0	0	0	0	644	35	
15	0	0	0	0	645	35	
0	0	0	0	0	644	35	
1	0	0	0	0	644	33	
2	0	0	0	0	644	35	
3	0	0	0	0	643	36	
4	0	0	0	0	641	34	
5	0	0	0	0	637	33	
6	0	0	0	0	630	35	
7	0	0	0	0	621	35	
8	0	0	0	0	612	35	
9	0	0	0	0	604	33	
10	0	0	0	0	596	34	
11	0	0	0	0	589	35	
12	0	0	0	0	581	35	
13	0	0	0	0	573	33	
14	0	0	0	0	565	35	
15	0	0	0	0	556	35	
0	0	0	0	0	546	34	
1	0	0	0	0	535	34	
2	0	0	0	0	524	35	
3	0	0	0	0	514	35	
4	0	0	0	0	504	34	
5	0	0	0	0	494	34	
6	0	0	0	0	486	35	
7	0	0	0	0	479	35	
8	0	0	0	0	473	34	
9	0	0	0	0	468	35	
10	0	0	0	0	464	35	
11	0	0	0	0	461	35	
12	0	0	0	0	459	33	
13	0	0	0	0	457	34	
14	0	0	0	0	454	36	
15	0	0	0	0	453	35	
0	0	0	0	0	452	33	
1	0	0	0	0	453	34	
2	0	0	0	0	456	36	
3	0	0	0	0	459	34	
4	0	0	0	0	462	35	
5	0	0	0	0	465	35	
6	0	0	0	0	467	35	
7	0	0	0	0	470	34	
8	0	0	0	0	473	35	
9	0	0	0	0	476	35	
10	0	0	0	0	478	35	
11	0	0	0	0	478	33	
12	0	0	0	0	480	35	
13	0	0	0	0	480	35	
14	0	0	0	0	480	35	
15	0	0	0	0	480	33	
0	0	0	0	0	480	35	
1	0	0	0	0	480	35	
2	0	0	0	0	480	35	
3	0	0	0	0	481	34	
4	0	0	0	0	480	35	
5	0	0	0	0	480	35	
6	0	0	0	0	480	35	
7	0	0	0	0	480	33	
8	0	0	0	0	480	35	
9	0	0	0	0	479	35	
10	0	0	0	0	480	35	
11	0	0	0	0	480	33	
12	0	0	0	0	480	34	
13	0	0	0	0	481	36	
14	0	0	0	0	481	34	
15	0	0	0	0	481	33	
0	0	0	0	0	481	34	
1	0	0	0	0	482	35	
2	0	0	0	0	482	33	
3	0	0	0	0	483	34	
4	0	0	0	0	484	35	
5	0	0	0	0	484	35	
6	0	0	0	0	484	33	
7	0	0	0	0	485	35	
8	0	0	0	0	485	35	
9	0	0	0	0	485	34	
10	0	0	0	0	486	33	
11	0	0	0	0	485	34	
12	0	0	0	0	486	35	
13	0	0	0	0	486	35	
14	0	0	0	0	487	33	
15	0	0	0	0	487	34	
0	0	0	0	0	487	36	
1	0	0	0	0	487	34	
2	0	0	0	0	488	33	
3	0	0	0	0	488	34	
4	0	0	0	0	488	36	
5	0	0	0	0	488	34	
6	0	0	0	0	488	33	
7	0	0	0	0	488	34	
8	0	0	0	0	489	35	
9	0	0	0	0	489	35	
10	0	0	0	0	490	33	
11	0	0	0	0	491	34	
12	0	0	0	0	492	35	
13	0	0	0	0	493	35	
14	0	0	0	0	493	33	
15	0	0	0	0	493	35	
0	0	0	0	0	493	34	
1	0	0	0	0	494	36	
2	0	0	0	0	494	34	
3	0	0	0	0	494	34	
4	0	0	0	0	494	35	
5	0	0	0	0	494	35	
6	0	0	0	0	495	33	
7	0	0	0	0	495	35	
8	0	0	0	0	496	35	
9	0	0	0	0	496	35	
10	0	0	0	0	498	34	
11	0	0	0	0	499	35	
12	0	0	0	0	500	35	
13	0	0	0	0	501	35	
14	0	0	0	0	501	33	
15	0	0	0	0	500	34	
0	0	0	0	0	500	34	
1	0	0	0	0	500	36	
2	0	0	0	0	500	34	
3	0	0	0	0	499	33	
4	0	0	0	0	500	34	
5	0	0	0	0	500	36	
6	0	0	0	0	500	35	
7	0	0	0	0	500	33	
8	0	0	0	0	500	35	
9	0	0	0	0	501	35	
10	0	0	0	0	502	35	
11	0	0	0	0	502	35	
12	0	0	0	0	503	36	
13	0	0	0	0	504	34	
14	0	0	0	0	505	34	
15	0	0	0	0	505	35	
0	0	0	0	0	505	33	
1	0	0	0	0	506	34	
2	0	0	0	0	505	36	
3	0	0	0	0	506	33	
4	0	0	0	0	505	34	
5	0	0	0	0	505	35	
6	0	0	0	0	504	33	
7	0	0	0	0	504	34	
8	0	0	0	0	504	35	
9	0	0	0	0	504	34	
10	0	0	0	0	505	35	
11	0	0	0	0	506	34	
12	0	0	0	0	507	33	
13	0	0	0	0	507	35	
14	0	0	0	0	508	35	
15	0	0	0	0	508	33	
0	0	0	0	0	509	35	
1	0	0	0	0	509	34	
2	0	0	0	0	508	33	
3	0	0	0	0	508	35	
4	0	0	0	0	508	34	
5	0	0	0	0	509	33	
6	0	0	0	0	509	34	
7	0	0	0	0	509	35	
8	0	0	0	0	509	33	
9	0	0	0	0	510	34	
10	0	0	0	0	509	36	
11	0	0	0	0	510	34	
12	0	0	0	0	511	34	
13	0	0	0	0	512	35	
14	0	0	0	0	512	33	
15	0	0	0	0	512	35	
0	0	0	0	0	512	35	
1	0	0	0	0	512	33	
2	0	0	0	0	511	34	
3	0	0	0	0	511	36	
4	0	0	0	0	511	34	
5	0	0	0	0	512	34	
6	0	0	0	0	512	34	
7	0	0	0	0	512	35	
8	0	0	0	0	513	34	
9	0	0	0	0	513	33	
10	0	0	0	0	514	35	
11	0	0	0	0	514	35	
12	0	0	0	0	515	34	
13	0	0	0	0	516	35	
14	0	0	0	0	516	35	
15	0	0	0	0	516	34	
0	0	0	0	0	516	34	
1	0	0	0	0	516	35	
2	0	0	0	0	515	35	
3	0	0	0	0	516	34	
4	0	0	0	0	515	33	
5	0	0	0	0	515	34	
6	0	0	0	0	515	36	
7	0	0	0	0	516	34	
8	0	0	0	0	517	35	
9	0	0	0	0	518	36	
10	0	0	0	0	519	34	
11	0	0	0	0	518	35	
12	0	0	0	0	519	35	
13	0	0	0	0	520	34	
14	0	0	0	0	521	34	
15	0	0	0	0	522	35	
0	0	0	0	0	522	34	
1	0	0	0	0	522	33	
2	0	0	0	0	523	34	
3	0	0	0	0	523	36	
4	0	0	0	0	523	34	
5	0	0	0	0	523	33	
6	0	0	0	0	523	34	
7	0	0	0	0	524	36	
8	0	0	0	0	526	34	
9	0	0	0	0	526	34	
10	0	0	0	0	526	36	
11	0	0	0	0	527	33	
12	0	0	0	0	528	35	
13	0	0	0	0	527	35	
14	0	0	0	0	528	36	
15	0	0	0	0	528	34	
0	0	0	0	0	529	33	
1	0	0	0	0	530	34	
2	0	0	0	0	530	35	
3	0	0	0	0	531	35	
4	0	0	0	0	532	33	
5	0	0	0	0	532	35	
6	0	0	0	0	532	36	
7	0	0	0	0	533	34	
8	0	0	0	0	535	35	
9	0	0	0	0	535	35	
10	0	0	0	0	535	35	
11	0	0	0	0	536	34	
12	0	0	0	0	535	34	
13	0	0	0	0	536	34	
14	0	0	0	0	537	36	
15	0	0	0	0	537	34	
0	0	0	0	0	539	33	
1	0	0	0	0	540	35	
2	0	0	0	0	541	34	
3	0	0	0	0	542	33	
4	0	0	0	0	543	34	
5	0	0	0	0	543	36	
6	0	0	0	0	543	35	
7	0	0	0	0	543	33	
8	0	0	0	0	544	34	
9	0	0	0	0	544	35	
10	0	0	0	0	545	34	
11	0	0	0	0	545	33	
12	0	0	0	0	546	34	
13	0	0	0	0	546	35	
14	0	0	0	0	545	34	
15	0	0	0	0	547	33	
0	0	0	0	0	548	34	
1	0	0	0	0	550	36	
2	0	0	0	0	550	34	
3	0	0	0	0	550	33	
4	0	0	0	0	550	35	
5	0	0	0	0	551	35	
6	0	0	0	0	551	33	
7	0	0	0	0	551	34	
8	0	0	0	0	552	35	
9	0	0	0	0	552	36	
10	0	0	0	0	553	34	
11	0	0	0	0	553	34	
12	0	0	0	0	554	35	
13	0	0	0	0	554	35	
14	0	0	0	0	554	33	
15	0	0	0	0	554	34	
0	0	0	0	0	555	36	
1	0	0	0	0	555	34	
2	0	0	0	0	555	33	
3	0	0	0	0	555	34	
4	0	0	0	0	555	36	
5	0	0	0	0	556	34	
6	0	0	0	0	555	33	
7	0	0	0	0	555	34	
8	0	0	0	0	556	36	
9	0	0	0	0	555	34	
10	0	0	0	0	556	34	
11	0	0	0	0	556	35	
12	0	0	0	0	556	36	
13	0	0	0	0	556	34	
14	0	0	0	0	556	35	
15	0	0	0	0	556	36	
0	0	0	0	0	556	34	
1	0	0	0	0	556	34	
2	0	0	0	0	555	35	
3	0	0	0	0	555	34	
4	0	0	0	0	554	33	
5	0	0	0	0	553	34	
6	0	0	0	0	551	36	
7	0	0	0	0	551	34	
8	0	0	0	0	550	33	
9	0	0	0	0	549	34	
10	0	0	0	0	548	35	
11	0	0	0	0	547	35	
12	0	0	0	0	547	33	
13	0	0	0	0	547	34	
14	0	0	0	0	545	36	
15	0	0	0	0	545	34	
0	0	0	0	0	544	35	
1	0	0	0	0	544	35	
2	0	0	0	0	543	35	
3	0	0	0	0	542	33	
4	0	0	0	0	541	34	
5	0	0	0	0	539	36	
6	0	0	0	0	537	34	
7	0	0	0	0	535	33	
8	0	0	0	0	534	34	
9	0	0	0	0	532	35	
10	0	0	0	0	531	33	
11	0	0	0	0	529	35	
12	0	0	0	0	527	35	
13	0	0	0	0	526	34	
14	0	0	0	0	523	33	
15	0	0	0	0	520	34	
0	0	0	0	0	519	35	
1	0	0	0	0	517	33	
2	0	0	0	0	514	35	
3	0	0	0	0	512	35	
4	0	0	0	0	510	33	
5	0	0	0	0	507	34	
6	0	0	0	0	505	36	
7	0	0	0	0	504	34	
8	0	0	0	0	501	35	
9	0	0	0	0	498	35	
10	0	0	0	0	497	35	
11	0	0	0	0	495	33	
12	0	0	0	0	492	34	
13	0	0	0	0	489	35	
14	0	0	0	0	487	34	
15	0	0	0	0	486	34	
0	0	0	0	0	484	35	
1	0	0	0	0	483	35	
2	0	0	0	0	481	34	
3	0	0	0	0	479	35	
4	0	0	0	0	477	35	
5	0	0	0	0	475	35	
6	0	0	0	0	474	34	
7	0	0	0	0	471	35	
8	0	0	0	0	468	35	
9	0	0	0	0	466	34	
10	0	0	0	0	464	34	
11	0	0	0	0	464	35	
12	0	0	0	0	463	35	
13	0	0	0	0	463	33	
14	0	0	0	0	462	34	
15	0	0	0	0	461	36	
0	0	0	0	0	460	33	
1	0	0	0	0	460	35	
2	0	0	0	0	459	35	
3	0	0	0	0	459	34	
4	0	0	0	0	459	34	
5	0	0	0	0	460	34	
6	0	0	0	0	459	36	
7	0	0	0	0	459	34	
8	0	0	0	0	458	35	
9	0	0	0	0	458	36	
10	0	0	0	0	457	33	
11	0	0	0	0	456	34	
12	0	0	0	0	456	35	
13	0	0	0	0	456	34	
14	0	0	0	0	456	35	
15	0	0	0	0	456	35	
0	0	0	0	0	456	34	
1	0	0	0	0	456	35	
2	0	0	0	0	456	35	
3	0	0	0	0	455	35	
4	0	0	0	0	456	33	
5	0	0	0	0	456	34	
6	0	0	0	0	457	34	
7	0	0	0	0	457	34	
8	0	0	0	0	457	35	
9	0	0	0	0	457	34	
10	0	0	0	0	457	34	
11	0	0	0	0	458	35	
12	0	0	0	0	459	34	
13	0	0	0	0	460	35	
14	0	0	0	0	460	35	
15	0	0	0	0	460	33	
0	0	0	0	0	461	34	
1	0	0	0	0	462	36	
2	0	0	0	0	462	34	
3	0	0	0	0	463	35	
4	0	0	0	0	463	35	
5	0	0	0	0	463	35	
6	0	0	0	0	464	33	
7	0	0	0	0	464	34	
8	0	0	0	0	465	35	
9	0	0	0	0	464	34	
10	0	0	0	0	465	33	
11	0	0	0	0	466	34	
12	0	0	0	0	467	35	
13	0	0	0	0	467	33	
14	0	0	0	0	467	34	
15	0	0	0	0	468	35	
0	0	0	0	0	470	33	
1	0	0	0	0	470	35	
2	0	0	0	0	470	34	
3	0	0	0	0	471	34	
4	0	0	0	0	471	34	
5	0	0	0	0	472	36	
6	0	0	0	0	473	34	
7	0	0	0	0	473	34	
8	0	0	0	0	474	35	
9	0	0	0	0	474	35	
10	0	0	0	0	475	33	
11	0	0	0	0	475	34	
12	0	0	0	0	476	35	
13	0	0	0	0	477	34	
14	0	0	0	0	477	33	
15	0	0	0	0	478	34	
0	0	0	0	0	479	35	
1	0	0	0	0	480	35	
2	0	0	0	0	480	33	
3	0	0	0	0	481	34	
4	0	0	0	0	481	35	
5	0	0	0	0	481	34	
6	0	0	0	0	481	35	
7	0	0	0	0	481	35	
8	0	0	0	0	481	35	
9	0	0	0	0	482	34	
10	0	0	0	0	483	35	
11	0	0	0	0	483	35	
12	0	0	0	0	483	35	
13	0	0	0	0	482	33	
14	0	0	0	0	481	34	
15	0	0	0	0	481	36	
0	0	0	0	0	482	34	
1	0	0	0	0	483	33	
2	0	0	0	0	483	34	
3	0	0	0	0	484	36	
4	0	0	0	0	484	34	
5	0	0	0	0	484	33	
6	0	0	0	0	485	34	
7	0	0	0	0	486	36	
8	0	0	0	0	486	34	
9	0	0	0	0	486	35	
10	0	0	0	0	486	35	
11	0	0	0	0	487	35	
12	0	0	0	0	487	33	
13	0	0	0	0	487	34	
14	0	0	0	0	487	35	
15	0	0	0	0	488	35	
0	0	0	0	0	488	33	
1	0	0	0	0	488	34	
2	0	0	0	0	488	36	
3	0	0	0	0	488	34	
4	0	0	0	0	489	34	
5	0	0	0	0	489	34	
6	0	0	0	0	489	36	
7	0	0	0	0	489	35	
8	0	0	0	0	489	33	
9	0	0	0	0	489	34	
10	0	0	0	0	489	35	
11	0	0	0	0	489	35	
12	0	0	0	0	491	33	
13	0	0	0	0	491	34	
14	0	0	0	0	492	35	
15	0	0	0	0	492	35	
0	0	0	0	0	492	33	
1	0	0	0	0	493	35	
2	0	0	0	0	494	35	
3	0	0	0	0	494	35	
4	0	0	0	0	495	34	
5	0	0	0	0	495	34	
6	0	0	0	0	496	36	
7	0	0	0	0	496	34	
8	0	0	0	0	496	34	
9	0	0	0	0	496	34	
10	0	0	0	0	496	35	
11	0	0	0	0	496	33	
12	0	0	0	0	496	34	
13	0	0	0	0	496	36	
14	0	0	0	0	496	34	
15	0	0	0	0	496	33	
0	0	0	0	0	496	34	
1	0	0	0	0	496	36	
2	0	0	0	0	496	34	
3	0	0	0	0	496	35	
4	0	0	0	0	497	35	
5	0	0	0	0	498	35	
6	0	0	0	0	499	33	
7	0	0	0	0	499	34	
8	0	0	0	0	500	35	
9	0	0	0	0	501	34	
10	0	0	0	0	502	33	
11	0	0	0	0	502	34	
12	0	0	0	0	503	35	
13	0	0	0	0	503	35	
14	0	0	0	0	503	33	
15	0	0	0	0	504	34	
0	0	0	0	0	503	35	
1	0	0	0	0	502	35	
2	0	0	0	0	502	33	
3	0	0	0	0	501	34	
4	0	0	0	0	500	35	
5	0	0	0	0	500	35	
6	0	0	0	0	501	33	
7	0	0	0	0	503	35	
8	0	0	0	0	504	35	
9	0	0	0	0	505	35	
10	0	0	0	0	506	33	
11	0	0	0	0	507	34	
12	0	0	0	0	508	35	
13	0	0	0	0	508	35	
14	0	0	0	0	508	33	
15	0	0	0	0	508	35	
0	0	0	0	0	508	35	
1	0	0	0	0	507	35	
2	0	0	0	0	505	33	
3	0	0	0	0	504	35	
4	0	0	0	0	504	35	
5	0	0	0	0	503	35	
6	0	0	0	0	503	33	
7	0	0	0	0	504	34	
8	0	0	0	0	505	35	
9	0	0	0	0	506	34	
10	0	0	0	0	507	35	
11	0	0	0	0	507	36	
12	0	0	0	0	508	34	
13	0	0	0	0	509	35	
14	0	0	0	0	509	35	
15	0	0	0	0	509	35	
0	0	0	0	0	508	33	
1	0	0	0	0	508	34	
2	0	0	0	0	508	36	
3	0	0	0	0	508	34	
4	0	0	0	0	508	35	
5	0	0	0	0	507	35	
6	0	0	0	0	507	35	
7	0	0	0	0	508	33	
8	0	0	0	0	508	35	
9	0	0	0	0	508	36	
10	0	0	0	0	508	34	
11	0	0	0	0	508	34	
12	0	0	0	0	508	35	
13	0	0	0	0	508	35	
14	0	0	0	0	508	33	
15	0	0	0	0	508	35	
0	0	0	0	0	508	34	
1	0	0	0	0	509	34	
2	0	0	0	0	508	34	
3	0	0	0	0	508	35	
4	0	0	0	0	508	33	
5	0	0	0	0	509	34	
6	0	0	0	0	509	36	
7	0	0	0	0	509	35	
8	0	0	0	0	509	33	
9	0	0	0	0	508	34	
10	0	0	0	0	508	36	
11	0	0	0	0	508	34	
12	0	0	0	0	508	34	
13	0	0	0	0	508	35	
14	0	0	0	0	508	35	
15	0	0	0	0	508	33	
0	0	0	0	0	508	35	
1	0	0	0	0	508	35	
2	0	0	0	0	509	35	
3	0	0	0	0	509	33	
4	0	0	0	0	509	34	
5	0	0	0	0	510	35	
6	0	0	0	0	510	34	
7	0	0	0	0	510	33	
8	0	0	0	0	510	34	
9	0	0	0	0	509	36	
10	0	0	0	0	509	34	
11	0	0	0	0	509	34	
12	0	0	0	0	509	35	
13	0	0	0	0	508	35	
14	0	0	0	0	507	33	
15	0	0	0	0	508	35	
0	0	0	0	0	507	35	
1	0	0	0	0	507	35	
2	0	0	0	0	506	34	
3	0	0	0	0	507	34	
4	0	0	0	0	509	35	
5	0	0	0	0	509	35	
6	0	0	0	0	509	33	
7	0	0	0	0	509	35	
8	0	0	0	0	509	36	
9	0	0	0	0	509	33	
10	0	0	0	0	508	34	
11	0	0	0	0	508	35	
12	0	0	0	0	508	35	
13	0	0	0	0	508	33	
14	0	0	0	0	509	34	
15	0	0	0	0	510	35	
0	0	0	0	0	510	35	
1	0	0	0	0	509	33	
2	0	0	0	0	509	35	
3	0	0	0	0	509	35	
4	0	0	0	0	509	35	
5	0	0	0	0	509	33	
6	0	0	0	0	510	35	
7	0	0	0	0	509	35	
8	0	0	0	0	510	35	
9	0	0	0	0	509	33	
10	0	0	0	0	508	35	
11	0	0	0	0	509	35	
12	0	0	0	0	509	34	
13	0	0	0	0	508	35	
14	0	0	0	0	508	35	
15	0	0	0	0	508	35	
0	0	0	0	0	508	33	
1	0	0	0	0	508	35	
2	0	0	0	0	509	35	
3	0	0	0	0	508	36	
4	0	0	0	0	509	33	
5	0	0	0	0	510	34	
6	0	0	0	0	509	34	
7	0	0	0	0	510	36	
8	0	0	0	0	510	35	
9	0	0	0	0	511	33	
10	0	0	0	0	511	34	
11	0	0	0	0	512	36	
12	0	0	0	0	512	34	
13	0	0	0	0	511	34	
14	0	0	0	0	510	34	
15	0	0	0	0	511	35	
0	0	0	0	0	510	35	
1	0	0	0	0	510	33	
2	0	0	0	0	509	35	
3	0	0	0	0	508	35	
4	0	0	0	0	508	36	
5	0	0	0	0	507	34	
6	0	0	0	0	507	33	
7	0	0	0	0	507	34	
8	0	0	0	0	506	36	
9	0	0	0	0	507	34	
10	0	0	0	0	506	35	
11	0	0	0	0	506	36	
12	0	0	0	0	506	35	
13	0	0	0	0	506	33	
14	0	0	0	0	505	34	
15	0	0	0	0	506	35	
0	0	0	0	0	507	35	
1	0	0	0	0	507	34	
2	0	0	0	0	508	35	
3	0	0	0	0	508	35	
4	0	0	0	0	508	35	
5	0	0	0	0	509	33	
6	0	0	0	0	508	34	
7	0	0	0	0	509	36	
8	0	0	0	0	510	35	
9	0	0	0	0	510	33	
10	0	0	0	0	510	34	
11	0	0	0	0	510	36	
12	0	0	0	0	510	34	
13	0	0	0	0	510	34	
14	0	0	0	0	510	34	
15	0	0	0	0	510	35	
0	0	0	0	0	510	34	
1	0	0	0	0	511	34	
2	0	0	0	0	511	34	
3	0	0	0	0	510	36	
4	0	0	0	0	510	34	
5	0	0	0	0	510	34	
6	0	0	0	0	510	35	
7	0	0	0	0	509	35	
8	0	0	0	0	509	34	
9	0	0	0	0	509	35	
10	0	0	0	0	509	35	
11	0	0	0	0	509	35	
12	0	0	0	0	508	33	
13	0	0	0	0	508	34	
14	0	0	0	0	508	36	
15	0	0	0	0	508	34	
0	0	0	0	0	508	34	
1	0	0	0	0	508	35	
2	0	0	0	0	508	35	
3	0	0	0	0	509	34	
4	0	0	0	0	509	34	
5	0	0	0	0	509	36	
6	0	0	0	0	509	34	
7	0	0	0	0	510	34	
8	0	0	0	0	510	35	
9	0	0	0	0	509	36	
10	0	0	0	0	509	35	
11	0	0	0	0	508	33	
12	0	0	0	0	508	34	
13	0	0	0	0	509	35	
14	0	0	0	0	509	35	
15	0	0	0	0	509	33	
0	0	0	0	0	509	35	
1	0	0	0	0	510	35	
2	0	0	0	0	510	34	
3	0	0	0	0	510	35	
4	0	0	0	0	511	35	
5	0	0	0	0	510	34	
6	0	0	0	0	510	35	
7	0	0	0	0	510	35	
8	0	0	0	0	510	35	
9	0	0	0	0	510	33	
10	0	0	0	0	510	34	
11	0	0	0	0	509	35	
12	0	0	0	0	509	34	
13	0	0	0	0	509	34	
14	0	0	0	0	509	35	
15	0	0	0	0	509	35	
0	0	0	0	0	508	33	
1	0	0	0	0	509	35	
2	0	0	0	0	508	35	
3	0	0	0	0	509	34	
4	0	0	0	0	509	34	
5	0	0	0	0	510	36	
6	0	0	0	0	510	34	
7	0	0	0	0	510	35	
8	0	0	0	0	509	36	
9	0	0	0	0	510	34	
10	0	0	0	0	510	33	
11	0	0	0	0	510	34	
12	0	0	0	0	510	36	
13	0	0	0	0	510	34	
14	0	0	0	0	509	34	
15	0	0	0	0	509	36	
0	0	0	0	0	508	34	
1	0	0	0	0	508	34	
2	0	0	0	0	510	34	
3	0	0	0	0	510	35	
4	0	0	0	0	510	33	
5	0	0	0	0	510	35	
6	0	0	0	0	509	36	
7	0	0	0	0	509	35	
8	0	0	0	0	508	33	
9	0	0	0	0	508	34	
10	0	0	0	0	507	36	
11	0	0	0	0	507	34	
12	0	0	0	0	507	33	
13	0	0	0	0	507	35	
14	0	0	0	0	507	35	
15	0	0	0	0	507	33	
0	0	0	0	0	507	35	
1	0	0	0	0	507	35	
2	0	0	0	0	507	34	
3	0	0	0	0	506	35	
4	0	0	0	0	506	35	
5	0	0	0	0	505	35	
6	0	0	0	0	505	33	
7	0	0	0	0	506	34	
8	0	0	0	0	505	36	
9	0	0	0	0	506	34	
10	0	0	0	0	506	35	
11	0	0	0	0	506	35	
12	0	0	0	0	507	35	
13	0	0	0	0	508	34	
14	0	0	0	0	507	35	
15	0	0	0	0	506	35	
0	0	0	0	0	507	36	
1	0	0	0	0	507	34	
2	0	0	0	0	506	34	
3	0	0	0	0	507	34	
4	0	0	0	0	508	35	
5	0	0	0	0	508	33	
6	0	0	0	0	507	35	
7	0	0	0	0	507	35	
8	0	0	0	0	507	33	
9	0	0	0	0	507	35	
10	0	0	0	0	507	35	
11	0	0	0	0	507	35	
12	0	0	0	0	507	33	
13	0	0	0	0	507	34	
14	0	0	0	0	506	35	
15	0	0	0	0	507	33	
0	0	0	0	0	507	34	
1	0	0	0	0	508	36	
2	0	0	0	0	509	34	
3	0	0	0	0	509	35	
4	0	0	0	0	508	35	
5	0	0	0	0	509	34	
6	0	0	0	0	510	34	
7	0	0	0	0	509	35	
8	0	0	0	0	508	35	
9	0	0	0	0	508	33	
10	0	0	0	0	507	34	
11	0	0	0	0	507	36	
12	0	0	0	0	508	34	
13	0	0	0	0	507	34	
14	0	0	0	0	507	35	
15	0	0	0	0	507	35	
0	0	0	0	0	507	34	
1	0	0	0	0	508	35	
2	0	0	0	0	507	35	
3	0	0	0	0	508	35	
4	0	0	0	0	508	33	
5	0	0	0	0	508	35	
6	0	0	0	0	509	36	
7	0	0	0	0	509	33	
8	0	0	0	0	509	34	
9	0	0	0	0	509	36	
10	0	0	0	0	509	34	
11	0	0	0	0	509	34	
12	0	0	0	0	509	35	
13	0	0	0	0	509	35	
14	0	0	0	0	510	33	
15	0	0	0	0	509	35	
0	0	0	0	0	508	35	
1	0	0	0	0	509	35	
2	0	0	0	0	510	33	
3	0	0	0	0	510	34	
4	0	0	0	0	510	35	
5	0	0	0	0	511	33	
6	0	0	0	0	511	35	
7	0	0	0	0	511	35	
8	0	0	0	0	511	35	
9	0	0	0	0	511	33	
10	0	0	0	0	512	34	
11	0	0	0	0	511	35	
12	0	0	0	0	511	35	
13	0	0	0	0	511	33	
14	0	0	0	0	510	35	
15	0	0	0	0	510	35	
0	0	0	0	0	509	34	
1	0	0	0	0	510	35	
2	0	0	0	0	509	36	
3	0	0	0	0	508	34	
4	0	0	0	0	509	33	
5	0	0	0	0	510	35	
6	0	0	0	0	510	35	
7	0	0	0	0	511	34	
8	0	0	0	0	511	35	
9	0	0	0	0	511	35	
10	0	0	0	0	511	34	
11	0	0	0	0	511	35	
12	0	0	0	0	511	35	
13	0	0	0	0	510	35	
14	0	0	0	0	509	33	
15	0	0	0	0	510	35	
0	0	0	0	0	510	36	
1	0	0	0	0	510	34	
2	0	0	0	0	511	35	
3	0	0	0	0	511	35	
4	0	0	0	0	511	34	
5	0	0	0	0	512	35	
6	0	0	0	0	511	35	
7	0	0	0	0	511	35	
8	0	0	0	0	511	33	
9	0	0	0	0	512	34	
10	0	0	0	0	511	36	
11	0	0	0	0	510	34	
12	0	0	0	0	510	34	
13	0	0	0	0	510	35	
14	0	0	0	0	510	36	
15	0	0	0	0	510	33	
0	0	0	0	0	510	34	
1	0	0	0	0	509	36	
2	0	0	0	0	510	35	
3	0	0	0	0	509	33	
4	0	0	0	0	509	34	
5	0	0	0	0	509	36	
6	0	0	0	0	509	34	
7	0	0	0	0	510	34	
8	0	0	0	0	511	35	
9	0	0	0	0	512	35	
10	0	0	0	0	512	33	
11	0	0	0	0	512	35	
12	0	0	0	0	512	35	
13	0	0	0	0	512	35	
14	0	0	0	0	511	34	
15	0	0	0	0	511	34	
0	0	0	0	0	511	35	
1	0	0	0	0	511	34	
2	0	0	0	0	510	34	
3	0	0	0	0	510	34	
4	0	0	0	0	510	35	
5	0	0	0	0	509	34	
6	0	0	0	0	509	34	
7	0	0	0	0	509	35	
8	0	0	0	0	510	35	
9	0	0	0	0	510	33	
10	0	0	0	0	511	34	
11	0	0	0	0	510	35	
12	0	0	0	0	510	35	
13	0	0	0	0	508	33	
14	0	0	0	0	509	34	
15	0	0	0	0	509	36	
0	0	0	0	0	509	34	
1	0	0	0	0	508	35	
2	0	0	0	0	508	35	
3	0	0	0	0	508	35	
4	0	0	0	0	507	34	
5	0	0	0	0	507	35	
6	0	0	0	0	508	35	
7	0	0	0	0	508	34	
8	0	0	0	0	508	34	
9	0	0	0	0	508	35	
10	0	0	0	0	509	35	
11	0	0	0	0	509	33	
12	0	0	0	0	509	34	
13	0	0	0	0	509	36	
14	0	0	0	0	510	34	
15	0	0	0	0	510	33	
0	0	0	0	0	510	34	
1	0	0	0	0	510	36	
2	0	0	0	0	510	34	
3	0	0	0	0	511	34	
4	0	0	0	0	512	35	
5	0	0	0	0	511	36	
6	0	0	0	0	512	34	
7	0	0	0	0	512	35	
8	0	0	0	0	512	34	
9	0	0	0	0	512	36	
10	0	0	0	0	512	35	
11	0	0	0	0	513	33	
12	0	0	0	0	513	35	
13	0	0	0	0	513	35	
14	0	0	0	0	513	33	
15	0	0	0	0	513	35	
0	0	0	0	0	513	35	
1	0	0	0	0	514	34	
2	0	0	0	0	514	35	
3	0	0	0	0	514	36	
4	0	0	0	0	514	34	
5	0	0	0	0	513	33	
6	0	0	0	0	513	35	
7	0	0	0	0	513	36	
8	0	0	0	0	513	33	
9	0	0	0	0	513	35	
10	0	0	0	0	512	35	
11	0	0	0	0	512	35	
12	0	0	0	0	512	33	
13	0	0	0	0	512	34	
14	0	0	0	0	512	36	
15	0	0	0	0	512	35	
0	0	0	0	0	512	33	
1	0	0	0	0	512	35	
2	0	0	0	0	512	36	
3	0	0	0	0	513	35	
4	0	0	0	0	514	33	
5	0	0	0	0	513	34	
6	0	0	0	0	512	36	
7	0	0	0	0	512	33	
8	0	0	0	0	512	34	
9	0	0	0	0	512	36	
10	0	0	0	0	512	34	
11	0	0	0	0	512	34	
12	0	0	0	0	512	35	
13	0	0	0	0	512	35	
14	0	0	0	0	512	34	
15	0	0	0	0	512	35	
0	0	0	0	0	511	35	
1	0	0	0	0	511	36	
2	0	0	0	0	511	33	
3	0	0	0	0	511	34	
4	0	0	0	0	511	35	
5	0	0	0	0	511	33	
6	0	0	0	0	511	35	
7	0	0	0	0	511	35	
8	0	0	0	0	511	34	
9	0	0	0	0	511	35	
10	0	0	0	0	511	36	
11	0	0	0	0	512	35	
12	0	0	0	0	513	33	
13	0	0	0	0	514	34	
14	0	0	0	0	514	36	
15	0	0	0	0	514	35	
0	0	0	0	0	515	33	
1	0	0	0	0	516	34	
2	0	0	0	0	516	36	
3	0	0	0	0	516	34	
4	0	0	0	0	516	33	
5	0	0	0	0	517	35	
6	0	0	0	0	518	35	
7	0	0	0	0	518	33	
8	0	0	0	0	517	35	
9	0	0	0	0	516	36	
10	0	0	0	0	517	35	
11	0	0	0	0	517	33	
12	0	0	0	0	518	35	
13	0	0	0	0	519	35	
14	0	0	0	0	519	35	
15	0	0	0	0	519	33	
0	0	0	0	0	519	35	
1	0	0	0	0	519	36	
2	0	0	0	0	519	35	
3	0	0	0	0	519	33	
4	0	0	0	0	519	34	
5	0	0	0	0	519	36	
6	0	0	0	0	519	34	
7	0	0	0	0	519	35	
8	0	0	0	0	520	36	
9	0	0	0	0	521	35	
10	0	0	0	0	523	33	
11	0	0	0	0	523	34	
12	0	0	0	0	524	35	
13	0	0	0	0	525	35	
14	0	0	0	0	527	33	
15	0	0	0	0	527	35	
0	0	0	0	0	527	35	
1	0	0	0	0	527	35	
2	0	0	0	0	527	33	
3	0	0	0	0	527	35	
4	0	0	0	0	527	35	
5	0	0	0	0	526	35	
6	0	0	0	0	524	33	
7	0	0	0	0	522	35	
8	0	0	0	0	521	35	
9	0	0	0	0	520	33	
10	0	0	0	0	519	35	
11	0	0	0	0	517	35	
12	0	0	0	0	516	34	
13	0	0	0	0	516	35	
14	0	0	0	0	516	35	
15	0	0	0	0	516	35	
0	0	0	0	0	517	34	
1	0	0	0	0	517	35	
2	0	0	0	0	518	35	
3	0	0	0	0	519	35	
4	0	0	0	0	519	33	
5	0	0	0	0	520	34	
6	0	0	0	0	521	36	
7	0	0	0	0	521	35	
8	0	0	0	0	520	35	
9	0	0	0	0	520	35	
10	0	0	0	0	520	34	
11	0	0	0	0	519	35	
12	0	0	0	0	519	35	
13	0	0	0	0	518	35	
14	0	0	0	0	519	33	
15	0	0	0	0	519	35	
0	0	0	0	0	517	36	
1	0	0	0	0	517	34	
2	0	0	0	0	516	34	
3	0	0	0	0	515	35	
4	0	0	0	0	514	35	
5	0	0	0	0	513	33	
6	0	0	0	0	513	35	
7	0	0	0	0	512	36	
8	0	0	0	0	511	34	
9	0	0	0	0	511	35	
10	0	0	0	0	510	35	
11	0	0	0	0	511	35	
12	0	0	0	0	511	33	
13	0	0	0	0	512	35	
14	0	0	0	0	512	35	
15	0	0	0	0	512	34	
0	0	0	0	0	512	35	
1	0	0	0	0	511	35	
2	0	0	0	0	511	35	
3	0	0	0	0	512	33	
4	0	0	0	0	512	35	
5	0	0	0	0	512	36	
6	0	0	0	0	513	34	
7	0	0	0	0	513	35	
8	0	0	0	0	511	35	
9	0	0	0	0	511	35	
10	0	0	0	0	511	33	
11	0	0	0	0	511	35	
12	0	0	0	0	512	35	
13	0	0	0	0	512	34	
14	0	0	0	0	512	35	
15	0	0	0	0	512	36	
0	0	0	0	0	512	34	
1	0	0	0	0	512	34	
2	0	0	0	0	512	35	
3	0	0	0	0	512	35	
4	0	0	0	0	513	33	
5	0	0	0	0	514	35	
6	0	0	0	0	513	36	
7	0	0	0	0	513	35	
8	0	0	0	0	513	33	
9	0	0	0	0	513	35	
10	0	0	0	0	512	36	
11	0	0	0	0	513	34	
12	0	0	0	0	513	35	
13	0	0	0	0	512	36	
14	0	0	0	0	512	35	
15	0	0	0	0	512	33	
0	0	0	0	0	512	35	
1	0	0	0	0	512	36	
2	0	0	0	0	511	34	
3	0	0	0	0	511	35	
4	0	0	0	0	511	35	
5	0	0	0	0	511	33	
6	0	0	0	0	511	34	
7	0	0	0	0	511	36	
8	0	0	0	0	511	34	
9	0	0	0	0	511	35	
10	0	0	0	0	511	36	
11	0	0	0	0	511	33	
12	0	0	0	0	510	35	
13	0	0	0	0	510	36	
14	0	0	0	0	510	34	
15	0	0	0	0	511	35	
0	0	0	0	0	511	35	
1	0	0	0	0	511	35	
2	0	0	0	0	513	34	
3	0	0	0	0	513	35	
4	0	0	0	0	513	35	
5	0	0	0	0	514	35	
6	0	0	0	0	514	34	
7	0	0	0	0	515	35	
8	0	0	0	0	515	35	
9	0	0	0	0	516	36	
10	0	0	0	0	517	35	
11	0	0	0	0	519	34	
12	0	0	0	0	523	35	
13	0	0	0	0	527	35	
14	0	0	0	0	533	33	
15	0	0	0	0	540	35	
0	0	0	0	0	548	36	
1	0	0	0	0	557	35	
2	0	0	0	0	567	33	
3	0	0	0	0	576	35	
4	0	0	0	0	587	36	
5	0	0	0	0	596	34	
6	0	0	0	0	606	35	
7	0	0	0	0	615	35	
8	0	0	0	0	622	33	
9	0	0	0	0	627	35	
10	0	0	0	0	631	35	
11	0	0	0	0	635	35	
12	0	0	0	0	636	33	
13	0	0	0	0	637	35	
14	0	0	0	0	638	36	
15	0	0	0	0	636	34	
0	0	0	0	0	635	34	
1	0	0	0	0	632	35	
2	0	0	0	0	628	36	
3	0	0	0	0	623	34	
4	0	0	0	0	616	33	
5	0	0	0	0	609	35	
6	0	0	0	0	600	35	
7	0	0	0	0	591	33	
8	0	0	0	0	583	35	
9	0	0	0	0	575	35	
10	0	0	0	0	568	35	
11	0	0	0	0	561	33	
12	0	0	0	0	552	35	
13	0	0	0	0	543	36	
14	0	0	0	0	532	35	
15	0	0	0	0	521	33	
0	0	0	0	0	510	35	
1	0	0	0	0	499	36	
2	0	0	0	0	489	35	
3	0	0	0	0	480	33	
4	0	0	0	0	472	35	
5	0	0	0	0	466	35	
6	0	0	0	0	461	33	
7	0	0	0	0	456	35	
8	0	0	0	0	452	36	
9	0	0	0	0	449	35	
10	0	0	0	0	447	33	
11	0	0	0	0	445	35	
12	0	0	0	0	444	35	
13	0	0	0	0	443	35	
14	0	0	0	0	443	34	
15	0	0	0	0	443	35	
0	0	0	0	0	443	35	
1	0	0	0	0	444	35	
2	0	0	0	0	445	33	
3	0	0	0	0	447	34	
4	0	0	0	0	449	35	
5	0	0	0	0	451	33	
6	0	0	0	0	453	35	
7	0	0	0	0	455	35	
8	0	0	0	0	457	35	
9	0	0	0	0	460	33	
10	0	0	0	0	463	35	
11	0	0	0	0	465	35	
12	0	0	0	0	466	35	
13	0	0	0	0	467	34	
14	0	0	0	0	468	35	
15	0	0	0	0	468	35	
0	0	0	0	0	469	35	
1	0	0	0	0	470	33	
2	0	0	0	0	470	35	
3	0	0	0	0	471	35	
4	0	0	0	0	471	33	
5	0	0	0	0	472	35	
6	0	0	0	0	472	36	
7	0	0	0	0	472	35	
8	0	0	0	0	472	34	
9	0	0	0	0	473	35	
10	0	0	0	0	473	36	
11	0	0	0	0	474	34	
12	0	0	0	0	474	35	
13	0	0	0	0	474	35	
14	0	0	0	0	474	35	
15	0	0	0	0	475	33	
0	0	0	0	0	476	35	
1	0	0	0	0	477	36	
2	0	0	0	0	478	34	
3	0	0	0	0	478	35	
4	0	0	0	0	478	35	
5	0	0	0	0	480	36	
6	0	0	0	0	480	34	
7	0	0	0	0	480	35	
8	0	0	0	0	481	35	
9	0	0	0	0	481	35	
10	0	0	0	0	481	34	
11	0	0	0	0	483	35	
12	0	0	0	0	483	36	
13	0	0	0	0	483	34	
14	0	0	0	0	484	35	
15	0	0	0	0	484	36	
0	0	0	0	0	485	35	
1	0	0	0	0	485	33	
2	0	0	0	0	484	35	
3	0	0	0	0	485	36	
4	0	0	0	0	486	35	
5	0	0	0	0	486	33	
6	0	0	0	0	486	34	
7	0	0	0	0	487	36	
8	0	0	0	0	487	35	
9	0	0	0	0	487	33	
10	0	0	0	0	487	35	
11	0	0	0	0	488	35	
12	0	0	0	0	488	34	
13	0	0	0	0	490	35	
14	0	0	0	0	491	35	
15	0	0	0	0	492	35	
0	0	0	0	0	492	34	
1	0	0	0	0	492	35	
2	0	0	0	0	494	35	
3	0	0	0	0	494	36	
4	0	0	0	0	495	34	
5	0	0	0	0	494	34	
6	0	0	0	0	495	35	
7	0	0	0	0	494	35	
8	0	0	0	0	494	34	
9	0	0	0	0	495	35	
10	0	0	0	0	495	35	
11	0	0	0	0	495	35	
12	0	0	0	0	495	34	
13	0	0	0	0	496	36	
14	0	0	0	0	496	33	
15	0	0	0	0	498	35	
0	0	0	0	0	498	35	
1	0	0	0	0	499	33	
2	0	0	0	0	499	35	
3	0	0	0	0	500	35	
4	0	0	0	0	502	35	
5	0	0	0	0	502	36	
6	0	0	0	0	503	33	
7	0	0	0	0	503	35	
8	0	0	0	0	504	35	
9	0	0	0	0	504	34	
10	0	0	0	0	505	36	
11	0	0	0	0	505	34	
12	0	0	0	0	505	35	
13	0	0	0	0	505	36	
14	0	0	0	0	506	33	
15	0	0	0	0	506	35	
0	0	0	0	0	507	35	
1	0	0	0	0	507	35	
2	0	0	0	0	507	36	
3	0	0	0	0	507	33	
4	0	0	0	0	506	36	
5	0	0	0	0	506	34	
6	0	0	0	0	506	35	
7	0	0	0	0	506	36	
8	0	0	0	0	506	33	
9	0	0	0	0	506	35	
10	0	0	0	0	507	35	
11	0	0	0	0	507	35	
12	0	0	0	0	507	36	
13	0	0	0	0	508	33	
14	0	0	0	0	508	35	
15	0	0	0	0	509	35	
0	0	0	0	0	510	33	
1	0	0	0	0	510	35	
2	0	0	0	0	510	35	
3	0	0	0	0	510	35	
4	0	0	0	0	510	36	
5	0	0	0	0	511	34	
6	0	0	0	0	511	35	
7	0	0	0	0	511	36	
8	0	0	0	0	511	34	
9	0	0	0	0	512	35	
10	0	0	0	0	512	35	
11	0	0	0	0	513	35	
12	0	0	0	0	513	36	
13	0	0	0	0	513	34	
14	0	0	0	0	514	35	
15	0	0	0	0	515	35	
0	0	0	0	0	515	34	
1	0	0	0	0	514	35	
2	0	0	0	0	514	35	
3	0	0	0	0	514	34	
4	0	0	0	0	514	35	
5	0	0	0	0	515	35	
6	0	0	0	0	515	34	
7	0	0	0	0	515	36	
8	0	0	0	0	516	35	
9	0	0	0	0	517	35	
10	0	0	0	0	518	35	
11	0	0	0	0	518	33	
12	0	0	0	0	519	35	
13	0	0	0	0	520	35	
14	0	0	0	0	520	33	
15	0	0	0	0	521	35	
0	0	0	0	0	521	35	
1	0	0	0	0	521	34	
2	0	0	0	0	522	36	
3	0	0	0	0	521	34	
4	0	0	0	0	523	35	
5	0	0	0	0	523	36	
6	0	0	0	0	524	34	
7	0	0	0	0	524	35	
8	0	0	0	0	524	36	
9	0	0	0	0	525	34	
10	0	0	0	0	527	35	
11	0	0	0	0	527	35	
12	0	0	0	0	529	35	
13	0	0	0	0	529	33	
14	0	0	0	0	530	35	
15	0	0	0	0	530	35	
0	0	0	0	0	529	35	
1	0	0	0	0	529	33	
2	0	0	0	0	529	35	
3	0	0	0	0	529	36	
4	0	0	0	0	530	34	
5	0	0	0	0	530	34	
6	0	0	0	0	530	35	
7	0	0	0	0	529	36	
8	0	0	0	0	529	34	
9	0	0	0	0	529	35	
10	0	0	0	0	530	35	
11	0	0	0	0	531	35	
12	0	0	0	0	532	33	
13	0	0	0	0	532	35	
14	0	0	0	0	532	35	
15	0	0	0	0	533	35	
0	0	0	0	0	533	33	
1	0	0	0	0	533	35	
2	0	0	0	0	534	36	
3	0	0	0	0	534	35	
4	0	0	0	0	535	33	
5	0	0	0	0	536	35	
6	0	0	0	0	537	36	
7	0	0	0	0	538	35	
8	0	0	0	0	538	33	
9	0	0	0	0	540	35	
10	0	0	0	0	540	36	
11	0	0	0	0	541	35	
12	0	0	0	0	543	33	
13	0	0	0	0	543	35	
14	0	0	0	0	543	36	
15	0	0	0	0	544	34	
0	0	0	0	0	545	33	
1	0	0	0	0	546	35	
2	0	0	0	0	546	35	
3	0	0	0	0	547	33	
4	0	0	0	0	548	35	
5	0	0	0	0	547	36	
6	0	0	0	0	548	35	
7	0	0	0	0	549	33	
8	0	0	0	0	549	35	
9	0	0	0	0	549	35	
10	0	0	0	0	550	33	
11	0	0	0	0	551	35	
12	0	0	0	0	551	36	
13	0	0	0	0	552	35	
14	0	0	0	0	553	34	
15	0	0	0	0	554	35	
0	0	0	0	0	555	35	
1	0	0	0	0	555	34	
2	0	0	0	0	556	35	
3	0	0	0	0	558	36	
4	0	0	0	0	557	34	
5	0	0	0	0	558	35	
6	0	0	0	0	557	36	
7	0	0	0	0	557	35	
8	0	0	0	0	557	34	
9	0	0	0	0	557	35	
10	0	0	0	0	559	36	
11	0	0	0	0	560	34	
12	0	0	0	0	560	35	
13	0	0	0	0	561	35	
14	0	0	0	0	560	35	
15	0	0	0	0	560	34	
0	0	0	0	0	561	35	
1	0	0	0	0	561	36	
2	0	0	0	0	563	35	
3	0	0	0	0	563	34	
4	0	0	0	0	563	35	
5	0	0	0	0	563	36	
6	0	0	0	0	563	35	
7	0	0	0	0	563	34	
8	0	0	0	0	563	35	
9	0	0	0	0	564	36	
10	0	0	0	0	564	35	
11	0	0	0	0	564	33	
12	0	0	0	0	564	35	
13	0	0	0	0	563	36	
14	0	0	0	0	563	35	
15	0	0	0	0	563	33	
0	0	0	0	0	562	35	
1	0	0	0	0	562	36	
2	0	0	0	0	561	33	
3	0	0	0	0	562	35	
4	0	0	0	0	561	35	
5	0	0	0	0	561	35	
6	0	0	0	0	560	34	
7	0	0	0	0	559	34	
8	0	0	0	0	558	35	
9	0	0	0	0	557	36	
10	0	0	0	0	556	35	
11	0	0	0	0	557	33	
12	0	0	0	0	556	35	
13	0	0	0	0	555	35	
14	0	0	0	0	554	35	
15	0	0	0	0	553	33	
0	0	0	0	0	551	35	
1	0	0	0	0	551	36	
2	0	0	0	0	549	35	
3	0	0	0	0	548	33	
4	0	0	0	0	547	35	
5	0	0	0	0	544	35	
6	0	0	0	0	542	35	
7	0	0	0	0	540	33	
8	0	0	0	0	538	35	
9	0	0	0	0	535	36	
10	0	0	0	0	532	35	
11	0	0	0	0	530	33	
12	0	0	0	0	528	35	
13	0	0	0	0	526	36	
14	0	0	0	0	524	35	
15	0	0	0	0	522	33	
0	0	0	0	0	519	35	
1	0	0	0	0	518	36	
2	0	0	0	0	516	35	
3	0	0	0	0	514	33	
4	0	0	0	0	512	35	
5	0	0	0	0	511	35	
6	0	0	0	0	509	35	
7	0	0	0	0	507	33	
8	0	0	0	0	504	35	
9	0	0	0	0	503	35	
10	0	0	0	0	501	35	
11	0	0	0	0	499	33	
12	0	0	0	0	498	35	
13	0	0	0	0	496	36	
14	0	0	0	0	494	34	
15	0	0	0	0	493	35	
0	0	0	0	0	492	35	
1	0	0	0	0	489	35	
2	0	0	0	0	487	33	
3	0	0	0	0	486	35	
4	0	0	0	0	484	36	
5	0	0	0	0	482	35	
6	0	0	0	0	480	33	
7	0	0	0	0	479	35	
8	0	0	0	0	478	36	
9	0	0	0	0	476	35	
10	0	0	0	0	475	33	
11	0	0	0	0	474	35	
12	0	0	0	0	473	36	
13	0	0	0	0	472	35	
14	0	0	0	0	471	33	
15	0	0	0	0	471	35	
0	0	0	0	0	471	35	
1	0	0	0	0	472	35	
2	0	0	0	0	472	34	
3	0	0	0	0	472	35	
4	0	0	0	0	472	35	
5	0	0	0	0	472	35	
6	0	0	0	0	471	35	
7	0	0	0	0	471	35	
8	0	0	0	0	470	35	
9	0	0	0	0	470	34	
10	0	0	0	0	469	35	
11	0	0	0	0	469	35	
12	0	0	0	0	470	35	
13	0	0	0	0	470	33	
14	0	0	0	0	471	35	
15	0	0	0	0	471	35	
0	0	0	0	0	471	34	
1	0	0	0	0	471	35	
2	0	0	0	0	472	35	
3	0	0	0	0	472	35	
4	0	0	0	0	473	33	
5	0	0	0	0	473	35	
6	0	0	0	0	473	35	
7	0	0	0	0	473	35	
8	0	0	0	0	474	35	
9	0	0	0	0	474	34	
10	0	0	0	0	473	35	
11	0	0	0	0	473	35	
12	0	0	0	0	474	34	
13	0	0	0	0	474	35	
14	0	0	0	0	475	36	
15	0	0	0	0	475	34	
0	0	0	0	0	476	34	
1	0	0	0	0	476	35	
2	0	0	0	0	477	36	
3	0	0	0	0	477	35	
4	0	0	0	0	478	33	
5	0	0	0	0	479	35	
6	0	0	0	0	480	36	
7	0	0	0	0	480	34	
8	0	0	0	0	480	35	
9	0	0	0	0	480	36	
10	0	0	0	0	480	35	
11	0	0	0	0	481	33	
12	0	0	0	0	482	35	
13	0	0	0	0	481	36	
14	0	0	0	0	481	35	
15	0	0	0	0	481	34	
0	0	0	0	0	483	35	
1	0	0	0	0	483	35	
2	0	0	0	0	484	33	
3	0	0	0	0	485	35	
4	0	0	0	0	486	36	
5	0	0	0	0	487	35	
6	0	0	0	0	487	34	
7	0	0	0	0	488	35	
8	0	0	0	0	488	35	
9	0	0	0	0	490	34	
10	0	0	0	0	491	35	
11	0	0	0	0	492	35	
12	0	0	0	0	492	33	
13	0	0	0	0	492	35	
14	0	0	0	0	493	36	
15	0	0	0	0	492	35	
0	0	0	0	0	492	33	
1	0	0	0	0	492	35	
2	0	0	0	0	493	36	
3	0	0	0	0	493	35	
4	0	0	0	0	492	33	
5	0	0	0	0	492	35	
6	0	0	0	0	492	36	
7	0	0	0	0	492	35	
8	0	0	0	0	492	34	
9	0	0	0	0	492	36	
10	0	0	0	0	492	35	
11	0	0	0	0	492	33	
12	0	0	0	0	492	35	
13	0	0	0	0	494	36	
14	0	0	0	0	495	35	
15	0	0	0	0	497	34	
0	0	0	0	0	498	35	
1	0	0	0	0	498	36	
2	0	0	0	0	499	34	
3	0	0	0	0	500	35	
4	0	0	0	0	501	35	
5	0	0	0	0	500	36	
6	0	0	0	0	501	34	
7	0	0	0	0	500	35	
8	0	0	0	0	501	36	
9	0	0	0	0	501	35	
10	0	0	0	0	500	33	
11	0	0	0	0	500	35	
12	0	0	0	0	501	35	
13	0	0	0	0	501	34	
14	0	0	0	0	502	35	
15	0	0	0	0	502	36	
0	0	0	0	0	503	33	
1	0	0	0	0	504	35	
2	0	0	0	0	505	36	
3	0	0	0	0	505	33	
4	0	0	0	0	504	35	
5	0	0	0	0	505	36	
6	0	0	0	0	505	35	
7	0	0	0	0	505	34	
8	0	0	0	0	506	35	
9	0	0	0	0	507	36	
10	0	0	0	0	506	33	
11	0	0	0	0	505	35	
12	0	0	0	0	505	36	
13	0	0	0	0	506	35	
14	0	0	0	0	507	33	
15	0	0	0	0	507	35	
0	0	0	0	0	508	35	
1	0	0	0	0	508	33	
2	0	0	0	0	508	35	
3	0	0	0	0	507	36	
4	0	0	0	0	507	35	
5	0	0	0	0	507	34	
6	0	0	0	0	508	35	
7	0	0	0	0	508	36	
8	0	0	0	0	509	35	
9	0	0	0	0	510	35	
10	0	0	0	0	510	35	
11	0	0	0	0	511	35	
12	0	0	0	0	511	34	
13	0	0	0	0	511	35	
14	0	0	0	0	512	35	
15	0	0	0	0	512	34	
0	0	0	0	0	513	35	
1	0	0	0	0	513	36	
2	0	0	0	0	514	35	
3	0	0	0	0	514	33	
4	0	0	0	0	514	35	
5	0	0	0	0	514	36	
6	0	0	0	0	515	34	
7	0	0	0	0	515	35	
8	0	0	0	0	515	36	
9	0	0	0	0	515	35	
10	0	0	0	0	515	34	
11	0	0	0	0	515	35	
12	0	0	0	0	515	36	
13	0	0	0	0	515	34	
14	0	0	0	0	514	35	
15	0	0	0	0	513	35	
0	0	0	0	0	513	35	
1	0	0	0	0	513	34	
2	0	0	0	0	513	35	
3	0	0	0	0	512	35	
4	0	0	0	0	512	36	
5	0	0	0	0	512	35	
6	0	0	0	0	512	35	
7	0	0	0	0	513	35	
8	0	0	0	0	513	35	
9	0	0	0	0	512	33	
10	0	0	0	0	514	35	
11	0	0	0	0	515	35	
12	0	0	0	0	515	35	
13	0	0	0	0	515	33	
14	0	0	0	0	515	35	
15	0	0	0	0	514	36	
0	0	0	0	0	513	35	
1	0	0	0	0	513	33	
2	0	0	0	0	513	35	
3	0	0	0	0	514	36	
4	0	0	0	0	514	35	
5	0	0	0	0	514	33	
6	0	0	0	0	514	35	
7	0	0	0	0	515	36	
8	0	0	0	0	515	35	
9	0	0	0	0	516	33	
10	0	0	0	0	515	35	
11	0	0	0	0	515	36	
12	0	0	0	0	515	33	
13	0	0	0	0	514	35	
14	0	0	0	0	515	36	
15	0	0	0	0	515	34	
0	0	0	0	0	515	35	
1	0	0	0	0	514	35	
2	0	0	0	0	514	35	
3	0	0	0	0	515	34	
4	0	0	0	0	514	35	
5	0	0	0	0	514	35	
6	0	0	0	0	514	33	
7	0	0	0	0	515	35	
8	0	0	0	0	516	35	
9	0	0	0	0	515	35	
10	0	0	0	0	515	33	
11	0	0	0	0	515	35	
12	0	0	0	0	515	36	
13	0	0	0	0	515	35	
14	0	0	0	0	515	33	
15	0	0	0	0	516	35	
0	0	0	0	0	516	36	
1	0	0	0	0	516	35	
2	0	0	0	0	517	34	
3	0	0	0	0	516	35	
4	0	0	0	0	517	35	
5	0	0	0	0	516	33	
6	0	0	0	0	515	35	
7	0	0	0	0	514	36	
8	0	0	0	0	514	35	
9	0	0	0	0	514	34	
10	0	0	0	0	514	35	
11	0	0	0	0	514	36	
12	0	0	0	0	514	34	
13	0	0	0	0	513	35	
14	0	0	0	0	512	35	
15	0	0	0	0	512	36	
0	0	0	0	0	512	35	
1	0	0	0	0	512	35	
2	0	0	0	0	512	35	
3	0	0	0	0	512	35	
4	0	0	0	0	512	33	
5	0	0	0	0	513	35	
6	0	0	0	0	513	35	
7	0	0	0	0	513	33	
8	0	0	0	0	512	35	
9	0	0	0	0	512	35	
10	0	0	0	0	512	34	
11	0	0	0	0	512	35	
12	0	0	0	0	512	35	
13	0	0	0	0	511	35	
14	0	0	0	0	511	33	
15	0	0	0	0	512	35	
0	0	0	0	0	513	36	
1	0	0	0	0	513	35	
2	0	0	0	0	513	33	
3	0	0	0	0	512	35	
4	0	0	0	0	511	35	
5	0	0	0	0	511	35	
6	0	0	0	0	511	34	
7	0	0	0	0	512	35	
8	0	0	0	0	511	35	
9	0	0	0	0	511	35	
10	0	0	0	0	510	34	
11	0	0	0	0	510	35	
12	0	0	0	0	510	36	
13	0	0	0	0	510	35	
14	0	0	0	0	510	33	
15	0	0	0	0	510	35	
0	0	0	0	0	510	36	
1	0	0	0	0	511	35	
2	0	0	0	0	511	33	
3	0	0	0	0	511	35	
4	0	0	0	0	512	36	
5	0	0	0	0	511	35	
6	0	0	0	0	511	34	
7	0	0	0	0	511	35	
8	0	0	0	0	511	35	
9	0	0	0	0	512	33	
10	0	0	0	0	513	35	
11	0	0	0	0	512	36	
12	0	0	0	0	512	34	
13	0	0	0	0	511	34	
14	0	0	0	0	511	35	
15	0	0	0	0	511	36	
0	0	0	0	0	511	35	
1	0	0	0	0	512	35	
2	0	0	0	0	512	35	
3	0	0	0	0	513	36	
4	0	0	0	0	514	34	
5	0	0	0	0	515	35	
6	0	0	0	0	515	36	
7	0	0	0	0	515	35	
8	0	0	0	0	514	33	
9	0	0	0	0	513	35	
10	0	0	0	0	512	36	
11	0	0	0	0	511	34	
12	0	0	0	0	511	35	
13	0	0	0	0	511	35	
14	0	0	0	0	511	36	
15	0	0	0	0	510	34	
0	0	0	0	0	511	35	
1	0	0	0	0	511	35	
2	0	0	0	0	512	35	
3	0	0	0	0	511	33	
4	0	0	0	0	511	35	
5	0	0	0	0	511	36	
6	0	0	0	0	511	35	
7	0	0	0	0	513	35	
8	0	0	0	0	514	36	
9	0	0	0	0	513	34	
10	0	0	0	0	513	35	
11	0	0	0	0	512	36	
12	0	0	0	0	512	35	
13	0	0	0	0	512	34	
14	0	0	0	0	512	35	
15	0	0	0	0	512	35	
0	0	0	0	0	511	33	
1	0	0	0	0	511	35	
2	0	0	0	0	510	36	
3	0	0	0	0	510	33	
4	0	0	0	0	510	35	
5	0	0	0	0	508	36	
6	0	0	0	0	510	34	
7	0	0	0	0	510	35	
8	0	0	0	0	510	36	
9	0	0	0	0	510	35	
10	0	0	0	0	510	33	
11	0	0	0	0	511	35	
12	0	0	0	0	512	36	
13	0	0	0	0	512	35	
14	0	0	0	0	512	34	
15	0	0	0	0	511	35	
0	0	0	0	0	512	36	
1	0	0	0	0	512	34	
2	0	0	0	0	511	35	
3	0	0	0	0	511	36	
4	0	0	0	0	511	33	
5	0	0	0	0	511	35	
6	0	0	0	0	511	36	
7	0	0	0	0	511	34	
8	0	0	0	0	512	35	
9	0	0	0	0	512	36	
10	0	0	0	0	512	35	
11	0	0	0	0	512	34	
12	0	0	0	0	513	35	
13	0	0	0	0	513	35	
14	0	0	0	0	512	34	
15	0	0	0	0	512	35	
0	0	0	0	0	511	35	
1	0	0	0	0	511	34	
2	0	0	0	0	510	35	
3	0	0	0	0	511	36	
4	0	0	0	0	511	35	
5	0	0	0	0	511	34	
6	0	0	0	0	511	35	
7	0	0	0	0	510	36	
8	0	0	0	0	510	34	
9	0	0	0	0	510	35	
10	0	0	0	0	508	36	
11	0	0	0	0	508	35	
12	0	0	0	0	508	34	
13	0	0	0	0	508	35	
14	0	0	0	0	508	36	
15	0	0	0	0	508	35	
0	0	0	0	0	508	34	
1	0	0	0	0	507	35	
2	0	0	0	0	506	35	
3	0	0	0	0	506	33	
4	0	0	0	0	505	35	
5	0	0	0	0	504	35	
6	0	0	0	0	502	35	
7	0	0	0	0	502	34	
8	0	0	0	0	502	35	
9	0	0	0	0	502	35	
10	0	0	0	0	502	35	
11	0	0	0	0	503	33	
12	0	0	0	0	502	35	
13	0	0	0	0	502	36	
14	0	0	0	0	501	35	
15	0	0	0	0	501	34	
0	0	0	0	0	500	35	
1	0	0	0	0	501	35	
2	0	0	0	0	501	35	
3	0	0	0	0	501	34	
4	0	0	0	0	501	35	
5	0	0	0	0	500	35	
6	0	0	0	0	499	36	
7	0	0	0	0	497	34	
8	0	0	0	0	495	35	
9	0	0	0	0	494	35	
10	0	0	0	0	492	35	
11	0	0	0	0	491	34	
12	0	0	0	0	490	35	
13	0	0	0	0	491	36	
14	0	0	0	0	491	35	
15	0	0	0	0	491	33	
0	0	0	0	0	489	35	
1	0	0	0	0	490	36	
2	0	0	0	0	489	35	
3	0	0	0	0	487	35	
4	0	0	0	0	487	36	
5	0	0	0	0	488	35	
6	0	0	0	0	487	33	
7	0	0	0	0	487	35	
8	0	0	0	0	486	36	
9	0	0	0	0	484	35	
10	0	0	0	0	484	33	
11	0	0	0	0	484	35	
12	0	0	0	0	484	36	
13	0	0	0	0	483	35	
14	0	0	0	0	483	35	
15	0	0	0	0	482	36	
0	0	0	0	0	481	34	
1	0	0	0	0	481	35	
2	0	0	0	0	480	35	
3	0	0	0	0	479	36	
4	0	0	0	0	479	34	
5	0	0	0	0	480	35	
6	0	0	0	0	480	35	
7	0	0	0	0	480	36	
8	0	0	0	0	480	34	
9	0	0	0	0	481	35	
10	0	0	0	0	482	35	
11	0	0	0	0	482	36	
12	0	0	0	0	481	35	
13	0	0	0	0	480	34	
14	0	0	0	0	480	36	
15	0	0	0	0	480	35	
0	0	0	0	0	479	34	
1	0	0	0	0	479	35	
2	0	0	0	0	480	35	
3	0	0	0	0	480	33	
4	0	0	0	0	481	35	
5	0	0	0	0	481	36	
6	0	0	0	0	479	35	
7	0	0	0	0	478	34	
8	0	0	0	0	476	35	
9	0	0	0	0	476	36	
10	0	0	0	0	476	34	
11	0	0	0	0	476	35	
12	0	0	0	0	477	36	
13	0	0	0	0	477	35	
14	0	0	0	0	479	35	
15	0	0	0	0	480	36	
0	0	0	0	0	481	33	
1	0	0	0	0	483	35	
2	0	0	0	0	483	36	
3	0	0	0	0	484	34	
4	0	0	0	0	483	35	
5	0	0	0	0	482	35	
6	0	0	0	0	482	35	
7	0	0	0	0	482	34	
8	0	0	0	0	483	35	
9	0	0	0	0	482	36	
10	0	0	0	0	481	35	
11	0	0	0	0	482	35	
12	0	0	0	0	483	35	
13	0	0	0	0	483	35	
14	0	0	0	0	484	33	
15	0	0	0	0	485	35	
0	0	0	0	0	487	35	
1	0	0	0	0	488	33	
2	0	0	0	0	488	35	
3	0	0	0	0	488	36	
4	0	0	0	0	487	35	
5	0	0	0	0	488	35	
6	0	0	0	0	487	35	
7	0	0	0	0	487	35	
8	0	0	0	0	487	33	
9	0	0	0	0	486	35	
10	0	0	0	0	485	36	
11	0	0	0	0	482	35	
12	0	0	0	0	483	35	
13	0	0	0	0	485	36	
14	0	0	0	0	486	35	
15	0	0	0	0	485	33	
0	0	0	0	0	485	35	
1	0	0	0	0	486	36	
2	0	0	0	0	486	34	
3	0	0	0	0	487	35	
4	0	0	0	0	488	36	
5	0	0	0	0	488	35	
6	0	0	0	0	489	34	
7	0	0	0	0	489	35	
8	0	0	0	0	488	35	
9	0	0	0	0	489	33	
10	0	0	0	0	488	35	
11	0	0	0	0	487	36	
12	0	0	0	0	487	35	
13	0	0	0	0	488	34	
14	0	0	0	0	488	36	
15	0	0	0	0	488	34	
0	0	0	0	0	487	35	
1	0	0	0	0	487	35	
2	0	0	0	0	487	35	
3	0	0	0	0	487	34	
4	0	0	0	0	487	35	
5	0	0	0	0	487	36	
6	0	0	0	0	487	35	
7	0	0	0	0	488	33	
8	0	0	0	0	490	35	
9	0	0	0	0	489	36	
10	0	0	0	0	489	35	
11	0	0	0	0	489	35	
12	0	0	0	0	489	36	
13	0	0	0	0	489	35	
14	0	0	0	0	487	35	
15	0	0	0	0	487	35	
0	0	0	0	0	487	35	
1	0	0	0	0	487	33	
