# OpenSignals Text File Format. Version 1
# {"98:D3:B1:FD:3D:90": {"position": 0, "device": "bitalino_rev", "device name": "98:D3:B1:FD:3D:90", "device connection": "BTH98:D3:B1:FD:3D:90", "sampling rate": 1000, "resolution": [4, 1, 1, 1, 1, 10, 10], "firmware version": 1281, "comments": "", "keywords": "", "mode": 0, "sync interval": 2, "date": "2022-3-10", "time": "18:7:58.536", "channels": [2, 3], "sensor": ["ECGBIT", "EDABITREV"], "label": ["A2", "A3"], "column": ["nSeq", "I1", "I2", "O1", "O2", "A2", "A3"], "special": [{}, {}], "digital IO": [0, 0, 1, 1]}}
# EndOfHeader
0	0	0	0	0	636	130	
1	0	0	0	0	642	129	
2	0	0	0	0	647	130	
3	0	0	0	0	652	128	
4	0	0	0	0	656	130	
5	0	0	0	0	659	130	
6	0	0	0	0	662	129	
7	0	0	0	0	663	130	
8	0	0	0	0	664	129	
9	0	0	0	0	662	130	
10	0	0	0	0	659	129	
11	0	0	0	0	654	130	
12	0	0	0	0	648	130	
13	0	0	0	0	641	128	
14	0	0	0	0	633	130	
15	0	0	0	0	624	129	
0	0	0	0	0	617	130	
1	0	0	0	0	610	130	
2	0	0	0	0	603	129	
3	0	0	0	0	594	130	
4	0	0	0	0	584	129	
5	0	0	0	0	574	130	
6	0	0	0	0	563	130	
7	0	0	0	0	552	129	
8	0	0	0	0	540	130	
9	0	0	0	0	528	130	
10	0	0	0	0	518	129	
11	0	0	0	0	508	130	
12	0	0	0	0	500	129	
13	0	0	0	0	493	130	
14	0	0	0	0	486	130	
15	0	0	0	0	480	130	
0	0	0	0	0	475	130	
1	0	0	0	0	472	129	
2	0	0	0	0	469	130	
3	0	0	0	0	467	130	
4	0	0	0	0	466	130	
5	0	0	0	0	465	130	
6	0	0	0	0	464	130	
7	0	0	0	0	465	130	
8	0	0	0	0	465	131	
9	0	0	0	0	467	130	
10	0	0	0	0	469	130	
11	0	0	0	0	472	130	
12	0	0	0	0	473	129	
13	0	0	0	0	475	130	
14	0	0	0	0	479	131	
15	0	0	0	0	481	129	
0	0	0	0	0	483	131	
1	0	0	0	0	485	129	
2	0	0	0	0	487	130	
3	0	0	0	0	488	130	
4	0	0	0	0	490	130	
5	0	0	0	0	491	130	
6	0	0	0	0	491	130	
7	0	0	0	0	492	129	
8	0	0	0	0	492	130	
9	0	0	0	0	492	130	
10	0	0	0	0	492	130	
11	0	0	0	0	492	130	
12	0	0	0	0	492	129	
13	0	0	0	0	493	129	
14	0	0	0	0	494	130	
15	0	0	0	0	494	129	
0	0	0	0	0	493	130	
1	0	0	0	0	493	130	
2	0	0	0	0	493	130	
3	0	0	0	0	492	131	
4	0	0	0	0	492	129	
5	0	0	0	0	492	130	
6	0	0	0	0	491	131	
7	0	0	0	0	492	129	
8	0	0	0	0	492	130	
9	0	0	0	0	493	129	
10	0	0	0	0	493	130	
11	0	0	0	0	493	130	
12	0	0	0	0	493	129	
13	0	0	0	0	493	130	
14	0	0	0	0	493	130	
15	0	0	0	0	493	129	
0	0	0	0	0	494	130	
1	0	0	0	0	494	130	
2	0	0	0	0	495	129	
3	0	0	0	0	495	130	
4	0	0	0	0	494	129	
5	0	0	0	0	494	130	
6	0	0	0	0	495	130	
7	0	0	0	0	494	129	
8	0	0	0	0	494	130	
9	0	0	0	0	494	131	
10	0	0	0	0	494	129	
11	0	0	0	0	493	130	
12	0	0	0	0	493	130	
13	0	0	0	0	492	129	
14	0	0	0	0	491	130	
15	0	0	0	0	492	129	
0	0	0	0	0	493	130	
1	0	0	0	0	494	130	
2	0	0	0	0	495	129	
3	0	0	0	0	496	130	
4	0	0	0	0	497	131	
5	0	0	0	0	497	129	
6	0	0	0	0	497	130	
7	0	0	0	0	497	129	
8	0	0	0	0	497	130	
9	0	0	0	0	498	129	
10	0	0	0	0	499	129	
11	0	0	0	0	499	130	
12	0	0	0	0	500	129	
13	0	0	0	0	500	130	
14	0	0	0	0	500	129	
15	0	0	0	0	500	130	
0	0	0	0	0	500	130	
1	0	0	0	0	500	129	
2	0	0	0	0	500	130	
3	0	0	0	0	501	130	
4	0	0	0	0	502	129	
5	0	0	0	0	503	130	
6	0	0	0	0	503	130	
7	0	0	0	0	503	129	
8	0	0	0	0	504	130	
9	0	0	0	0	505	129	
10	0	0	0	0	505	130	
11	0	0	0	0	504	130	
12	0	0	0	0	504	129	
13	0	0	0	0	504	130	
14	0	0	0	0	504	130	
15	0	0	0	0	503	129	
0	0	0	0	0	504	130	
1	0	0	0	0	504	129	
2	0	0	0	0	504	130	
3	0	0	0	0	505	130	
4	0	0	0	0	505	129	
5	0	0	0	0	505	130	
6	0	0	0	0	506	129	
7	0	0	0	0	505	129	
8	0	0	0	0	506	130	
9	0	0	0	0	507	129	
10	0	0	0	0	508	130	
11	0	0	0	0	509	130	
12	0	0	0	0	510	129	
13	0	0	0	0	511	130	
14	0	0	0	0	511	130	
15	0	0	0	0	511	129	
0	0	0	0	0	511	130	
1	0	0	0	0	512	129	
2	0	0	0	0	512	130	
3	0	0	0	0	512	130	
4	0	0	0	0	512	129	
5	0	0	0	0	512	130	
6	0	0	0	0	513	129	
7	0	0	0	0	514	130	
8	0	0	0	0	515	130	
9	0	0	0	0	515	129	
10	0	0	0	0	515	130	
11	0	0	0	0	516	130	
12	0	0	0	0	516	129	
13	0	0	0	0	516	130	
14	0	0	0	0	516	130	
15	0	0	0	0	516	129	
0	0	0	0	0	516	130	
1	0	0	0	0	517	129	
2	0	0	0	0	516	130	
3	0	0	0	0	517	129	
4	0	0	0	0	517	129	
5	0	0	0	0	518	130	
6	0	0	0	0	518	129	
7	0	0	0	0	519	130	
8	0	0	0	0	519	129	
9	0	0	0	0	519	129	
10	0	0	0	0	519	130	
11	0	0	0	0	519	129	
12	0	0	0	0	519	129	
13	0	0	0	0	519	130	
14	0	0	0	0	519	129	
15	0	0	0	0	519	130	
0	0	0	0	0	519	129	
1	0	0	0	0	520	129	
2	0	0	0	0	520	130	
3	0	0	0	0	520	129	
4	0	0	0	0	520	129	
5	0	0	0	0	521	130	
6	0	0	0	0	521	129	
7	0	0	0	0	522	130	
8	0	0	0	0	522	130	
9	0	0	0	0	522	129	
10	0	0	0	0	523	130	
11	0	0	0	0	522	129	
12	0	0	0	0	523	130	
13	0	0	0	0	524	129	
14	0	0	0	0	524	129	
15	0	0	0	0	525	130	
0	0	0	0	0	525	129	
1	0	0	0	0	525	130	
2	0	0	0	0	526	129	
3	0	0	0	0	526	129	
4	0	0	0	0	525	130	
5	0	0	0	0	525	130	
6	0	0	0	0	525	129	
7	0	0	0	0	525	130	
8	0	0	0	0	525	129	
9	0	0	0	0	525	129	
10	0	0	0	0	525	130	
11	0	0	0	0	524	129	
12	0	0	0	0	525	130	
13	0	0	0	0	525	130	
14	0	0	0	0	524	129	
15	0	0	0	0	524	130	
0	0	0	0	0	524	129	
1	0	0	0	0	523	130	
2	0	0	0	0	524	130	
3	0	0	0	0	524	129	
4	0	0	0	0	526	130	
5	0	0	0	0	527	130	
6	0	0	0	0	527	129	
7	0	0	0	0	527	130	
8	0	0	0	0	527	128	
9	0	0	0	0	527	130	
10	0	0	0	0	527	130	
11	0	0	0	0	527	129	
12	0	0	0	0	527	130	
13	0	0	0	0	528	130	
14	0	0	0	0	528	129	
15	0	0	0	0	529	130	
0	0	0	0	0	529	129	
1	0	0	0	0	531	130	
2	0	0	0	0	532	129	
3	0	0	0	0	532	129	
4	0	0	0	0	532	130	
5	0	0	0	0	532	128	
6	0	0	0	0	532	130	
7	0	0	0	0	532	130	
8	0	0	0	0	532	129	
9	0	0	0	0	532	130	
10	0	0	0	0	531	130	
11	0	0	0	0	532	129	
12	0	0	0	0	532	130	
13	0	0	0	0	533	130	
14	0	0	0	0	534	129	
15	0	0	0	0	535	130	
0	0	0	0	0	536	129	
1	0	0	0	0	536	130	
2	0	0	0	0	536	130	
3	0	0	0	0	537	129	
4	0	0	0	0	537	130	
5	0	0	0	0	538	129	
6	0	0	0	0	538	129	
7	0	0	0	0	538	130	
8	0	0	0	0	539	129	
9	0	0	0	0	539	129	
10	0	0	0	0	540	130	
11	0	0	0	0	540	128	
12	0	0	0	0	540	130	
13	0	0	0	0	540	130	
14	0	0	0	0	540	129	
15	0	0	0	0	542	130	
0	0	0	0	0	542	128	
1	0	0	0	0	543	130	
2	0	0	0	0	542	130	
3	0	0	0	0	542	128	
4	0	0	0	0	542	129	
5	0	0	0	0	543	130	
6	0	0	0	0	543	129	
7	0	0	0	0	543	129	
8	0	0	0	0	542	129	
9	0	0	0	0	542	130	
10	0	0	0	0	542	129	
11	0	0	0	0	543	129	
12	0	0	0	0	544	130	
13	0	0	0	0	545	128	
14	0	0	0	0	545	130	
15	0	0	0	0	545	130	
0	0	0	0	0	544	128	
1	0	0	0	0	544	130	
2	0	0	0	0	544	129	
3	0	0	0	0	545	129	
4	0	0	0	0	544	130	
5	0	0	0	0	544	129	
6	0	0	0	0	543	129	
7	0	0	0	0	544	128	
8	0	0	0	0	544	129	
9	0	0	0	0	544	130	
10	0	0	0	0	543	128	
11	0	0	0	0	544	129	
12	0	0	0	0	544	130	
13	0	0	0	0	544	128	
14	0	0	0	0	543	129	
15	0	0	0	0	543	130	
0	0	0	0	0	543	130	
1	0	0	0	0	542	128	
2	0	0	0	0	541	129	
3	0	0	0	0	540	130	
4	0	0	0	0	540	128	
5	0	0	0	0	539	129	
6	0	0	0	0	537	129	
7	0	0	0	0	537	129	
8	0	0	0	0	536	130	
9	0	0	0	0	536	129	
10	0	0	0	0	535	130	
11	0	0	0	0	534	128	
12	0	0	0	0	533	129	
13	0	0	0	0	533	130	
14	0	0	0	0	531	128	
15	0	0	0	0	530	129	
0	0	0	0	0	529	130	
1	0	0	0	0	528	129	
2	0	0	0	0	526	129	
3	0	0	0	0	524	130	
4	0	0	0	0	522	130	
5	0	0	0	0	519	128	
6	0	0	0	0	518	130	
7	0	0	0	0	516	130	
8	0	0	0	0	514	129	
9	0	0	0	0	513	130	
10	0	0	0	0	511	128	
11	0	0	0	0	509	130	
12	0	0	0	0	506	130	
13	0	0	0	0	504	129	
14	0	0	0	0	503	130	
15	0	0	0	0	501	129	
0	0	0	0	0	499	130	
1	0	0	0	0	497	129	
2	0	0	0	0	494	130	
3	0	0	0	0	492	130	
4	0	0	0	0	489	129	
5	0	0	0	0	487	130	
6	0	0	0	0	485	130	
7	0	0	0	0	483	129	
8	0	0	0	0	481	130	
9	0	0	0	0	479	130	
10	0	0	0	0	478	129	
11	0	0	0	0	476	130	
12	0	0	0	0	474	130	
13	0	0	0	0	473	129	
14	0	0	0	0	471	130	
15	0	0	0	0	470	129	
0	0	0	0	0	468	130	
1	0	0	0	0	467	129	
2	0	0	0	0	466	129	
3	0	0	0	0	465	130	
4	0	0	0	0	464	129	
5	0	0	0	0	463	130	
6	0	0	0	0	463	130	
7	0	0	0	0	463	129	
8	0	0	0	0	463	130	
9	0	0	0	0	463	129	
10	0	0	0	0	462	130	
11	0	0	0	0	460	130	
12	0	0	0	0	460	129	
13	0	0	0	0	460	130	
14	0	0	0	0	459	130	
15	0	0	0	0	458	129	
0	0	0	0	0	458	130	
1	0	0	0	0	458	129	
2	0	0	0	0	458	129	
3	0	0	0	0	457	130	
4	0	0	0	0	457	129	
5	0	0	0	0	458	129	
6	0	0	0	0	458	130	
7	0	0	0	0	459	129	
8	0	0	0	0	459	129	
9	0	0	0	0	459	130	
10	0	0	0	0	458	129	
11	0	0	0	0	457	130	
12	0	0	0	0	457	130	
13	0	0	0	0	457	129	
14	0	0	0	0	458	130	
15	0	0	0	0	459	130	
0	0	0	0	0	459	129	
1	0	0	0	0	460	130	
2	0	0	0	0	461	130	
3	0	0	0	0	461	129	
4	0	0	0	0	462	130	
5	0	0	0	0	463	129	
6	0	0	0	0	464	129	
7	0	0	0	0	464	130	
8	0	0	0	0	464	129	
9	0	0	0	0	465	129	
10	0	0	0	0	466	130	
11	0	0	0	0	467	129	
12	0	0	0	0	467	129	
13	0	0	0	0	467	130	
14	0	0	0	0	467	129	
15	0	0	0	0	467	130	
0	0	0	0	0	468	130	
1	0	0	0	0	468	129	
2	0	0	0	0	470	129	
3	0	0	0	0	471	130	
4	0	0	0	0	471	129	
5	0	0	0	0	471	130	
6	0	0	0	0	471	129	
7	0	0	0	0	472	129	
8	0	0	0	0	473	129	
9	0	0	0	0	473	129	
10	0	0	0	0	473	129	
11	0	0	0	0	474	130	
12	0	0	0	0	474	129	
13	0	0	0	0	475	130	
14	0	0	0	0	475	129	
15	0	0	0	0	476	130	
0	0	0	0	0	476	129	
1	0	0	0	0	476	129	
2	0	0	0	0	476	130	
3	0	0	0	0	477	129	
4	0	0	0	0	478	130	
5	0	0	0	0	479	129	
6	0	0	0	0	480	129	
7	0	0	0	0	481	130	
8	0	0	0	0	481	129	
9	0	0	0	0	482	129	
10	0	0	0	0	483	130	
11	0	0	0	0	484	129	
12	0	0	0	0	485	129	
13	0	0	0	0	485	129	
14	0	0	0	0	485	129	
15	0	0	0	0	485	129	
0	0	0	0	0	485	128	
1	0	0	0	0	486	129	
2	0	0	0	0	487	130	
3	0	0	0	0	487	128	
4	0	0	0	0	487	129	
5	0	0	0	0	488	129	
6	0	0	0	0	488	129	
7	0	0	0	0	489	129	
8	0	0	0	0	489	129	
9	0	0	0	0	488	129	
10	0	0	0	0	489	130	
11	0	0	0	0	490	129	
12	0	0	0	0	490	129	
13	0	0	0	0	490	129	
14	0	0	0	0	490	129	
15	0	0	0	0	491	129	
0	0	0	0	0	491	129	
1	0	0	0	0	491	129	
2	0	0	0	0	491	129	
3	0	0	0	0	492	128	
4	0	0	0	0	493	129	
5	0	0	0	0	493	129	
6	0	0	0	0	494	128	
7	0	0	0	0	494	129	
8	0	0	0	0	495	130	
9	0	0	0	0	495	129	
10	0	0	0	0	496	129	
11	0	0	0	0	496	130	
12	0	0	0	0	497	129	
13	0	0	0	0	497	129	
14	0	0	0	0	497	128	
15	0	0	0	0	496	129	
0	0	0	0	0	496	129	
1	0	0	0	0	497	128	
2	0	0	0	0	498	129	
3	0	0	0	0	498	129	
4	0	0	0	0	499	128	
5	0	0	0	0	500	129	
6	0	0	0	0	499	129	
7	0	0	0	0	500	128	
8	0	0	0	0	500	129	
9	0	0	0	0	501	130	
10	0	0	0	0	501	128	
11	0	0	0	0	501	129	
12	0	0	0	0	501	128	
13	0	0	0	0	502	129	
14	0	0	0	0	503	130	
15	0	0	0	0	502	128	
0	0	0	0	0	503	129	
1	0	0	0	0	504	129	
2	0	0	0	0	504	129	
3	0	0	0	0	505	129	
4	0	0	0	0	506	129	
5	0	0	0	0	506	129	
6	0	0	0	0	506	129	
7	0	0	0	0	507	128	
8	0	0	0	0	506	129	
9	0	0	0	0	505	129	
10	0	0	0	0	504	128	
11	0	0	0	0	504	129	
12	0	0	0	0	503	129	
13	0	0	0	0	503	128	
14	0	0	0	0	504	129	
15	0	0	0	0	504	129	
0	0	0	0	0	504	128	
1	0	0	0	0	504	129	
2	0	0	0	0	503	129	
3	0	0	0	0	504	128	
4	0	0	0	0	504	129	
5	0	0	0	0	504	130	
6	0	0	0	0	504	128	
7	0	0	0	0	505	129	
8	0	0	0	0	505	130	
9	0	0	0	0	505	128	
10	0	0	0	0	506	129	
11	0	0	0	0	508	128	
12	0	0	0	0	509	129	
13	0	0	0	0	510	129	
14	0	0	0	0	510	128	
15	0	0	0	0	510	129	
0	0	0	0	0	509	129	
1	0	0	0	0	509	128	
2	0	0	0	0	509	129	
3	0	0	0	0	509	129	
4	0	0	0	0	509	129	
5	0	0	0	0	510	129	
6	0	0	0	0	510	128	
7	0	0	0	0	511	129	
8	0	0	0	0	511	129	
9	0	0	0	0	512	128	
10	0	0	0	0	512	129	
11	0	0	0	0	513	128	
12	0	0	0	0	513	129	
13	0	0	0	0	512	129	
14	0	0	0	0	512	129	
15	0	0	0	0	512	129	
0	0	0	0	0	511	128	
1	0	0	0	0	512	129	
2	0	0	0	0	512	130	
3	0	0	0	0	512	128	
4	0	0	0	0	512	129	
5	0	0	0	0	512	129	
6	0	0	0	0	512	128	
7	0	0	0	0	513	129	
8	0	0	0	0	512	129	
9	0	0	0	0	511	128	
10	0	0	0	0	510	129	
11	0	0	0	0	510	130	
12	0	0	0	0	510	128	
13	0	0	0	0	510	129	
14	0	0	0	0	511	129	
15	0	0	0	0	513	128	
0	0	0	0	0	514	129	
1	0	0	0	0	514	128	
2	0	0	0	0	515	129	
3	0	0	0	0	515	129	
4	0	0	0	0	515	128	
5	0	0	0	0	514	129	
6	0	0	0	0	514	128	
7	0	0	0	0	514	129	
8	0	0	0	0	515	129	
9	0	0	0	0	514	128	
10	0	0	0	0	515	129	
11	0	0	0	0	515	128	
12	0	0	0	0	515	129	
13	0	0	0	0	514	130	
14	0	0	0	0	514	129	
15	0	0	0	0	514	129	
0	0	0	0	0	513	128	
1	0	0	0	0	514	129	
2	0	0	0	0	513	129	
3	0	0	0	0	513	129	
4	0	0	0	0	513	129	
5	0	0	0	0	513	128	
6	0	0	0	0	514	129	
7	0	0	0	0	513	128	
8	0	0	0	0	513	129	
9	0	0	0	0	515	129	
10	0	0	0	0	515	128	
11	0	0	0	0	515	129	
12	0	0	0	0	515	129	
13	0	0	0	0	514	128	
14	0	0	0	0	513	129	
15	0	0	0	0	512	128	
0	0	0	0	0	512	129	
1	0	0	0	0	512	128	
2	0	0	0	0	512	129	
3	0	0	0	0	511	129	
4	0	0	0	0	511	129	
5	0	0	0	0	511	129	
6	0	0	0	0	511	128	
7	0	0	0	0	511	129	
8	0	0	0	0	511	129	
9	0	0	0	0	511	129	
10	0	0	0	0	511	128	
11	0	0	0	0	511	129	
12	0	0	0	0	511	129	
13	0	0	0	0	510	129	
14	0	0	0	0	509	129	
15	0	0	0	0	508	128	
0	0	0	0	0	508	129	
1	0	0	0	0	508	129	
2	0	0	0	0	510	128	
3	0	0	0	0	511	129	
4	0	0	0	0	513	128	
5	0	0	0	0	513	129	
6	0	0	0	0	513	130	
7	0	0	0	0	515	128	
8	0	0	0	0	516	129	
9	0	0	0	0	518	128	
10	0	0	0	0	517	129	
11	0	0	0	0	518	128	
12	0	0	0	0	517	129	
13	0	0	0	0	516	129	
14	0	0	0	0	515	128	
15	0	0	0	0	514	129	
0	0	0	0	0	513	129	
1	0	0	0	0	512	128	
2	0	0	0	0	511	129	
3	0	0	0	0	510	128	
4	0	0	0	0	509	129	
5	0	0	0	0	509	129	
6	0	0	0	0	510	128	
7	0	0	0	0	510	129	
8	0	0	0	0	509	128	
9	0	0	0	0	508	129	
10	0	0	0	0	508	129	
11	0	0	0	0	507	128	
12	0	0	0	0	507	129	
13	0	0	0	0	507	128	
14	0	0	0	0	507	129	
15	0	0	0	0	505	129	
0	0	0	0	0	506	128	
1	0	0	0	0	508	129	
2	0	0	0	0	511	128	
3	0	0	0	0	513	129	
4	0	0	0	0	515	129	
5	0	0	0	0	515	129	
6	0	0	0	0	516	129	
7	0	0	0	0	516	128	
8	0	0	0	0	516	129	
9	0	0	0	0	517	129	
10	0	0	0	0	517	128	
11	0	0	0	0	518	129	
12	0	0	0	0	518	129	
13	0	0	0	0	518	129	
14	0	0	0	0	519	129	
15	0	0	0	0	521	128	
0	0	0	0	0	521	129	
1	0	0	0	0	521	128	
2	0	0	0	0	521	129	
3	0	0	0	0	519	129	
4	0	0	0	0	518	128	
5	0	0	0	0	517	129	
6	0	0	0	0	517	128	
7	0	0	0	0	518	129	
8	0	0	0	0	518	128	
9	0	0	0	0	517	129	
10	0	0	0	0	515	129	
11	0	0	0	0	515	129	
12	0	0	0	0	515	129	
13	0	0	0	0	514	128	
14	0	0	0	0	514	129	
15	0	0	0	0	515	128	
0	0	0	0	0	515	129	
1	0	0	0	0	515	129	
2	0	0	0	0	514	128	
3	0	0	0	0	513	129	
4	0	0	0	0	512	129	
5	0	0	0	0	512	128	
6	0	0	0	0	512	129	
7	0	0	0	0	512	129	
8	0	0	0	0	511	128	
9	0	0	0	0	512	129	
10	0	0	0	0	512	129	
11	0	0	0	0	513	128	
12	0	0	0	0	513	129	
13	0	0	0	0	513	129	
14	0	0	0	0	513	128	
15	0	0	0	0	513	129	
0	0	0	0	0	513	128	
1	0	0	0	0	513	128	
2	0	0	0	0	513	129	
3	0	0	0	0	512	128	
4	0	0	0	0	512	129	
5	0	0	0	0	509	129	
6	0	0	0	0	507	128	
7	0	0	0	0	506	129	
8	0	0	0	0	507	129	
9	0	0	0	0	507	128	
10	0	0	0	0	507	129	
11	0	0	0	0	507	129	
12	0	0	0	0	508	128	
13	0	0	0	0	507	129	
14	0	0	0	0	507	128	
15	0	0	0	0	506	129	
0	0	0	0	0	506	129	
1	0	0	0	0	507	128	
2	0	0	0	0	507	129	
3	0	0	0	0	507	129	
4	0	0	0	0	508	128	
5	0	0	0	0	510	129	
6	0	0	0	0	511	129	
7	0	0	0	0	512	128	
8	0	0	0	0	512	129	
9	0	0	0	0	512	128	
10	0	0	0	0	512	129	
11	0	0	0	0	512	129	
12	0	0	0	0	512	128	
13	0	0	0	0	512	129	
14	0	0	0	0	512	129	
15	0	0	0	0	512	128	
0	0	0	0	0	512	129	
1	0	0	0	0	512	128	
2	0	0	0	0	512	129	
3	0	0	0	0	512	129	
4	0	0	0	0	514	128	
5	0	0	0	0	515	128	
6	0	0	0	0	514	129	
7	0	0	0	0	512	129	
8	0	0	0	0	512	128	
9	0	0	0	0	513	129	
10	0	0	0	0	512	129	
11	0	0	0	0	510	128	
12	0	0	0	0	508	129	
13	0	0	0	0	505	129	
14	0	0	0	0	503	128	
15	0	0	0	0	500	129	
0	0	0	0	0	496	129	
1	0	0	0	0	494	128	
2	0	0	0	0	492	129	
3	0	0	0	0	491	129	
4	0	0	0	0	491	128	
5	0	0	0	0	492	129	
6	0	0	0	0	493	129	
7	0	0	0	0	496	129	
8	0	0	0	0	497	129	
9	0	0	0	0	499	128	
10	0	0	0	0	500	129	
11	0	0	0	0	503	128	
12	0	0	0	0	504	129	
13	0	0	0	0	505	128	
14	0	0	0	0	505	129	
15	0	0	0	0	505	129	
0	0	0	0	0	506	128	
1	0	0	0	0	507	129	
2	0	0	0	0	507	128	
3	0	0	0	0	508	129	
4	0	0	0	0	508	128	
5	0	0	0	0	511	129	
6	0	0	0	0	512	129	
7	0	0	0	0	513	128	
8	0	0	0	0	514	129	
9	0	0	0	0	514	128	
10	0	0	0	0	514	129	
11	0	0	0	0	514	129	
12	0	0	0	0	514	128	
13	0	0	0	0	512	129	
14	0	0	0	0	510	128	
15	0	0	0	0	508	129	
0	0	0	0	0	508	129	
1	0	0	0	0	507	128	
2	0	0	0	0	505	129	
3	0	0	0	0	504	128	
4	0	0	0	0	504	129	
5	0	0	0	0	502	129	
6	0	0	0	0	501	128	
7	0	0	0	0	500	129	
8	0	0	0	0	499	128	
9	0	0	0	0	499	129	
10	0	0	0	0	497	129	
11	0	0	0	0	496	129	
12	0	0	0	0	494	129	
13	0	0	0	0	492	128	
14	0	0	0	0	491	129	
15	0	0	0	0	488	128	
0	0	0	0	0	487	129	
1	0	0	0	0	487	129	
2	0	0	0	0	487	128	
3	0	0	0	0	487	129	
4	0	0	0	0	486	129	
5	0	0	0	0	486	129	
6	0	0	0	0	485	129	
7	0	0	0	0	483	128	
8	0	0	0	0	483	129	
9	0	0	0	0	482	129	
10	0	0	0	0	482	129	
11	0	0	0	0	483	129	
12	0	0	0	0	483	129	
13	0	0	0	0	482	129	
14	0	0	0	0	482	129	
15	0	0	0	0	482	128	
0	0	0	0	0	482	129	
1	0	0	0	0	482	129	
2	0	0	0	0	481	129	
3	0	0	0	0	481	129	
4	0	0	0	0	481	128	
5	0	0	0	0	481	129	
6	0	0	0	0	480	128	
7	0	0	0	0	478	129	
8	0	0	0	0	478	129	
9	0	0	0	0	478	128	
10	0	0	0	0	478	129	
11	0	0	0	0	477	129	
12	0	0	0	0	476	128	
13	0	0	0	0	475	129	
14	0	0	0	0	475	129	
15	0	0	0	0	474	128	
0	0	0	0	0	473	129	
1	0	0	0	0	473	129	
2	0	0	0	0	473	128	
3	0	0	0	0	473	129	
4	0	0	0	0	474	128	
5	0	0	0	0	474	129	
6	0	0	0	0	475	129	
7	0	0	0	0	473	128	
8	0	0	0	0	472	129	
9	0	0	0	0	472	128	
10	0	0	0	0	471	129	
11	0	0	0	0	470	129	
12	0	0	0	0	470	128	
13	0	0	0	0	471	129	
14	0	0	0	0	470	129	
15	0	0	0	0	471	129	
0	0	0	0	0	473	129	
1	0	0	0	0	473	128	
2	0	0	0	0	473	129	
3	0	0	0	0	473	128	
4	0	0	0	0	473	129	
5	0	0	0	0	473	129	
6	0	0	0	0	475	128	
7	0	0	0	0	475	129	
8	0	0	0	0	475	128	
9	0	0	0	0	475	129	
10	0	0	0	0	475	129	
11	0	0	0	0	475	128	
12	0	0	0	0	476	129	
13	0	0	0	0	476	128	
14	0	0	0	0	476	129	
15	0	0	0	0	477	128	
0	0	0	0	0	478	129	
1	0	0	0	0	478	129	
2	0	0	0	0	478	128	
3	0	0	0	0	479	129	
4	0	0	0	0	479	129	
5	0	0	0	0	480	128	
6	0	0	0	0	480	129	
7	0	0	0	0	479	128	
8	0	0	0	0	476	129	
9	0	0	0	0	475	129	
10	0	0	0	0	474	128	
11	0	0	0	0	473	129	
12	0	0	0	0	472	129	
13	0	0	0	0	472	128	
14	0	0	0	0	473	129	
15	0	0	0	0	475	128	
0	0	0	0	0	476	128	
1	0	0	0	0	478	129	
2	0	0	0	0	480	128	
3	0	0	0	0	481	129	
4	0	0	0	0	481	128	
5	0	0	0	0	482	129	
6	0	0	0	0	485	129	
7	0	0	0	0	488	128	
8	0	0	0	0	491	129	
9	0	0	0	0	492	128	
10	0	0	0	0	494	129	
11	0	0	0	0	496	128	
12	0	0	0	0	497	128	
13	0	0	0	0	498	129	
14	0	0	0	0	500	128	
15	0	0	0	0	502	129	
0	0	0	0	0	503	129	
1	0	0	0	0	502	128	
2	0	0	0	0	502	129	
3	0	0	0	0	502	128	
4	0	0	0	0	503	129	
5	0	0	0	0	504	128	
6	0	0	0	0	503	129	
7	0	0	0	0	503	128	
8	0	0	0	0	501	129	
9	0	0	0	0	500	128	
10	0	0	0	0	499	128	
11	0	0	0	0	498	129	
12	0	0	0	0	497	128	
13	0	0	0	0	500	129	
14	0	0	0	0	501	128	
15	0	0	0	0	499	129	
0	0	0	0	0	496	129	
1	0	0	0	0	494	128	
2	0	0	0	0	492	129	
3	0	0	0	0	491	129	
4	0	0	0	0	490	128	
5	0	0	0	0	490	129	
6	0	0	0	0	490	128	
7	0	0	0	0	491	129	
8	0	0	0	0	491	129	
9	0	0	0	0	491	128	
10	0	0	0	0	491	129	
11	0	0	0	0	490	129	
12	0	0	0	0	490	128	
13	0	0	0	0	490	129	
14	0	0	0	0	489	128	
15	0	0	0	0	488	129	
0	0	0	0	0	487	129	
1	0	0	0	0	488	128	
2	0	0	0	0	489	129	
3	0	0	0	0	492	129	
4	0	0	0	0	493	128	
5	0	0	0	0	493	129	
6	0	0	0	0	492	128	
7	0	0	0	0	492	129	
8	0	0	0	0	493	129	
9	0	0	0	0	494	128	
10	0	0	0	0	495	129	
11	0	0	0	0	496	128	
12	0	0	0	0	496	129	
13	0	0	0	0	497	129	
14	0	0	0	0	496	128	
15	0	0	0	0	496	129	
0	0	0	0	0	496	129	
1	0	0	0	0	495	128	
2	0	0	0	0	494	129	
3	0	0	0	0	494	129	
4	0	0	0	0	493	128	
5	0	0	0	0	492	129	
6	0	0	0	0	492	128	
7	0	0	0	0	492	128	
8	0	0	0	0	492	129	
9	0	0	0	0	493	128	
10	0	0	0	0	493	129	
11	0	0	0	0	492	128	
12	0	0	0	0	490	129	
13	0	0	0	0	489	129	
14	0	0	0	0	488	128	
15	0	0	0	0	488	129	
0	0	0	0	0	488	128	
1	0	0	0	0	488	129	
2	0	0	0	0	487	129	
3	0	0	0	0	487	128	
4	0	0	0	0	487	129	
5	0	0	0	0	489	128	
6	0	0	0	0	493	129	
7	0	0	0	0	496	128	
8	0	0	0	0	498	129	
9	0	0	0	0	500	128	
10	0	0	0	0	504	128	
11	0	0	0	0	507	129	
12	0	0	0	0	508	128	
13	0	0	0	0	506	128	
14	0	0	0	0	504	129	
15	0	0	0	0	503	128	
0	0	0	0	0	504	129	
1	0	0	0	0	504	128	
2	0	0	0	0	504	128	
3	0	0	0	0	505	129	
4	0	0	0	0	505	128	
5	0	0	0	0	506	129	
6	0	0	0	0	507	129	
7	0	0	0	0	507	128	
8	0	0	0	0	508	129	
9	0	0	0	0	509	128	
10	0	0	0	0	513	129	
11	0	0	0	0	515	129	
12	0	0	0	0	513	128	
13	0	0	0	0	511	129	
14	0	0	0	0	509	129	
15	0	0	0	0	507	128	
0	0	0	0	0	506	129	
1	0	0	0	0	506	128	
2	0	0	0	0	505	129	
3	0	0	0	0	505	129	
4	0	0	0	0	506	128	
5	0	0	0	0	507	129	
6	0	0	0	0	507	129	
7	0	0	0	0	508	128	
8	0	0	0	0	507	129	
9	0	0	0	0	507	128	
10	0	0	0	0	507	129	
11	0	0	0	0	507	129	
12	0	0	0	0	507	129	
13	0	0	0	0	508	129	
14	0	0	0	0	508	128	
15	0	0	0	0	508	129	
0	0	0	0	0	508	128	
1	0	0	0	0	509	128	
2	0	0	0	0	511	129	
3	0	0	0	0	511	128	
4	0	0	0	0	511	128	
5	0	0	0	0	511	129	
6	0	0	0	0	513	128	
7	0	0	0	0	514	129	
8	0	0	0	0	515	129	
9	0	0	0	0	515	128	
10	0	0	0	0	515	129	
11	0	0	0	0	514	128	
12	0	0	0	0	514	129	
13	0	0	0	0	515	129	
14	0	0	0	0	517	128	
15	0	0	0	0	520	129	
0	0	0	0	0	522	128	
1	0	0	0	0	523	129	
2	0	0	0	0	523	129	
3	0	0	0	0	524	128	
4	0	0	0	0	524	129	
5	0	0	0	0	523	129	
6	0	0	0	0	522	128	
7	0	0	0	0	522	129	
8	0	0	0	0	521	128	
9	0	0	0	0	521	129	
10	0	0	0	0	521	129	
11	0	0	0	0	521	128	
12	0	0	0	0	523	129	
13	0	0	0	0	524	129	
14	0	0	0	0	524	128	
15	0	0	0	0	524	129	
0	0	0	0	0	524	128	
1	0	0	0	0	524	129	
2	0	0	0	0	524	129	
3	0	0	0	0	524	128	
4	0	0	0	0	525	129	
5	0	0	0	0	528	128	
6	0	0	0	0	533	129	
7	0	0	0	0	533	129	
8	0	0	0	0	532	128	
9	0	0	0	0	531	129	
10	0	0	0	0	531	128	
11	0	0	0	0	531	129	
12	0	0	0	0	532	129	
13	0	0	0	0	533	128	
14	0	0	0	0	534	129	
15	0	0	0	0	534	128	
0	0	0	0	0	535	129	
1	0	0	0	0	536	128	
2	0	0	0	0	536	129	
3	0	0	0	0	535	129	
4	0	0	0	0	535	128	
5	0	0	0	0	536	129	
6	0	0	0	0	536	128	
7	0	0	0	0	535	128	
8	0	0	0	0	534	129	
9	0	0	0	0	532	128	
10	0	0	0	0	532	128	
11	0	0	0	0	532	129	
12	0	0	0	0	535	127	
13	0	0	0	0	539	129	
14	0	0	0	0	540	129	
15	0	0	0	0	539	128	
0	0	0	0	0	537	129	
1	0	0	0	0	536	127	
2	0	0	0	0	535	129	
3	0	0	0	0	534	129	
4	0	0	0	0	534	128	
5	0	0	0	0	532	129	
6	0	0	0	0	531	128	
7	0	0	0	0	530	129	
8	0	0	0	0	529	129	
9	0	0	0	0	528	128	
10	0	0	0	0	528	129	
11	0	0	0	0	529	128	
12	0	0	0	0	529	129	
13	0	0	0	0	531	129	
14	0	0	0	0	532	128	
15	0	0	0	0	535	129	
0	0	0	0	0	537	128	
1	0	0	0	0	539	129	
2	0	0	0	0	540	128	
3	0	0	0	0	541	129	
4	0	0	0	0	540	129	
5	0	0	0	0	539	128	
6	0	0	0	0	539	129	
7	0	0	0	0	540	128	
8	0	0	0	0	541	129	
9	0	0	0	0	542	129	
10	0	0	0	0	542	128	
11	0	0	0	0	543	129	
12	0	0	0	0	543	128	
13	0	0	0	0	542	129	
14	0	0	0	0	542	129	
15	0	0	0	0	541	128	
0	0	0	0	0	541	129	
1	0	0	0	0	541	127	
2	0	0	0	0	540	129	
3	0	0	0	0	539	129	
4	0	0	0	0	537	128	
5	0	0	0	0	536	129	
6	0	0	0	0	536	128	
7	0	0	0	0	536	128	
8	0	0	0	0	538	129	
9	0	0	0	0	540	128	
10	0	0	0	0	542	129	
11	0	0	0	0	542	129	
12	0	0	0	0	542	128	
13	0	0	0	0	543	129	
14	0	0	0	0	546	129	
15	0	0	0	0	545	128	
0	0	0	0	0	542	129	
1	0	0	0	0	540	128	
2	0	0	0	0	541	129	
3	0	0	0	0	541	127	
4	0	0	0	0	542	129	
5	0	0	0	0	544	129	
6	0	0	0	0	546	128	
7	0	0	0	0	547	129	
8	0	0	0	0	547	127	
9	0	0	0	0	546	129	
10	0	0	0	0	544	129	
11	0	0	0	0	544	128	
12	0	0	0	0	542	129	
13	0	0	0	0	539	128	
14	0	0	0	0	536	128	
15	0	0	0	0	534	129	
0	0	0	0	0	532	128	
1	0	0	0	0	530	129	
2	0	0	0	0	529	129	
3	0	0	0	0	527	128	
4	0	0	0	0	524	129	
5	0	0	0	0	521	128	
6	0	0	0	0	519	129	
7	0	0	0	0	516	129	
8	0	0	0	0	513	129	
9	0	0	0	0	512	128	
10	0	0	0	0	511	129	
11	0	0	0	0	509	128	
12	0	0	0	0	509	129	
13	0	0	0	0	510	129	
14	0	0	0	0	510	128	
15	0	0	0	0	512	129	
0	0	0	0	0	513	129	
1	0	0	0	0	515	128	
2	0	0	0	0	516	129	
3	0	0	0	0	517	129	
4	0	0	0	0	518	128	
5	0	0	0	0	519	129	
6	0	0	0	0	519	128	
7	0	0	0	0	520	129	
8	0	0	0	0	520	129	
9	0	0	0	0	519	128	
10	0	0	0	0	517	129	
11	0	0	0	0	517	128	
12	0	0	0	0	521	129	
13	0	0	0	0	522	129	
14	0	0	0	0	520	128	
15	0	0	0	0	518	129	
0	0	0	0	0	516	129	
1	0	0	0	0	514	128	
2	0	0	0	0	513	129	
3	0	0	0	0	513	128	
4	0	0	0	0	514	129	
5	0	0	0	0	513	128	
6	0	0	0	0	512	129	
7	0	0	0	0	512	129	
8	0	0	0	0	511	128	
9	0	0	0	0	511	129	
10	0	0	0	0	510	128	
11	0	0	0	0	509	129	
12	0	0	0	0	509	129	
13	0	0	0	0	510	128	
14	0	0	0	0	511	129	
15	0	0	0	0	512	128	
0	0	0	0	0	513	129	
1	0	0	0	0	515	129	
2	0	0	0	0	515	128	
3	0	0	0	0	516	129	
4	0	0	0	0	516	128	
5	0	0	0	0	516	129	
6	0	0	0	0	517	129	
7	0	0	0	0	517	128	
8	0	0	0	0	516	129	
9	0	0	0	0	514	129	
10	0	0	0	0	518	128	
11	0	0	0	0	520	129	
12	0	0	0	0	521	129	
13	0	0	0	0	519	128	
14	0	0	0	0	518	129	
15	0	0	0	0	515	128	
0	0	0	0	0	513	129	
1	0	0	0	0	513	129	
2	0	0	0	0	515	128	
3	0	0	0	0	515	129	
4	0	0	0	0	517	129	
5	0	0	0	0	520	128	
6	0	0	0	0	526	129	
7	0	0	0	0	532	129	
8	0	0	0	0	540	129	
9	0	0	0	0	548	129	
10	0	0	0	0	558	128	
11	0	0	0	0	567	129	
12	0	0	0	0	576	128	
13	0	0	0	0	585	129	
14	0	0	0	0	595	129	
15	0	0	0	0	605	127	
0	0	0	0	0	614	129	
1	0	0	0	0	623	129	
2	0	0	0	0	632	128	
3	0	0	0	0	639	129	
4	0	0	0	0	646	128	
5	0	0	0	0	651	128	
6	0	0	0	0	655	129	
7	0	0	0	0	659	127	
8	0	0	0	0	662	129	
9	0	0	0	0	664	129	
10	0	0	0	0	664	127	
11	0	0	0	0	664	129	
12	0	0	0	0	661	127	
13	0	0	0	0	655	128	
14	0	0	0	0	649	129	
15	0	0	0	0	643	127	
0	0	0	0	0	635	129	
1	0	0	0	0	627	128	
2	0	0	0	0	619	128	
3	0	0	0	0	611	129	
4	0	0	0	0	604	127	
5	0	0	0	0	595	129	
6	0	0	0	0	584	129	
7	0	0	0	0	572	128	
8	0	0	0	0	561	129	
9	0	0	0	0	551	128	
10	0	0	0	0	541	129	
11	0	0	0	0	532	129	
12	0	0	0	0	522	128	
13	0	0	0	0	512	129	
14	0	0	0	0	503	129	
15	0	0	0	0	496	128	
0	0	0	0	0	488	129	
1	0	0	0	0	482	128	
2	0	0	0	0	478	129	
3	0	0	0	0	476	129	
4	0	0	0	0	475	128	
5	0	0	0	0	475	129	
6	0	0	0	0	472	129	
7	0	0	0	0	471	128	
8	0	0	0	0	471	129	
9	0	0	0	0	473	129	
10	0	0	0	0	475	129	
11	0	0	0	0	478	129	
12	0	0	0	0	479	128	
13	0	0	0	0	481	129	
14	0	0	0	0	483	129	
15	0	0	0	0	486	129	
0	0	0	0	0	487	129	
1	0	0	0	0	488	128	
2	0	0	0	0	489	129	
3	0	0	0	0	489	129	
4	0	0	0	0	490	128	
5	0	0	0	0	491	129	
6	0	0	0	0	491	130	
7	0	0	0	0	491	128	
8	0	0	0	0	491	129	
9	0	0	0	0	492	128	
10	0	0	0	0	491	129	
11	0	0	0	0	491	129	
12	0	0	0	0	492	128	
13	0	0	0	0	493	129	
14	0	0	0	0	495	128	
15	0	0	0	0	496	129	
0	0	0	0	0	496	129	
1	0	0	0	0	496	128	
2	0	0	0	0	497	129	
3	0	0	0	0	498	129	
4	0	0	0	0	502	129	
5	0	0	0	0	504	129	
6	0	0	0	0	503	128	
7	0	0	0	0	500	129	
8	0	0	0	0	498	129	
9	0	0	0	0	497	128	
10	0	0	0	0	497	129	
11	0	0	0	0	499	128	
12	0	0	0	0	501	129	
13	0	0	0	0	504	129	
14	0	0	0	0	504	128	
15	0	0	0	0	504	129	
0	0	0	0	0	503	129	
1	0	0	0	0	502	128	
2	0	0	0	0	501	129	
3	0	0	0	0	501	129	
4	0	0	0	0	500	129	
5	0	0	0	0	501	129	
6	0	0	0	0	501	128	
7	0	0	0	0	502	129	
8	0	0	0	0	503	129	
9	0	0	0	0	504	128	
10	0	0	0	0	505	129	
11	0	0	0	0	507	128	
12	0	0	0	0	508	129	
13	0	0	0	0	508	129	
14	0	0	0	0	508	128	
15	0	0	0	0	507	129	
0	0	0	0	0	506	128	
1	0	0	0	0	505	129	
2	0	0	0	0	505	130	
3	0	0	0	0	504	128	
4	0	0	0	0	502	129	
5	0	0	0	0	501	129	
6	0	0	0	0	501	129	
7	0	0	0	0	500	129	
8	0	0	0	0	500	128	
9	0	0	0	0	499	129	
10	0	0	0	0	498	129	
11	0	0	0	0	497	128	
12	0	0	0	0	497	129	
13	0	0	0	0	496	129	
14	0	0	0	0	494	128	
15	0	0	0	0	493	129	
0	0	0	0	0	494	129	
1	0	0	0	0	493	128	
2	0	0	0	0	493	129	
3	0	0	0	0	494	129	
4	0	0	0	0	495	128	
5	0	0	0	0	497	129	
6	0	0	0	0	497	129	
7	0	0	0	0	498	129	
8	0	0	0	0	500	129	
9	0	0	0	0	500	128	
10	0	0	0	0	502	129	
11	0	0	0	0	502	129	
12	0	0	0	0	503	129	
13	0	0	0	0	503	129	
14	0	0	0	0	502	128	
15	0	0	0	0	500	129	
0	0	0	0	0	499	129	
1	0	0	0	0	498	128	
2	0	0	0	0	496	129	
3	0	0	0	0	496	129	
4	0	0	0	0	496	129	
5	0	0	0	0	495	129	
6	0	0	0	0	495	129	
7	0	0	0	0	494	128	
8	0	0	0	0	492	129	
9	0	0	0	0	492	130	
10	0	0	0	0	493	129	
11	0	0	0	0	494	129	
12	0	0	0	0	495	128	
13	0	0	0	0	496	129	
14	0	0	0	0	497	129	
15	0	0	0	0	499	129	
0	0	0	0	0	500	129	
1	0	0	0	0	499	128	
2	0	0	0	0	500	129	
3	0	0	0	0	500	129	
4	0	0	0	0	501	129	
5	0	0	0	0	501	129	
6	0	0	0	0	501	128	
7	0	0	0	0	501	129	
8	0	0	0	0	501	130	
9	0	0	0	0	501	129	
10	0	0	0	0	499	129	
11	0	0	0	0	499	130	
12	0	0	0	0	500	128	
13	0	0	0	0	502	129	
14	0	0	0	0	504	129	
15	0	0	0	0	505	129	
0	0	0	0	0	507	129	
1	0	0	0	0	512	128	
2	0	0	0	0	514	129	
3	0	0	0	0	513	129	
4	0	0	0	0	513	129	
5	0	0	0	0	513	130	
6	0	0	0	0	513	128	
7	0	0	0	0	514	129	
8	0	0	0	0	515	128	
9	0	0	0	0	514	129	
10	0	0	0	0	515	129	
11	0	0	0	0	516	129	
12	0	0	0	0	516	130	
13	0	0	0	0	516	129	
14	0	0	0	0	515	129	
15	0	0	0	0	515	128	
0	0	0	0	0	513	129	
1	0	0	0	0	512	130	
2	0	0	0	0	512	128	
3	0	0	0	0	512	129	
4	0	0	0	0	513	128	
5	0	0	0	0	516	129	
6	0	0	0	0	518	129	
7	0	0	0	0	519	129	
8	0	0	0	0	518	129	
9	0	0	0	0	518	129	
10	0	0	0	0	518	129	
11	0	0	0	0	519	129	
12	0	0	0	0	520	128	
13	0	0	0	0	520	129	
14	0	0	0	0	522	129	
15	0	0	0	0	521	129	
0	0	0	0	0	521	130	
1	0	0	0	0	522	128	
2	0	0	0	0	527	129	
3	0	0	0	0	529	129	
4	0	0	0	0	527	129	
5	0	0	0	0	524	130	
6	0	0	0	0	523	128	
7	0	0	0	0	522	129	
8	0	0	0	0	521	128	
9	0	0	0	0	521	129	
10	0	0	0	0	520	130	
11	0	0	0	0	519	129	
12	0	0	0	0	519	129	
13	0	0	0	0	519	128	
14	0	0	0	0	521	129	
15	0	0	0	0	522	129	
0	0	0	0	0	524	129	
1	0	0	0	0	525	129	
2	0	0	0	0	525	128	
3	0	0	0	0	526	129	
4	0	0	0	0	526	129	
5	0	0	0	0	526	129	
6	0	0	0	0	527	129	
7	0	0	0	0	527	129	
8	0	0	0	0	528	128	
9	0	0	0	0	529	129	
10	0	0	0	0	529	129	
11	0	0	0	0	529	129	
12	0	0	0	0	530	129	
13	0	0	0	0	530	128	
14	0	0	0	0	529	129	
15	0	0	0	0	530	129	
0	0	0	0	0	531	129	
1	0	0	0	0	533	129	
2	0	0	0	0	534	128	
3	0	0	0	0	535	129	
4	0	0	0	0	534	129	
5	0	0	0	0	534	129	
6	0	0	0	0	535	129	
7	0	0	0	0	537	128	
8	0	0	0	0	540	129	
9	0	0	0	0	540	129	
10	0	0	0	0	540	129	
11	0	0	0	0	540	128	
12	0	0	0	0	540	129	
13	0	0	0	0	540	129	
14	0	0	0	0	539	128	
15	0	0	0	0	539	129	
0	0	0	0	0	539	128	
1	0	0	0	0	539	129	
2	0	0	0	0	539	128	
3	0	0	0	0	540	129	
4	0	0	0	0	541	129	
5	0	0	0	0	543	128	
6	0	0	0	0	544	129	
7	0	0	0	0	546	129	
8	0	0	0	0	548	128	
9	0	0	0	0	550	129	
10	0	0	0	0	551	128	
11	0	0	0	0	551	129	
12	0	0	0	0	554	128	
13	0	0	0	0	554	129	
14	0	0	0	0	555	130	
15	0	0	0	0	556	128	
0	0	0	0	0	556	129	
1	0	0	0	0	556	130	
2	0	0	0	0	555	128	
3	0	0	0	0	554	129	
4	0	0	0	0	553	128	
5	0	0	0	0	554	129	
6	0	0	0	0	556	129	
7	0	0	0	0	556	128	
8	0	0	0	0	557	129	
9	0	0	0	0	558	128	
10	0	0	0	0	559	129	
11	0	0	0	0	559	130	
12	0	0	0	0	557	128	
13	0	0	0	0	558	129	
14	0	0	0	0	558	128	
15	0	0	0	0	558	129	
0	0	0	0	0	559	130	
1	0	0	0	0	559	128	
2	0	0	0	0	560	129	
3	0	0	0	0	559	128	
4	0	0	0	0	558	129	
5	0	0	0	0	556	129	
6	0	0	0	0	555	128	
7	0	0	0	0	553	129	
8	0	0	0	0	553	128	
9	0	0	0	0	552	129	
10	0	0	0	0	551	129	
11	0	0	0	0	550	128	
12	0	0	0	0	550	129	
13	0	0	0	0	549	129	
14	0	0	0	0	548	129	
15	0	0	0	0	546	129	
0	0	0	0	0	545	128	
1	0	0	0	0	544	129	
2	0	0	0	0	544	129	
3	0	0	0	0	543	128	
4	0	0	0	0	544	129	
5	0	0	0	0	545	128	
6	0	0	0	0	546	129	
7	0	0	0	0	549	129	
8	0	0	0	0	552	128	
9	0	0	0	0	557	129	
10	0	0	0	0	559	129	
11	0	0	0	0	557	128	
12	0	0	0	0	556	129	
13	0	0	0	0	555	129	
14	0	0	0	0	557	129	
15	0	0	0	0	558	129	
0	0	0	0	0	559	128	
1	0	0	0	0	560	129	
2	0	0	0	0	560	129	
3	0	0	0	0	557	129	
4	0	0	0	0	553	129	
5	0	0	0	0	550	128	
6	0	0	0	0	547	129	
7	0	0	0	0	543	128	
8	0	0	0	0	540	129	
9	0	0	0	0	538	129	
10	0	0	0	0	536	130	
11	0	0	0	0	534	128	
12	0	0	0	0	532	129	
13	0	0	0	0	530	129	
14	0	0	0	0	527	129	
15	0	0	0	0	526	129	
0	0	0	0	0	524	128	
1	0	0	0	0	523	129	
2	0	0	0	0	520	130	
3	0	0	0	0	518	128	
4	0	0	0	0	515	129	
5	0	0	0	0	513	129	
6	0	0	0	0	510	129	
7	0	0	0	0	506	129	
8	0	0	0	0	503	129	
9	0	0	0	0	502	128	
10	0	0	0	0	501	129	
11	0	0	0	0	500	129	
12	0	0	0	0	498	129	
13	0	0	0	0	496	129	
14	0	0	0	0	495	130	
15	0	0	0	0	494	129	
0	0	0	0	0	492	129	
1	0	0	0	0	489	128	
2	0	0	0	0	487	129	
3	0	0	0	0	481	130	
4	0	0	0	0	475	129	
5	0	0	0	0	470	129	
6	0	0	0	0	464	129	
7	0	0	0	0	460	129	
8	0	0	0	0	457	130	
9	0	0	0	0	456	129	
10	0	0	0	0	456	130	
11	0	0	0	0	456	130	
12	0	0	0	0	457	129	
13	0	0	0	0	460	130	
14	0	0	0	0	462	129	
15	0	0	0	0	464	129	
0	0	0	0	0	466	130	
1	0	0	0	0	467	129	
2	0	0	0	0	468	130	
3	0	0	0	0	470	129	
4	0	0	0	0	469	129	
5	0	0	0	0	469	130	
6	0	0	0	0	469	129	
7	0	0	0	0	469	130	
8	0	0	0	0	468	129	
9	0	0	0	0	467	129	
10	0	0	0	0	467	130	
11	0	0	0	0	467	129	
12	0	0	0	0	468	129	
13	0	0	0	0	469	130	
14	0	0	0	0	471	129	
15	0	0	0	0	471	130	
0	0	0	0	0	471	129	
1	0	0	0	0	469	130	
2	0	0	0	0	467	130	
3	0	0	0	0	466	129	
4	0	0	0	0	464	130	
5	0	0	0	0	461	129	
6	0	0	0	0	460	130	
7	0	0	0	0	461	129	
8	0	0	0	0	463	129	
9	0	0	0	0	466	130	
10	0	0	0	0	468	129	
11	0	0	0	0	468	130	
12	0	0	0	0	469	128	
13	0	0	0	0	470	129	
14	0	0	0	0	470	130	
15	0	0	0	0	469	129	
0	0	0	0	0	468	130	
1	0	0	0	0	467	129	
2	0	0	0	0	467	129	
3	0	0	0	0	465	130	
4	0	0	0	0	462	129	
5	0	0	0	0	461	130	
6	0	0	0	0	461	129	
7	0	0	0	0	460	129	
8	0	0	0	0	459	130	
9	0	0	0	0	458	129	
10	0	0	0	0	456	130	
11	0	0	0	0	456	129	
12	0	0	0	0	457	129	
13	0	0	0	0	457	130	
14	0	0	0	0	456	129	
15	0	0	0	0	455	130	
0	0	0	0	0	454	129	
1	0	0	0	0	452	129	
2	0	0	0	0	451	130	
3	0	0	0	0	451	129	
4	0	0	0	0	449	130	
5	0	0	0	0	448	129	
6	0	0	0	0	449	129	
7	0	0	0	0	453	130	
8	0	0	0	0	457	129	
9	0	0	0	0	463	130	
10	0	0	0	0	471	129	
11	0	0	0	0	479	129	
12	0	0	0	0	482	130	
13	0	0	0	0	486	129	
14	0	0	0	0	487	129	
15	0	0	0	0	487	129	
0	0	0	0	0	486	129	
1	0	0	0	0	486	130	
2	0	0	0	0	487	129	
3	0	0	0	0	488	129	
4	0	0	0	0	490	129	
5	0	0	0	0	491	129	
6	0	0	0	0	491	130	
7	0	0	0	0	493	128	
8	0	0	0	0	492	130	
9	0	0	0	0	487	129	
10	0	0	0	0	484	129	
11	0	0	0	0	482	129	
12	0	0	0	0	480	129	
13	0	0	0	0	479	129	
14	0	0	0	0	478	129	
15	0	0	0	0	477	128	
0	0	0	0	0	477	130	
1	0	0	0	0	477	130	
2	0	0	0	0	477	129	
3	0	0	0	0	476	130	
4	0	0	0	0	476	129	
5	0	0	0	0	476	129	
6	0	0	0	0	476	129	
7	0	0	0	0	477	129	
8	0	0	0	0	476	130	
9	0	0	0	0	474	129	
10	0	0	0	0	472	130	
11	0	0	0	0	470	130	
12	0	0	0	0	470	129	
13	0	0	0	0	468	130	
14	0	0	0	0	467	129	
15	0	0	0	0	467	130	
0	0	0	0	0	467	129	
1	0	0	0	0	466	129	
2	0	0	0	0	466	130	
3	0	0	0	0	465	129	
4	0	0	0	0	464	130	
5	0	0	0	0	465	129	
6	0	0	0	0	466	129	
7	0	0	0	0	467	130	
8	0	0	0	0	467	129	
9	0	0	0	0	468	130	
10	0	0	0	0	468	130	
11	0	0	0	0	467	129	
12	0	0	0	0	467	130	
13	0	0	0	0	467	129	
14	0	0	0	0	468	130	
15	0	0	0	0	469	130	
0	0	0	0	0	470	129	
1	0	0	0	0	470	130	
2	0	0	0	0	470	129	
3	0	0	0	0	470	130	
4	0	0	0	0	470	130	
5	0	0	0	0	472	129	
6	0	0	0	0	473	130	
7	0	0	0	0	473	130	
8	0	0	0	0	473	129	
9	0	0	0	0	472	130	
10	0	0	0	0	471	129	
11	0	0	0	0	469	130	
12	0	0	0	0	469	130	
13	0	0	0	0	470	129	
14	0	0	0	0	470	130	
15	0	0	0	0	470	129	
0	0	0	0	0	473	130	
1	0	0	0	0	474	129	
2	0	0	0	0	476	129	
3	0	0	0	0	477	130	
4	0	0	0	0	480	129	
5	0	0	0	0	483	130	
6	0	0	0	0	483	129	
7	0	0	0	0	481	129	
8	0	0	0	0	479	130	
9	0	0	0	0	479	129	
10	0	0	0	0	479	130	
11	0	0	0	0	480	130	
12	0	0	0	0	482	129	
13	0	0	0	0	483	130	
14	0	0	0	0	484	129	
15	0	0	0	0	484	129	
0	0	0	0	0	485	130	
1	0	0	0	0	485	129	
2	0	0	0	0	486	129	
3	0	0	0	0	487	130	
4	0	0	0	0	489	129	
5	0	0	0	0	491	129	
6	0	0	0	0	492	130	
7	0	0	0	0	495	129	
8	0	0	0	0	496	130	
9	0	0	0	0	496	130	
10	0	0	0	0	496	129	
11	0	0	0	0	497	130	
12	0	0	0	0	499	129	
13	0	0	0	0	499	130	
14	0	0	0	0	499	129	
15	0	0	0	0	499	130	
0	0	0	0	0	499	130	
1	0	0	0	0	499	129	
2	0	0	0	0	501	130	
3	0	0	0	0	501	129	
4	0	0	0	0	502	130	
5	0	0	0	0	503	130	
6	0	0	0	0	504	129	
7	0	0	0	0	504	130	
8	0	0	0	0	505	130	
9	0	0	0	0	506	129	
10	0	0	0	0	508	130	
11	0	0	0	0	509	129	
12	0	0	0	0	509	130	
13	0	0	0	0	509	129	
14	0	0	0	0	510	129	
15	0	0	0	0	510	130	
0	0	0	0	0	509	129	
1	0	0	0	0	510	129	
2	0	0	0	0	510	130	
3	0	0	0	0	512	129	
4	0	0	0	0	513	130	
5	0	0	0	0	515	128	
6	0	0	0	0	514	130	
7	0	0	0	0	514	130	
8	0	0	0	0	515	129	
9	0	0	0	0	516	130	
10	0	0	0	0	516	129	
11	0	0	0	0	518	130	
12	0	0	0	0	519	130	
13	0	0	0	0	519	129	
14	0	0	0	0	519	130	
15	0	0	0	0	518	128	
0	0	0	0	0	518	130	
1	0	0	0	0	517	130	
2	0	0	0	0	517	129	
3	0	0	0	0	516	130	
4	0	0	0	0	516	129	
5	0	0	0	0	516	130	
6	0	0	0	0	517	129	
7	0	0	0	0	517	129	
8	0	0	0	0	517	130	
9	0	0	0	0	517	129	
10	0	0	0	0	517	130	
11	0	0	0	0	516	129	
12	0	0	0	0	515	130	
13	0	0	0	0	515	130	
14	0	0	0	0	515	129	
15	0	0	0	0	517	130	
0	0	0	0	0	518	129	
1	0	0	0	0	519	130	
2	0	0	0	0	518	129	
3	0	0	0	0	516	129	
4	0	0	0	0	516	130	
5	0	0	0	0	516	128	
6	0	0	0	0	517	130	
7	0	0	0	0	519	129	
8	0	0	0	0	519	129	
9	0	0	0	0	519	130	
10	0	0	0	0	519	129	
11	0	0	0	0	519	130	
12	0	0	0	0	519	129	
13	0	0	0	0	519	129	
14	0	0	0	0	518	130	
15	0	0	0	0	517	129	
0	0	0	0	0	519	130	
1	0	0	0	0	519	130	
2	0	0	0	0	519	129	
3	0	0	0	0	519	130	
4	0	0	0	0	518	129	
5	0	0	0	0	518	130	
6	0	0	0	0	517	130	
7	0	0	0	0	518	129	
8	0	0	0	0	519	130	
9	0	0	0	0	521	129	
10	0	0	0	0	521	130	
11	0	0	0	0	521	129	
12	0	0	0	0	520	129	
13	0	0	0	0	520	130	
14	0	0	0	0	519	129	
15	0	0	0	0	518	130	
0	0	0	0	0	518	129	
1	0	0	0	0	518	129	
2	0	0	0	0	519	130	
3	0	0	0	0	519	130	
4	0	0	0	0	519	129	
5	0	0	0	0	519	130	
6	0	0	0	0	519	129	
7	0	0	0	0	519	130	
8	0	0	0	0	519	130	
9	0	0	0	0	519	129	
10	0	0	0	0	520	130	
11	0	0	0	0	521	128	
12	0	0	0	0	523	130	
13	0	0	0	0	523	130	
14	0	0	0	0	523	128	
15	0	0	0	0	523	130	
0	0	0	0	0	521	130	
1	0	0	0	0	520	129	
2	0	0	0	0	520	130	
3	0	0	0	0	521	130	
4	0	0	0	0	522	129	
5	0	0	0	0	524	130	
6	0	0	0	0	526	129	
7	0	0	0	0	526	130	
8	0	0	0	0	526	129	
9	0	0	0	0	527	129	
10	0	0	0	0	527	130	
11	0	0	0	0	527	128	
12	0	0	0	0	528	130	
13	0	0	0	0	528	130	
14	0	0	0	0	528	129	
15	0	0	0	0	527	129	
0	0	0	0	0	527	130	
1	0	0	0	0	526	130	
2	0	0	0	0	526	129	
3	0	0	0	0	525	130	
4	0	0	0	0	525	129	
5	0	0	0	0	525	130	
6	0	0	0	0	526	129	
7	0	0	0	0	526	129	
8	0	0	0	0	526	130	
9	0	0	0	0	526	128	
10	0	0	0	0	525	130	
11	0	0	0	0	524	130	
12	0	0	0	0	524	129	
13	0	0	0	0	523	130	
14	0	0	0	0	523	129	
15	0	0	0	0	523	129	
0	0	0	0	0	523	130	
1	0	0	0	0	522	129	
2	0	0	0	0	521	130	
3	0	0	0	0	519	130	
4	0	0	0	0	516	129	
5	0	0	0	0	515	130	
6	0	0	0	0	515	128	
7	0	0	0	0	515	130	
8	0	0	0	0	517	130	
9	0	0	0	0	517	129	
10	0	0	0	0	517	130	
11	0	0	0	0	517	129	
12	0	0	0	0	517	130	
13	0	0	0	0	516	130	
14	0	0	0	0	516	129	
15	0	0	0	0	516	130	
0	0	0	0	0	513	129	
1	0	0	0	0	511	130	
2	0	0	0	0	510	130	
3	0	0	0	0	509	129	
4	0	0	0	0	508	130	
5	0	0	0	0	507	129	
6	0	0	0	0	507	130	
7	0	0	0	0	506	130	
8	0	0	0	0	505	129	
9	0	0	0	0	504	130	
10	0	0	0	0	502	129	
11	0	0	0	0	501	129	
12	0	0	0	0	501	130	
13	0	0	0	0	500	129	
14	0	0	0	0	501	130	
15	0	0	0	0	501	129	
0	0	0	0	0	500	129	
1	0	0	0	0	499	130	
2	0	0	0	0	499	129	
3	0	0	0	0	498	129	
4	0	0	0	0	496	130	
5	0	0	0	0	496	129	
6	0	0	0	0	494	130	
7	0	0	0	0	493	130	
8	0	0	0	0	494	129	
9	0	0	0	0	494	130	
10	0	0	0	0	495	130	
11	0	0	0	0	498	129	
12	0	0	0	0	498	130	
13	0	0	0	0	497	130	
14	0	0	0	0	496	129	
15	0	0	0	0	496	130	
0	0	0	0	0	496	130	
1	0	0	0	0	495	129	
2	0	0	0	0	493	130	
3	0	0	0	0	492	130	
4	0	0	0	0	492	129	
5	0	0	0	0	493	130	
6	0	0	0	0	495	129	
7	0	0	0	0	496	129	
8	0	0	0	0	496	130	
9	0	0	0	0	496	129	
10	0	0	0	0	496	130	
11	0	0	0	0	495	130	
12	0	0	0	0	495	129	
13	0	0	0	0	495	130	
14	0	0	0	0	494	130	
15	0	0	0	0	494	129	
0	0	0	0	0	494	129	
1	0	0	0	0	495	130	
2	0	0	0	0	495	129	
3	0	0	0	0	496	130	
4	0	0	0	0	495	130	
5	0	0	0	0	496	129	
6	0	0	0	0	497	130	
7	0	0	0	0	498	130	
8	0	0	0	0	499	129	
9	0	0	0	0	500	130	
10	0	0	0	0	501	129	
11	0	0	0	0	501	129	
12	0	0	0	0	501	130	
13	0	0	0	0	502	129	
14	0	0	0	0	503	130	
15	0	0	0	0	503	130	
0	0	0	0	0	503	129	
1	0	0	0	0	503	130	
2	0	0	0	0	502	129	
3	0	0	0	0	502	130	
4	0	0	0	0	502	129	
5	0	0	0	0	502	129	
6	0	0	0	0	501	130	
7	0	0	0	0	501	129	
8	0	0	0	0	500	130	
9	0	0	0	0	500	130	
10	0	0	0	0	501	129	
11	0	0	0	0	501	130	
12	0	0	0	0	502	130	
13	0	0	0	0	502	129	
14	0	0	0	0	503	130	
15	0	0	0	0	502	129	
0	0	0	0	0	503	130	
1	0	0	0	0	504	130	
2	0	0	0	0	503	129	
3	0	0	0	0	503	130	
4	0	0	0	0	501	130	
5	0	0	0	0	500	129	
6	0	0	0	0	499	130	
7	0	0	0	0	498	129	
8	0	0	0	0	497	130	
9	0	0	0	0	496	130	
10	0	0	0	0	495	129	
11	0	0	0	0	492	130	
12	0	0	0	0	490	129	
13	0	0	0	0	490	129	
14	0	0	0	0	490	130	
15	0	0	0	0	492	129	
0	0	0	0	0	492	130	
1	0	0	0	0	493	129	
2	0	0	0	0	492	130	
3	0	0	0	0	493	130	
4	0	0	0	0	493	129	
5	0	0	0	0	494	130	
6	0	0	0	0	494	129	
7	0	0	0	0	496	129	
8	0	0	0	0	496	130	
9	0	0	0	0	496	129	
10	0	0	0	0	495	130	
11	0	0	0	0	494	130	
12	0	0	0	0	495	129	
13	0	0	0	0	496	130	
14	0	0	0	0	497	130	
15	0	0	0	0	498	129	
0	0	0	0	0	499	130	
1	0	0	0	0	500	130	
2	0	0	0	0	500	129	
3	0	0	0	0	501	130	
4	0	0	0	0	503	129	
5	0	0	0	0	504	130	
6	0	0	0	0	505	130	
7	0	0	0	0	504	129	
8	0	0	0	0	506	130	
9	0	0	0	0	508	129	
10	0	0	0	0	508	129	
11	0	0	0	0	509	130	
12	0	0	0	0	509	129	
13	0	0	0	0	508	129	
14	0	0	0	0	508	130	
15	0	0	0	0	509	129	
0	0	0	0	0	509	130	
1	0	0	0	0	508	129	
2	0	0	0	0	508	130	
3	0	0	0	0	510	130	
4	0	0	0	0	511	129	
5	0	0	0	0	512	130	
6	0	0	0	0	512	129	
7	0	0	0	0	511	130	
8	0	0	0	0	511	129	
9	0	0	0	0	512	130	
10	0	0	0	0	512	130	
11	0	0	0	0	514	129	
12	0	0	0	0	515	130	
13	0	0	0	0	516	129	
14	0	0	0	0	517	130	
15	0	0	0	0	519	129	
0	0	0	0	0	519	129	
1	0	0	0	0	520	130	
2	0	0	0	0	522	129	
3	0	0	0	0	523	130	
4	0	0	0	0	523	130	
5	0	0	0	0	524	129	
6	0	0	0	0	524	130	
7	0	0	0	0	525	129	
8	0	0	0	0	524	129	
9	0	0	0	0	525	130	
10	0	0	0	0	525	129	
11	0	0	0	0	525	130	
12	0	0	0	0	524	129	
13	0	0	0	0	525	129	
14	0	0	0	0	526	130	
15	0	0	0	0	526	129	
0	0	0	0	0	526	130	
1	0	0	0	0	526	130	
2	0	0	0	0	526	129	
3	0	0	0	0	526	130	
4	0	0	0	0	527	130	
5	0	0	0	0	527	129	
6	0	0	0	0	529	130	
7	0	0	0	0	530	128	
8	0	0	0	0	530	130	
9	0	0	0	0	530	129	
10	0	0	0	0	529	129	
11	0	0	0	0	528	130	
12	0	0	0	0	527	128	
13	0	0	0	0	527	130	
14	0	0	0	0	527	130	
15	0	0	0	0	526	129	
0	0	0	0	0	526	130	
1	0	0	0	0	526	129	
2	0	0	0	0	526	129	
3	0	0	0	0	526	130	
4	0	0	0	0	526	129	
5	0	0	0	0	526	130	
6	0	0	0	0	526	129	
7	0	0	0	0	526	130	
8	0	0	0	0	526	130	
9	0	0	0	0	525	128	
10	0	0	0	0	524	129	
11	0	0	0	0	524	130	
12	0	0	0	0	524	129	
13	0	0	0	0	525	129	
14	0	0	0	0	525	130	
15	0	0	0	0	526	129	
0	0	0	0	0	526	129	
1	0	0	0	0	526	130	
2	0	0	0	0	526	128	
3	0	0	0	0	525	129	
4	0	0	0	0	525	130	
5	0	0	0	0	524	129	
6	0	0	0	0	524	130	
7	0	0	0	0	523	128	
8	0	0	0	0	523	130	
9	0	0	0	0	524	130	
10	0	0	0	0	523	129	
11	0	0	0	0	522	130	
12	0	0	0	0	522	130	
13	0	0	0	0	521	129	
14	0	0	0	0	519	130	
15	0	0	0	0	517	128	
0	0	0	0	0	516	130	
1	0	0	0	0	516	130	
2	0	0	0	0	515	129	
3	0	0	0	0	514	130	
4	0	0	0	0	513	129	
5	0	0	0	0	513	129	
6	0	0	0	0	513	130	
7	0	0	0	0	513	129	
8	0	0	0	0	512	130	
9	0	0	0	0	512	129	
10	0	0	0	0	510	130	
11	0	0	0	0	509	130	
12	0	0	0	0	508	129	
13	0	0	0	0	507	130	
14	0	0	0	0	507	128	
15	0	0	0	0	506	130	
0	0	0	0	0	505	130	
1	0	0	0	0	504	129	
2	0	0	0	0	504	130	
3	0	0	0	0	503	129	
4	0	0	0	0	502	130	
5	0	0	0	0	502	130	
6	0	0	0	0	502	129	
7	0	0	0	0	503	130	
8	0	0	0	0	504	130	
9	0	0	0	0	503	129	
10	0	0	0	0	503	130	
11	0	0	0	0	502	129	
12	0	0	0	0	501	130	
13	0	0	0	0	500	129	
14	0	0	0	0	500	129	
15	0	0	0	0	502	130	
0	0	0	0	0	502	129	
1	0	0	0	0	502	130	
2	0	0	0	0	501	130	
3	0	0	0	0	500	129	
4	0	0	0	0	500	130	
5	0	0	0	0	499	128	
6	0	0	0	0	498	130	
7	0	0	0	0	499	130	
8	0	0	0	0	499	129	
9	0	0	0	0	499	130	
10	0	0	0	0	499	129	
11	0	0	0	0	499	130	
12	0	0	0	0	499	130	
13	0	0	0	0	499	129	
14	0	0	0	0	499	130	
15	0	0	0	0	498	129	
0	0	0	0	0	498	130	
1	0	0	0	0	499	130	
2	0	0	0	0	499	129	
3	0	0	0	0	499	130	
4	0	0	0	0	500	129	
5	0	0	0	0	499	129	
6	0	0	0	0	499	130	
7	0	0	0	0	499	129	
8	0	0	0	0	499	130	
9	0	0	0	0	499	129	
10	0	0	0	0	499	129	
11	0	0	0	0	498	130	
12	0	0	0	0	498	129	
13	0	0	0	0	498	129	
14	0	0	0	0	497	130	
15	0	0	0	0	497	130	
0	0	0	0	0	497	129	
1	0	0	0	0	497	130	
2	0	0	0	0	498	129	
3	0	0	0	0	498	129	
4	0	0	0	0	499	130	
5	0	0	0	0	500	128	
6	0	0	0	0	501	130	
7	0	0	0	0	501	129	
8	0	0	0	0	500	129	
9	0	0	0	0	500	130	
10	0	0	0	0	500	129	
11	0	0	0	0	499	130	
12	0	0	0	0	499	130	
13	0	0	0	0	500	129	
14	0	0	0	0	500	130	
15	0	0	0	0	499	129	
0	0	0	0	0	497	129	
1	0	0	0	0	497	130	
2	0	0	0	0	497	129	
3	0	0	0	0	497	130	
4	0	0	0	0	496	128	
5	0	0	0	0	496	130	
6	0	0	0	0	496	130	
7	0	0	0	0	495	129	
8	0	0	0	0	495	130	
9	0	0	0	0	496	129	
10	0	0	0	0	496	130	
11	0	0	0	0	494	129	
12	0	0	0	0	492	129	
13	0	0	0	0	490	130	
14	0	0	0	0	490	129	
15	0	0	0	0	491	130	
0	0	0	0	0	493	129	
1	0	0	0	0	493	129	
2	0	0	0	0	493	130	
3	0	0	0	0	492	129	
4	0	0	0	0	491	130	
5	0	0	0	0	492	129	
6	0	0	0	0	491	130	
7	0	0	0	0	491	129	
8	0	0	0	0	491	129	
9	0	0	0	0	491	130	
10	0	0	0	0	491	129	
11	0	0	0	0	491	130	
12	0	0	0	0	489	129	
13	0	0	0	0	486	130	
14	0	0	0	0	483	129	
15	0	0	0	0	480	129	
0	0	0	0	0	480	130	
1	0	0	0	0	480	129	
2	0	0	0	0	481	129	
3	0	0	0	0	482	129	
4	0	0	0	0	481	129	
5	0	0	0	0	481	130	
6	0	0	0	0	480	129	
7	0	0	0	0	480	129	
8	0	0	0	0	481	130	
9	0	0	0	0	481	129	
10	0	0	0	0	482	129	
11	0	0	0	0	482	130	
12	0	0	0	0	480	129	
13	0	0	0	0	480	129	
14	0	0	0	0	480	130	
15	0	0	0	0	480	129	
0	0	0	0	0	478	130	
1	0	0	0	0	478	129	
2	0	0	0	0	478	129	
3	0	0	0	0	477	130	
4	0	0	0	0	477	129	
5	0	0	0	0	476	130	
6	0	0	0	0	474	130	
7	0	0	0	0	473	129	
8	0	0	0	0	471	130	
9	0	0	0	0	469	129	
10	0	0	0	0	467	129	
11	0	0	0	0	466	130	
12	0	0	0	0	465	129	
13	0	0	0	0	464	130	
14	0	0	0	0	463	130	
15	0	0	0	0	463	129	
0	0	0	0	0	463	130	
1	0	0	0	0	464	129	
2	0	0	0	0	465	129	
3	0	0	0	0	466	130	
4	0	0	0	0	467	129	
5	0	0	0	0	469	129	
6	0	0	0	0	469	130	
7	0	0	0	0	469	129	
8	0	0	0	0	468	129	
9	0	0	0	0	467	130	
10	0	0	0	0	469	129	
11	0	0	0	0	471	130	
12	0	0	0	0	472	129	
13	0	0	0	0	473	129	
14	0	0	0	0	475	130	
15	0	0	0	0	474	129	
0	0	0	0	0	473	130	
1	0	0	0	0	473	129	
2	0	0	0	0	474	129	
3	0	0	0	0	475	130	
4	0	0	0	0	475	129	
5	0	0	0	0	475	129	
6	0	0	0	0	474	130	
7	0	0	0	0	475	129	
8	0	0	0	0	475	130	
9	0	0	0	0	476	129	
10	0	0	0	0	478	130	
11	0	0	0	0	479	129	
12	0	0	0	0	479	129	
13	0	0	0	0	480	130	
14	0	0	0	0	481	129	
15	0	0	0	0	482	129	
0	0	0	0	0	484	130	
1	0	0	0	0	485	129	
2	0	0	0	0	486	130	
3	0	0	0	0	486	128	
4	0	0	0	0	487	129	
5	0	0	0	0	487	129	
6	0	0	0	0	487	129	
7	0	0	0	0	485	130	
8	0	0	0	0	483	129	
9	0	0	0	0	483	130	
10	0	0	0	0	484	130	
11	0	0	0	0	483	129	
12	0	0	0	0	483	129	
13	0	0	0	0	484	129	
14	0	0	0	0	484	129	
15	0	0	0	0	484	130	
0	0	0	0	0	482	128	
1	0	0	0	0	481	129	
2	0	0	0	0	481	130	
3	0	0	0	0	481	129	
4	0	0	0	0	483	130	
5	0	0	0	0	483	130	
6	0	0	0	0	482	129	
7	0	0	0	0	482	129	
8	0	0	0	0	482	129	
9	0	0	0	0	482	129	
10	0	0	0	0	483	130	
11	0	0	0	0	483	130	
12	0	0	0	0	482	129	
13	0	0	0	0	483	129	
14	0	0	0	0	484	129	
15	0	0	0	0	486	129	
0	0	0	0	0	488	130	
1	0	0	0	0	493	129	
2	0	0	0	0	498	129	
3	0	0	0	0	506	129	
4	0	0	0	0	513	129	
5	0	0	0	0	522	129	
6	0	0	0	0	531	128	
7	0	0	0	0	542	129	
8	0	0	0	0	553	130	
9	0	0	0	0	566	128	
10	0	0	0	0	577	129	
11	0	0	0	0	586	128	
12	0	0	0	0	595	129	
13	0	0	0	0	604	129	
14	0	0	0	0	610	128	
15	0	0	0	0	616	129	
0	0	0	0	0	622	128	
1	0	0	0	0	627	129	
2	0	0	0	0	630	129	
3	0	0	0	0	632	128	
4	0	0	0	0	634	129	
5	0	0	0	0	635	127	
6	0	0	0	0	634	129	
7	0	0	0	0	631	130	
8	0	0	0	0	624	127	
9	0	0	0	0	617	129	
10	0	0	0	0	610	129	
11	0	0	0	0	604	128	
12	0	0	0	0	599	129	
13	0	0	0	0	594	128	
14	0	0	0	0	589	129	
15	0	0	0	0	583	129	
0	0	0	0	0	575	128	
1	0	0	0	0	564	129	
2	0	0	0	0	554	129	
3	0	0	0	0	543	129	
4	0	0	0	0	532	129	
5	0	0	0	0	519	128	
6	0	0	0	0	508	129	
7	0	0	0	0	497	129	
8	0	0	0	0	487	129	
9	0	0	0	0	479	129	
10	0	0	0	0	472	129	
11	0	0	0	0	467	129	
12	0	0	0	0	463	129	
13	0	0	0	0	458	129	
14	0	0	0	0	454	129	
15	0	0	0	0	451	129	
0	0	0	0	0	449	129	
1	0	0	0	0	448	130	
2	0	0	0	0	448	129	
3	0	0	0	0	447	130	
4	0	0	0	0	448	129	
5	0	0	0	0	449	129	
6	0	0	0	0	451	130	
7	0	0	0	0	455	129	
8	0	0	0	0	457	130	
9	0	0	0	0	459	129	
10	0	0	0	0	460	129	
11	0	0	0	0	463	129	
12	0	0	0	0	464	129	
13	0	0	0	0	466	129	
14	0	0	0	0	468	129	
15	0	0	0	0	470	129	
0	0	0	0	0	472	130	
1	0	0	0	0	472	129	
2	0	0	0	0	474	129	
3	0	0	0	0	475	128	
4	0	0	0	0	475	129	
5	0	0	0	0	476	130	
6	0	0	0	0	476	129	
7	0	0	0	0	477	129	
8	0	0	0	0	480	130	
9	0	0	0	0	483	129	
10	0	0	0	0	485	130	
11	0	0	0	0	488	129	
12	0	0	0	0	490	129	
13	0	0	0	0	492	130	
14	0	0	0	0	493	129	
15	0	0	0	0	493	129	
0	0	0	0	0	493	128	
1	0	0	0	0	493	129	
2	0	0	0	0	494	129	
3	0	0	0	0	493	129	
4	0	0	0	0	492	130	
5	0	0	0	0	492	129	
6	0	0	0	0	491	129	
7	0	0	0	0	490	128	
8	0	0	0	0	490	129	
9	0	0	0	0	490	128	
10	0	0	0	0	491	129	
11	0	0	0	0	492	129	
12	0	0	0	0	492	128	
13	0	0	0	0	493	129	
14	0	0	0	0	495	128	
15	0	0	0	0	497	129	
0	0	0	0	0	499	130	
1	0	0	0	0	499	129	
2	0	0	0	0	501	129	
3	0	0	0	0	502	128	
4	0	0	0	0	503	129	
5	0	0	0	0	502	129	
6	0	0	0	0	502	129	
7	0	0	0	0	501	129	
8	0	0	0	0	501	128	
9	0	0	0	0	503	129	
10	0	0	0	0	504	129	
11	0	0	0	0	507	129	
12	0	0	0	0	507	129	
13	0	0	0	0	507	128	
14	0	0	0	0	507	129	
15	0	0	0	0	508	129	
0	0	0	0	0	508	129	
1	0	0	0	0	507	130	
2	0	0	0	0	506	129	
3	0	0	0	0	505	129	
4	0	0	0	0	505	128	
5	0	0	0	0	505	129	
6	0	0	0	0	507	129	
7	0	0	0	0	507	129	
8	0	0	0	0	508	130	
9	0	0	0	0	507	128	
10	0	0	0	0	508	129	
11	0	0	0	0	508	128	
12	0	0	0	0	508	129	
13	0	0	0	0	508	130	
14	0	0	0	0	507	128	
15	0	0	0	0	507	129	
0	0	0	0	0	508	128	
1	0	0	0	0	508	129	
2	0	0	0	0	508	129	
3	0	0	0	0	507	129	
4	0	0	0	0	507	129	
5	0	0	0	0	507	128	
6	0	0	0	0	507	129	
7	0	0	0	0	507	128	
8	0	0	0	0	508	129	
9	0	0	0	0	509	129	
10	0	0	0	0	510	128	
11	0	0	0	0	511	129	
12	0	0	0	0	512	128	
13	0	0	0	0	513	129	
14	0	0	0	0	514	128	
15	0	0	0	0	515	129	
0	0	0	0	0	514	129	
1	0	0	0	0	513	129	
2	0	0	0	0	512	129	
3	0	0	0	0	511	128	
4	0	0	0	0	511	129	
5	0	0	0	0	511	129	
6	0	0	0	0	510	128	
7	0	0	0	0	510	129	
8	0	0	0	0	508	128	
9	0	0	0	0	509	129	
10	0	0	0	0	510	129	
11	0	0	0	0	511	129	
12	0	0	0	0	511	129	
13	0	0	0	0	512	129	
14	0	0	0	0	513	128	
15	0	0	0	0	513	129	
0	0	0	0	0	513	129	
1	0	0	0	0	514	129	
2	0	0	0	0	513	129	
3	0	0	0	0	513	128	
4	0	0	0	0	512	129	
5	0	0	0	0	513	129	
6	0	0	0	0	512	129	
7	0	0	0	0	512	129	
8	0	0	0	0	512	128	
9	0	0	0	0	513	129	
10	0	0	0	0	514	128	
11	0	0	0	0	516	129	
12	0	0	0	0	516	129	
13	0	0	0	0	518	128	
14	0	0	0	0	519	129	
15	0	0	0	0	520	129	
0	0	0	0	0	523	128	
1	0	0	0	0	525	129	
2	0	0	0	0	527	128	
3	0	0	0	0	528	129	
4	0	0	0	0	529	128	
5	0	0	0	0	531	129	
6	0	0	0	0	531	129	
7	0	0	0	0	531	128	
8	0	0	0	0	531	129	
9	0	0	0	0	530	128	
10	0	0	0	0	529	129	
11	0	0	0	0	529	129	
12	0	0	0	0	530	128	
13	0	0	0	0	531	129	
14	0	0	0	0	532	128	
15	0	0	0	0	532	129	
0	0	0	0	0	533	128	
1	0	0	0	0	535	129	
2	0	0	0	0	537	129	
3	0	0	0	0	538	128	
4	0	0	0	0	538	129	
5	0	0	0	0	538	128	
6	0	0	0	0	538	129	
7	0	0	0	0	537	129	
8	0	0	0	0	537	128	
9	0	0	0	0	538	129	
10	0	0	0	0	539	129	
11	0	0	0	0	539	128	
12	0	0	0	0	540	129	
13	0	0	0	0	540	128	
14	0	0	0	0	541	129	
15	0	0	0	0	543	129	
0	0	0	0	0	545	128	
1	0	0	0	0	547	129	
2	0	0	0	0	547	129	
3	0	0	0	0	548	128	
4	0	0	0	0	548	129	
5	0	0	0	0	548	128	
6	0	0	0	0	547	129	
7	0	0	0	0	548	128	
8	0	0	0	0	550	129	
9	0	0	0	0	550	129	
10	0	0	0	0	551	128	
11	0	0	0	0	552	129	
12	0	0	0	0	553	128	
13	0	0	0	0	555	129	
14	0	0	0	0	556	129	
15	0	0	0	0	557	128	
0	0	0	0	0	558	129	
1	0	0	0	0	559	128	
2	0	0	0	0	559	128	
3	0	0	0	0	559	129	
4	0	0	0	0	560	129	
5	0	0	0	0	560	128	
6	0	0	0	0	560	129	
7	0	0	0	0	560	128	
8	0	0	0	0	561	129	
9	0	0	0	0	561	129	
10	0	0	0	0	560	128	
11	0	0	0	0	560	129	
12	0	0	0	0	560	127	
13	0	0	0	0	561	129	
14	0	0	0	0	561	129	
15	0	0	0	0	561	128	
0	0	0	0	0	561	129	
1	0	0	0	0	561	129	
2	0	0	0	0	561	128	
3	0	0	0	0	562	129	
4	0	0	0	0	562	128	
5	0	0	0	0	562	129	
6	0	0	0	0	561	128	
7	0	0	0	0	561	129	
8	0	0	0	0	560	129	
9	0	0	0	0	559	128	
10	0	0	0	0	560	129	
11	0	0	0	0	560	127	
12	0	0	0	0	560	129	
13	0	0	0	0	560	129	
14	0	0	0	0	560	128	
15	0	0	0	0	562	129	
0	0	0	0	0	562	128	
1	0	0	0	0	562	128	
2	0	0	0	0	562	129	
3	0	0	0	0	562	128	
4	0	0	0	0	561	129	
5	0	0	0	0	560	129	
6	0	0	0	0	559	128	
7	0	0	0	0	558	129	
8	0	0	0	0	558	128	
9	0	0	0	0	558	129	
10	0	0	0	0	559	129	
11	0	0	0	0	559	128	
12	0	0	0	0	560	129	
13	0	0	0	0	561	128	
14	0	0	0	0	560	129	
15	0	0	0	0	559	129	
0	0	0	0	0	560	127	
1	0	0	0	0	560	129	
2	0	0	0	0	559	129	
3	0	0	0	0	558	128	
4	0	0	0	0	559	129	
5	0	0	0	0	558	128	
6	0	0	0	0	558	129	
7	0	0	0	0	559	127	
8	0	0	0	0	559	129	
9	0	0	0	0	559	129	
10	0	0	0	0	559	128	
11	0	0	0	0	560	129	
12	0	0	0	0	561	128	
13	0	0	0	0	561	129	
14	0	0	0	0	561	129	
15	0	0	0	0	562	128	
0	0	0	0	0	563	129	
1	0	0	0	0	563	127	
2	0	0	0	0	563	128	
3	0	0	0	0	563	129	
4	0	0	0	0	563	128	
5	0	0	0	0	563	129	
6	0	0	0	0	563	129	
7	0	0	0	0	563	128	
8	0	0	0	0	563	129	
9	0	0	0	0	562	128	
10	0	0	0	0	562	129	
11	0	0	0	0	562	129	
12	0	0	0	0	560	127	
13	0	0	0	0	560	129	
14	0	0	0	0	558	128	
15	0	0	0	0	556	129	
0	0	0	0	0	552	129	
1	0	0	0	0	551	128	
2	0	0	0	0	550	129	
3	0	0	0	0	549	129	
4	0	0	0	0	548	128	
5	0	0	0	0	548	129	
6	0	0	0	0	546	128	
7	0	0	0	0	545	129	
8	0	0	0	0	545	128	
9	0	0	0	0	548	128	
10	0	0	0	0	551	129	
11	0	0	0	0	551	128	
12	0	0	0	0	551	129	
13	0	0	0	0	550	128	
14	0	0	0	0	548	129	
15	0	0	0	0	548	129	
0	0	0	0	0	547	127	
1	0	0	0	0	545	129	
2	0	0	0	0	545	129	
3	0	0	0	0	544	128	
4	0	0	0	0	542	129	
5	0	0	0	0	538	128	
6	0	0	0	0	534	129	
7	0	0	0	0	530	129	
8	0	0	0	0	526	128	
9	0	0	0	0	522	129	
10	0	0	0	0	518	128	
11	0	0	0	0	515	129	
12	0	0	0	0	512	129	
13	0	0	0	0	510	128	
14	0	0	0	0	508	129	
15	0	0	0	0	508	129	
0	0	0	0	0	508	128	
1	0	0	0	0	508	129	
2	0	0	0	0	507	129	
3	0	0	0	0	505	128	
4	0	0	0	0	503	129	
5	0	0	0	0	501	128	
6	0	0	0	0	497	129	
7	0	0	0	0	495	129	
8	0	0	0	0	492	128	
9	0	0	0	0	487	129	
10	0	0	0	0	484	128	
11	0	0	0	0	483	129	
12	0	0	0	0	481	129	
13	0	0	0	0	480	129	
14	0	0	0	0	480	129	
15	0	0	0	0	480	128	
0	0	0	0	0	479	129	
1	0	0	0	0	480	128	
2	0	0	0	0	482	129	
3	0	0	0	0	483	129	
4	0	0	0	0	480	128	
5	0	0	0	0	477	129	
6	0	0	0	0	472	128	
7	0	0	0	0	468	129	
8	0	0	0	0	465	129	
9	0	0	0	0	463	129	
10	0	0	0	0	459	129	
11	0	0	0	0	455	128	
12	0	0	0	0	452	129	
13	0	0	0	0	451	129	
14	0	0	0	0	450	128	
15	0	0	0	0	450	129	
0	0	0	0	0	450	129	
1	0	0	0	0	449	128	
2	0	0	0	0	448	129	
3	0	0	0	0	448	129	
4	0	0	0	0	447	129	
5	0	0	0	0	447	129	
6	0	0	0	0	449	129	
7	0	0	0	0	453	128	
8	0	0	0	0	456	129	
9	0	0	0	0	461	129	
10	0	0	0	0	466	129	
11	0	0	0	0	470	129	
12	0	0	0	0	471	129	
13	0	0	0	0	472	128	
14	0	0	0	0	474	129	
15	0	0	0	0	475	128	
0	0	0	0	0	475	129	
1	0	0	0	0	475	129	
2	0	0	0	0	473	128	
3	0	0	0	0	472	129	
4	0	0	0	0	471	129	
5	0	0	0	0	468	128	
6	0	0	0	0	468	129	
7	0	0	0	0	467	128	
8	0	0	0	0	467	129	
9	0	0	0	0	466	129	
10	0	0	0	0	467	128	
11	0	0	0	0	467	129	
12	0	0	0	0	467	128	
13	0	0	0	0	467	129	
14	0	0	0	0	468	129	
15	0	0	0	0	469	128	
0	0	0	0	0	470	129	
1	0	0	0	0	470	129	
2	0	0	0	0	470	128	
3	0	0	0	0	468	129	
4	0	0	0	0	467	128	
5	0	0	0	0	465	129	
6	0	0	0	0	463	129	
7	0	0	0	0	463	129	
8	0	0	0	0	464	129	
9	0	0	0	0	466	128	
10	0	0	0	0	467	129	
11	0	0	0	0	469	129	
12	0	0	0	0	471	128	
13	0	0	0	0	472	129	
14	0	0	0	0	472	129	
15	0	0	0	0	475	128	
0	0	0	0	0	478	129	
1	0	0	0	0	481	129	
2	0	0	0	0	483	128	
3	0	0	0	0	484	129	
4	0	0	0	0	486	129	
5	0	0	0	0	488	128	
6	0	0	0	0	489	129	
7	0	0	0	0	489	128	
8	0	0	0	0	490	129	
9	0	0	0	0	491	129	
10	0	0	0	0	492	128	
11	0	0	0	0	493	129	
12	0	0	0	0	492	128	
13	0	0	0	0	492	129	
14	0	0	0	0	494	129	
15	0	0	0	0	493	128	
0	0	0	0	0	494	129	
1	0	0	0	0	495	129	
2	0	0	0	0	494	128	
3	0	0	0	0	496	129	
4	0	0	0	0	496	128	
5	0	0	0	0	495	129	
6	0	0	0	0	495	128	
7	0	0	0	0	496	129	
8	0	0	0	0	497	129	
9	0	0	0	0	498	128	
10	0	0	0	0	500	129	
11	0	0	0	0	503	128	
12	0	0	0	0	504	129	
13	0	0	0	0	506	129	
14	0	0	0	0	506	128	
15	0	0	0	0	506	129	
0	0	0	0	0	506	128	
1	0	0	0	0	506	128	
2	0	0	0	0	506	129	
3	0	0	0	0	506	129	
4	0	0	0	0	508	128	
5	0	0	0	0	508	129	
6	0	0	0	0	508	128	
7	0	0	0	0	510	129	
8	0	0	0	0	512	129	
9	0	0	0	0	514	128	
10	0	0	0	0	514	129	
11	0	0	0	0	512	128	
12	0	0	0	0	511	129	
13	0	0	0	0	510	129	
14	0	0	0	0	509	128	
15	0	0	0	0	508	129	
0	0	0	0	0	507	128	
1	0	0	0	0	504	129	
2	0	0	0	0	504	129	
3	0	0	0	0	504	128	
4	0	0	0	0	505	129	
5	0	0	0	0	505	128	
6	0	0	0	0	506	129	
7	0	0	0	0	508	129	
8	0	0	0	0	508	128	
9	0	0	0	0	508	129	
10	0	0	0	0	507	128	
11	0	0	0	0	506	129	
12	0	0	0	0	505	129	
13	0	0	0	0	505	128	
14	0	0	0	0	506	129	
15	0	0	0	0	507	129	
0	0	0	0	0	507	128	
1	0	0	0	0	507	129	
2	0	0	0	0	505	129	
3	0	0	0	0	504	128	
4	0	0	0	0	502	129	
5	0	0	0	0	503	129	
6	0	0	0	0	502	128	
7	0	0	0	0	503	129	
8	0	0	0	0	504	128	
9	0	0	0	0	505	129	
10	0	0	0	0	505	129	
11	0	0	0	0	506	128	
12	0	0	0	0	505	129	
13	0	0	0	0	505	128	
14	0	0	0	0	504	129	
15	0	0	0	0	502	129	
0	0	0	0	0	501	129	
1	0	0	0	0	500	129	
2	0	0	0	0	500	129	
3	0	0	0	0	499	129	
4	0	0	0	0	499	128	
5	0	0	0	0	499	129	
6	0	0	0	0	499	128	
7	0	0	0	0	499	129	
8	0	0	0	0	497	129	
9	0	0	0	0	496	128	
10	0	0	0	0	496	129	
11	0	0	0	0	496	128	
12	0	0	0	0	496	129	
13	0	0	0	0	496	128	
14	0	0	0	0	497	129	
15	0	0	0	0	497	129	
0	0	0	0	0	498	128	
1	0	0	0	0	499	129	
2	0	0	0	0	499	128	
3	0	0	0	0	499	129	
4	0	0	0	0	498	129	
5	0	0	0	0	497	128	
6	0	0	0	0	496	128	
7	0	0	0	0	495	129	
8	0	0	0	0	494	128	
9	0	0	0	0	493	129	
10	0	0	0	0	493	129	
11	0	0	0	0	493	128	
12	0	0	0	0	492	129	
13	0	0	0	0	493	128	
14	0	0	0	0	492	129	
15	0	0	0	0	492	128	
0	0	0	0	0	492	129	
1	0	0	0	0	493	129	
2	0	0	0	0	493	129	
3	0	0	0	0	494	129	
4	0	0	0	0	494	129	
5	0	0	0	0	495	129	
6	0	0	0	0	495	128	
7	0	0	0	0	496	129	
8	0	0	0	0	496	128	
9	0	0	0	0	497	129	
10	0	0	0	0	497	129	
11	0	0	0	0	497	128	
12	0	0	0	0	497	129	
13	0	0	0	0	497	128	
14	0	0	0	0	497	129	
15	0	0	0	0	498	128	
0	0	0	0	0	498	129	
1	0	0	0	0	497	129	
2	0	0	0	0	496	128	
3	0	0	0	0	496	129	
4	0	0	0	0	496	129	
5	0	0	0	0	498	128	
6	0	0	0	0	499	129	
7	0	0	0	0	500	129	
8	0	0	0	0	502	128	
9	0	0	0	0	504	129	
10	0	0	0	0	505	128	
11	0	0	0	0	508	129	
12	0	0	0	0	509	129	
13	0	0	0	0	510	128	
14	0	0	0	0	511	129	
15	0	0	0	0	511	128	
0	0	0	0	0	513	129	
1	0	0	0	0	515	129	
2	0	0	0	0	516	128	
3	0	0	0	0	519	129	
4	0	0	0	0	520	129	
5	0	0	0	0	520	128	
6	0	0	0	0	521	129	
7	0	0	0	0	521	128	
8	0	0	0	0	520	129	
9	0	0	0	0	521	128	
10	0	0	0	0	522	129	
11	0	0	0	0	522	129	
12	0	0	0	0	523	128	
13	0	0	0	0	524	129	
14	0	0	0	0	524	129	
15	0	0	0	0	526	128	
0	0	0	0	0	527	129	
1	0	0	0	0	528	128	
2	0	0	0	0	529	129	
3	0	0	0	0	529	127	
4	0	0	0	0	530	129	
5	0	0	0	0	530	128	
6	0	0	0	0	529	128	
7	0	0	0	0	528	129	
8	0	0	0	0	526	128	
9	0	0	0	0	525	129	
10	0	0	0	0	524	128	
11	0	0	0	0	523	129	
12	0	0	0	0	523	129	
13	0	0	0	0	523	128	
14	0	0	0	0	524	129	
15	0	0	0	0	525	128	
0	0	0	0	0	527	129	
1	0	0	0	0	528	127	
2	0	0	0	0	530	129	
3	0	0	0	0	531	129	
4	0	0	0	0	531	128	
5	0	0	0	0	532	129	
6	0	0	0	0	531	127	
7	0	0	0	0	528	129	
8	0	0	0	0	527	129	
9	0	0	0	0	525	128	
10	0	0	0	0	524	129	
11	0	0	0	0	523	127	
12	0	0	0	0	522	129	
13	0	0	0	0	520	129	
14	0	0	0	0	518	128	
15	0	0	0	0	516	129	
0	0	0	0	0	516	128	
1	0	0	0	0	518	129	
2	0	0	0	0	521	129	
3	0	0	0	0	522	128	
4	0	0	0	0	523	129	
5	0	0	0	0	524	128	
6	0	0	0	0	524	128	
7	0	0	0	0	524	129	
8	0	0	0	0	523	127	
9	0	0	0	0	524	129	
10	0	0	0	0	526	128	
11	0	0	0	0	527	128	
12	0	0	0	0	528	129	
13	0	0	0	0	529	127	
14	0	0	0	0	527	129	
15	0	0	0	0	527	129	
0	0	0	0	0	525	128	
1	0	0	0	0	523	129	
2	0	0	0	0	522	127	
3	0	0	0	0	521	129	
4	0	0	0	0	519	129	
5	0	0	0	0	519	128	
6	0	0	0	0	520	129	
7	0	0	0	0	520	127	
8	0	0	0	0	521	129	
9	0	0	0	0	520	127	
10	0	0	0	0	520	129	
11	0	0	0	0	519	129	
12	0	0	0	0	519	128	
13	0	0	0	0	519	129	
14	0	0	0	0	519	128	
15	0	0	0	0	519	129	
0	0	0	0	0	518	128	
1	0	0	0	0	517	128	
2	0	0	0	0	516	129	
3	0	0	0	0	514	127	
4	0	0	0	0	512	129	
5	0	0	0	0	512	129	
6	0	0	0	0	512	128	
7	0	0	0	0	512	129	
8	0	0	0	0	513	127	
9	0	0	0	0	513	129	
10	0	0	0	0	513	129	
11	0	0	0	0	512	128	
12	0	0	0	0	513	129	
13	0	0	0	0	512	128	
14	0	0	0	0	511	128	
15	0	0	0	0	510	129	
0	0	0	0	0	510	128	
1	0	0	0	0	508	129	
2	0	0	0	0	508	127	
3	0	0	0	0	507	129	
4	0	0	0	0	506	129	
5	0	0	0	0	506	128	
6	0	0	0	0	505	129	
7	0	0	0	0	505	129	
8	0	0	0	0	505	128	
9	0	0	0	0	506	129	
10	0	0	0	0	507	128	
11	0	0	0	0	507	129	
12	0	0	0	0	508	129	
13	0	0	0	0	508	128	
14	0	0	0	0	508	129	
15	0	0	0	0	508	127	
0	0	0	0	0	508	129	
1	0	0	0	0	509	129	
2	0	0	0	0	510	128	
3	0	0	0	0	510	129	
4	0	0	0	0	513	129	
5	0	0	0	0	517	128	
6	0	0	0	0	519	129	
7	0	0	0	0	518	127	
8	0	0	0	0	517	128	
9	0	0	0	0	516	129	
10	0	0	0	0	515	128	
11	0	0	0	0	514	129	
12	0	0	0	0	512	129	
13	0	0	0	0	509	128	
14	0	0	0	0	506	129	
15	0	0	0	0	504	127	
0	0	0	0	0	502	129	
1	0	0	0	0	501	129	
2	0	0	0	0	500	128	
3	0	0	0	0	499	129	
4	0	0	0	0	499	127	
5	0	0	0	0	499	129	
6	0	0	0	0	500	129	
7	0	0	0	0	502	128	
8	0	0	0	0	505	129	
9	0	0	0	0	507	127	
10	0	0	0	0	508	129	
11	0	0	0	0	511	129	
12	0	0	0	0	515	128	
13	0	0	0	0	517	129	
14	0	0	0	0	517	127	
15	0	0	0	0	517	129	
0	0	0	0	0	517	129	
1	0	0	0	0	517	128	
2	0	0	0	0	515	129	
3	0	0	0	0	512	127	
4	0	0	0	0	511	129	
5	0	0	0	0	510	128	
6	0	0	0	0	510	129	
7	0	0	0	0	511	129	
8	0	0	0	0	511	127	
9	0	0	0	0	510	129	
10	0	0	0	0	511	129	
11	0	0	0	0	511	128	
12	0	0	0	0	511	129	
13	0	0	0	0	510	128	
14	0	0	0	0	510	129	
15	0	0	0	0	510	129	
0	0	0	0	0	509	128	
1	0	0	0	0	508	129	
2	0	0	0	0	508	128	
3	0	0	0	0	508	129	
4	0	0	0	0	508	127	
5	0	0	0	0	508	128	
6	0	0	0	0	508	129	
7	0	0	0	0	509	128	
8	0	0	0	0	509	128	
9	0	0	0	0	508	129	
10	0	0	0	0	507	128	
11	0	0	0	0	508	128	
12	0	0	0	0	509	129	
13	0	0	0	0	509	128	
14	0	0	0	0	508	129	
15	0	0	0	0	507	127	
0	0	0	0	0	506	129	
1	0	0	0	0	504	129	
2	0	0	0	0	503	128	
3	0	0	0	0	501	129	
4	0	0	0	0	499	128	
5	0	0	0	0	498	128	
6	0	0	0	0	497	129	
7	0	0	0	0	496	128	
8	0	0	0	0	496	129	
9	0	0	0	0	496	127	
10	0	0	0	0	495	128	
11	0	0	0	0	495	129	
12	0	0	0	0	495	127	
13	0	0	0	0	496	129	
14	0	0	0	0	496	129	
15	0	0	0	0	497	127	
0	0	0	0	0	499	129	
1	0	0	0	0	501	128	
2	0	0	0	0	502	129	
3	0	0	0	0	502	129	
4	0	0	0	0	501	128	
5	0	0	0	0	500	129	
6	0	0	0	0	497	127	
7	0	0	0	0	495	129	
8	0	0	0	0	492	129	
9	0	0	0	0	489	128	
10	0	0	0	0	488	129	
11	0	0	0	0	489	128	
12	0	0	0	0	490	129	
13	0	0	0	0	491	129	
14	0	0	0	0	493	127	
15	0	0	0	0	494	129	
0	0	0	0	0	492	128	
1	0	0	0	0	493	128	
2	0	0	0	0	496	129	
3	0	0	0	0	498	128	
4	0	0	0	0	500	128	
5	0	0	0	0	500	129	
6	0	0	0	0	500	128	
7	0	0	0	0	501	129	
8	0	0	0	0	502	127	
9	0	0	0	0	502	129	
10	0	0	0	0	503	129	
11	0	0	0	0	501	128	
12	0	0	0	0	501	129	
13	0	0	0	0	501	127	
14	0	0	0	0	500	129	
15	0	0	0	0	500	129	
0	0	0	0	0	499	128	
1	0	0	0	0	499	129	
2	0	0	0	0	499	127	
3	0	0	0	0	500	129	
4	0	0	0	0	500	128	
5	0	0	0	0	500	128	
6	0	0	0	0	499	129	
7	0	0	0	0	499	128	
8	0	0	0	0	499	129	
9	0	0	0	0	499	127	
10	0	0	0	0	500	129	
11	0	0	0	0	501	128	
12	0	0	0	0	503	129	
13	0	0	0	0	504	129	
14	0	0	0	0	504	128	
15	0	0	0	0	504	129	
0	0	0	0	0	503	127	
1	0	0	0	0	503	129	
2	0	0	0	0	503	129	
3	0	0	0	0	502	128	
4	0	0	0	0	501	129	
5	0	0	0	0	501	127	
6	0	0	0	0	500	129	
7	0	0	0	0	501	128	
8	0	0	0	0	503	128	
9	0	0	0	0	504	129	
10	0	0	0	0	506	128	
11	0	0	0	0	505	129	
12	0	0	0	0	505	127	
13	0	0	0	0	503	128	
14	0	0	0	0	502	129	
15	0	0	0	0	503	127	
0	0	0	0	0	503	129	
1	0	0	0	0	503	127	
2	0	0	0	0	505	129	
3	0	0	0	0	505	129	
4	0	0	0	0	507	128	
5	0	0	0	0	508	129	
6	0	0	0	0	508	127	
7	0	0	0	0	508	129	
8	0	0	0	0	506	128	
9	0	0	0	0	505	128	
10	0	0	0	0	504	129	
11	0	0	0	0	504	127	
12	0	0	0	0	504	129	
13	0	0	0	0	504	127	
14	0	0	0	0	503	129	
15	0	0	0	0	502	129	
0	0	0	0	0	502	128	
1	0	0	0	0	504	129	
2	0	0	0	0	504	128	
3	0	0	0	0	505	129	
4	0	0	0	0	504	129	
5	0	0	0	0	504	128	
6	0	0	0	0	503	129	
7	0	0	0	0	504	127	
8	0	0	0	0	504	128	
9	0	0	0	0	505	129	
10	0	0	0	0	504	128	
11	0	0	0	0	504	129	
12	0	0	0	0	505	128	
13	0	0	0	0	506	127	
14	0	0	0	0	507	129	
15	0	0	0	0	507	129	
0	0	0	0	0	508	128	
1	0	0	0	0	508	129	
2	0	0	0	0	508	127	
3	0	0	0	0	507	129	
4	0	0	0	0	505	128	
5	0	0	0	0	504	128	
6	0	0	0	0	503	129	
7	0	0	0	0	502	127	
8	0	0	0	0	501	129	
9	0	0	0	0	502	128	
10	0	0	0	0	503	129	
11	0	0	0	0	503	129	
12	0	0	0	0	503	128	
13	0	0	0	0	503	129	
14	0	0	0	0	502	127	
15	0	0	0	0	503	129	
0	0	0	0	0	503	128	
1	0	0	0	0	504	129	
2	0	0	0	0	504	129	
3	0	0	0	0	503	128	
4	0	0	0	0	502	129	
5	0	0	0	0	500	127	
6	0	0	0	0	499	129	
7	0	0	0	0	496	127	
8	0	0	0	0	495	129	
9	0	0	0	0	494	129	
10	0	0	0	0	492	128	
11	0	0	0	0	492	129	
12	0	0	0	0	492	127	
13	0	0	0	0	494	129	
14	0	0	0	0	497	129	
15	0	0	0	0	499	127	
0	0	0	0	0	500	129	
1	0	0	0	0	501	128	
2	0	0	0	0	500	128	
3	0	0	0	0	498	129	
4	0	0	0	0	497	127	
5	0	0	0	0	496	129	
6	0	0	0	0	495	127	
7	0	0	0	0	494	129	
8	0	0	0	0	492	129	
9	0	0	0	0	491	128	
10	0	0	0	0	492	129	
11	0	0	0	0	492	128	
12	0	0	0	0	491	129	
13	0	0	0	0	489	129	
14	0	0	0	0	489	128	
15	0	0	0	0	491	129	
0	0	0	0	0	493	127	
1	0	0	0	0	497	129	
2	0	0	0	0	502	129	
3	0	0	0	0	505	127	
4	0	0	0	0	510	129	
5	0	0	0	0	512	127	
6	0	0	0	0	512	129	
7	0	0	0	0	511	128	
8	0	0	0	0	510	127	
9	0	0	0	0	505	129	
10	0	0	0	0	504	128	
11	0	0	0	0	504	128	
12	0	0	0	0	503	129	
13	0	0	0	0	503	128	
14	0	0	0	0	504	128	
15	0	0	0	0	504	129	
0	0	0	0	0	503	127	
1	0	0	0	0	503	129	
2	0	0	0	0	502	129	
3	0	0	0	0	500	127	
4	0	0	0	0	500	129	
5	0	0	0	0	500	127	
6	0	0	0	0	501	128	
7	0	0	0	0	502	129	
8	0	0	0	0	504	128	
9	0	0	0	0	507	129	
10	0	0	0	0	508	127	
11	0	0	0	0	508	129	
12	0	0	0	0	507	128	
13	0	0	0	0	508	127	
14	0	0	0	0	508	128	
15	0	0	0	0	509	127	
0	0	0	0	0	508	129	
1	0	0	0	0	508	128	
2	0	0	0	0	508	128	
3	0	0	0	0	509	129	
4	0	0	0	0	509	128	
5	0	0	0	0	509	129	
6	0	0	0	0	508	127	
7	0	0	0	0	508	129	
8	0	0	0	0	507	128	
9	0	0	0	0	507	128	
10	0	0	0	0	507	129	
11	0	0	0	0	507	127	
12	0	0	0	0	507	129	
13	0	0	0	0	507	128	
14	0	0	0	0	507	128	
15	0	0	0	0	506	129	
0	0	0	0	0	506	127	
1	0	0	0	0	507	129	
2	0	0	0	0	507	129	
3	0	0	0	0	507	127	
4	0	0	0	0	507	129	
5	0	0	0	0	508	128	
6	0	0	0	0	508	128	
7	0	0	0	0	506	129	
8	0	0	0	0	505	128	
9	0	0	0	0	505	129	
10	0	0	0	0	504	127	
11	0	0	0	0	505	128	
12	0	0	0	0	505	129	
13	0	0	0	0	506	127	
14	0	0	0	0	508	129	
15	0	0	0	0	511	127	
0	0	0	0	0	515	129	
1	0	0	0	0	516	128	
2	0	0	0	0	515	128	
3	0	0	0	0	514	129	
4	0	0	0	0	513	127	
5	0	0	0	0	515	129	
6	0	0	0	0	517	127	
7	0	0	0	0	518	128	
8	0	0	0	0	519	129	
9	0	0	0	0	519	128	
10	0	0	0	0	518	129	
11	0	0	0	0	516	127	
12	0	0	0	0	515	129	
13	0	0	0	0	514	127	
14	0	0	0	0	512	128	
15	0	0	0	0	509	128	
0	0	0	0	0	507	128	
1	0	0	0	0	506	129	
2	0	0	0	0	505	127	
3	0	0	0	0	505	129	
4	0	0	0	0	505	128	
5	0	0	0	0	506	128	
6	0	0	0	0	507	129	
7	0	0	0	0	508	127	
8	0	0	0	0	508	129	
9	0	0	0	0	507	128	
10	0	0	0	0	504	128	
11	0	0	0	0	503	129	
12	0	0	0	0	501	128	
13	0	0	0	0	500	129	
14	0	0	0	0	498	127	
15	0	0	0	0	496	129	
0	0	0	0	0	495	128	
1	0	0	0	0	494	129	
2	0	0	0	0	492	129	
3	0	0	0	0	491	128	
4	0	0	0	0	489	129	
5	0	0	0	0	487	127	
6	0	0	0	0	487	129	
7	0	0	0	0	487	129	
8	0	0	0	0	487	127	
9	0	0	0	0	487	129	
10	0	0	0	0	487	129	
11	0	0	0	0	489	127	
12	0	0	0	0	489	129	
13	0	0	0	0	489	129	
14	0	0	0	0	489	127	
15	0	0	0	0	489	129	
0	0	0	0	0	489	129	
1	0	0	0	0	489	128	
2	0	0	0	0	488	129	
3	0	0	0	0	487	127	
4	0	0	0	0	486	128	
5	0	0	0	0	486	129	
6	0	0	0	0	487	127	
7	0	0	0	0	486	129	
8	0	0	0	0	486	129	
9	0	0	0	0	486	127	
10	0	0	0	0	486	129	
11	0	0	0	0	486	129	
12	0	0	0	0	487	127	
13	0	0	0	0	487	129	
14	0	0	0	0	488	129	
15	0	0	0	0	491	128	
0	0	0	0	0	495	129	
1	0	0	0	0	496	128	
2	0	0	0	0	497	128	
3	0	0	0	0	499	129	
4	0	0	0	0	499	127	
5	0	0	0	0	501	128	
6	0	0	0	0	503	129	
7	0	0	0	0	504	129	
8	0	0	0	0	503	127	
9	0	0	0	0	503	129	
10	0	0	0	0	503	129	
11	0	0	0	0	502	127	
12	0	0	0	0	501	128	
13	0	0	0	0	500	128	
14	0	0	0	0	499	129	
15	0	0	0	0	499	128	
0	0	0	0	0	499	128	
1	0	0	0	0	499	129	
2	0	0	0	0	499	129	
3	0	0	0	0	498	127	
4	0	0	0	0	498	128	
5	0	0	0	0	499	129	
6	0	0	0	0	500	127	
7	0	0	0	0	501	129	
8	0	0	0	0	502	129	
9	0	0	0	0	502	127	
10	0	0	0	0	502	129	
11	0	0	0	0	501	127	
12	0	0	0	0	501	128	
13	0	0	0	0	502	129	
14	0	0	0	0	501	127	
15	0	0	0	0	502	129	
0	0	0	0	0	502	129	
1	0	0	0	0	502	128	
2	0	0	0	0	502	128	
3	0	0	0	0	502	128	
4	0	0	0	0	502	128	
5	0	0	0	0	505	128	
6	0	0	0	0	508	127	
7	0	0	0	0	513	129	
8	0	0	0	0	519	128	
9	0	0	0	0	527	128	
10	0	0	0	0	536	129	
11	0	0	0	0	545	127	
12	0	0	0	0	556	128	
13	0	0	0	0	567	127	
14	0	0	0	0	578	128	
15	0	0	0	0	588	128	
0	0	0	0	0	599	127	
1	0	0	0	0	608	128	
2	0	0	0	0	616	127	
3	0	0	0	0	622	128	
4	0	0	0	0	627	129	
5	0	0	0	0	635	127	
6	0	0	0	0	640	128	
7	0	0	0	0	645	127	
8	0	0	0	0	650	128	
9	0	0	0	0	653	127	
10	0	0	0	0	654	127	
11	0	0	0	0	655	128	
12	0	0	0	0	654	127	
13	0	0	0	0	652	128	
14	0	0	0	0	646	127	
15	0	0	0	0	640	128	
0	0	0	0	0	633	129	
1	0	0	0	0	625	127	
2	0	0	0	0	617	128	
3	0	0	0	0	610	127	
4	0	0	0	0	601	128	
5	0	0	0	0	593	128	
6	0	0	0	0	584	127	
7	0	0	0	0	574	128	
8	0	0	0	0	563	127	
9	0	0	0	0	551	128	
10	0	0	0	0	539	128	
11	0	0	0	0	526	128	
12	0	0	0	0	513	129	
13	0	0	0	0	500	127	
14	0	0	0	0	490	128	
15	0	0	0	0	481	129	
0	0	0	0	0	473	128	
1	0	0	0	0	465	129	
2	0	0	0	0	458	127	
3	0	0	0	0	452	128	
4	0	0	0	0	447	129	
5	0	0	0	0	443	128	
6	0	0	0	0	440	129	
7	0	0	0	0	438	128	
8	0	0	0	0	436	129	
9	0	0	0	0	436	129	
10	0	0	0	0	438	128	
11	0	0	0	0	441	129	
12	0	0	0	0	444	128	
13	0	0	0	0	448	129	
14	0	0	0	0	451	127	
15	0	0	0	0	454	128	
0	0	0	0	0	457	129	
1	0	0	0	0	459	128	
2	0	0	0	0	462	129	
3	0	0	0	0	464	127	
4	0	0	0	0	465	128	
5	0	0	0	0	465	127	
6	0	0	0	0	466	129	
7	0	0	0	0	467	129	
8	0	0	0	0	467	128	
9	0	0	0	0	467	129	
10	0	0	0	0	467	127	
11	0	0	0	0	467	128	
12	0	0	0	0	468	129	
13	0	0	0	0	468	128	
14	0	0	0	0	469	129	
15	0	0	0	0	469	127	
0	0	0	0	0	469	129	
1	0	0	0	0	469	129	
2	0	0	0	0	469	128	
3	0	0	0	0	469	128	
4	0	0	0	0	468	127	
5	0	0	0	0	467	128	
6	0	0	0	0	466	129	
7	0	0	0	0	465	128	
8	0	0	0	0	464	129	
9	0	0	0	0	465	127	
10	0	0	0	0	465	129	
11	0	0	0	0	465	129	
12	0	0	0	0	466	128	
13	0	0	0	0	465	128	
14	0	0	0	0	464	127	
15	0	0	0	0	463	128	
0	0	0	0	0	463	129	
1	0	0	0	0	463	128	
2	0	0	0	0	463	128	
3	0	0	0	0	463	127	
4	0	0	0	0	463	128	
5	0	0	0	0	463	129	
6	0	0	0	0	462	128	
7	0	0	0	0	462	129	
8	0	0	0	0	463	127	
9	0	0	0	0	463	128	
10	0	0	0	0	463	127	
11	0	0	0	0	464	128	
12	0	0	0	0	464	129	
13	0	0	0	0	466	128	
14	0	0	0	0	467	128	
15	0	0	0	0	467	127	
0	0	0	0	0	466	128	
1	0	0	0	0	465	127	
2	0	0	0	0	466	129	
3	0	0	0	0	465	129	
4	0	0	0	0	465	128	
5	0	0	0	0	465	129	
6	0	0	0	0	465	127	
7	0	0	0	0	465	129	
8	0	0	0	0	466	127	
9	0	0	0	0	467	128	
10	0	0	0	0	467	128	
11	0	0	0	0	467	128	
12	0	0	0	0	467	129	
13	0	0	0	0	467	127	
14	0	0	0	0	469	128	
15	0	0	0	0	469	127	
0	0	0	0	0	469	128	
1	0	0	0	0	470	129	
2	0	0	0	0	470	127	
3	0	0	0	0	471	129	
4	0	0	0	0	472	127	
5	0	0	0	0	472	128	
6	0	0	0	0	472	129	
7	0	0	0	0	472	127	
8	0	0	0	0	472	129	
9	0	0	0	0	472	127	
10	0	0	0	0	473	128	
11	0	0	0	0	474	128	
12	0	0	0	0	474	128	
13	0	0	0	0	475	129	
14	0	0	0	0	475	128	
15	0	0	0	0	475	129	
0	0	0	0	0	476	127	
1	0	0	0	0	476	128	
2	0	0	0	0	477	129	
3	0	0	0	0	477	127	
4	0	0	0	0	477	128	
5	0	0	0	0	477	129	
6	0	0	0	0	477	127	
7	0	0	0	0	478	128	
8	0	0	0	0	479	129	
9	0	0	0	0	479	127	
10	0	0	0	0	480	129	
11	0	0	0	0	481	129	
12	0	0	0	0	482	127	
13	0	0	0	0	483	128	
14	0	0	0	0	484	128	
15	0	0	0	0	485	127	
0	0	0	0	0	485	128	
1	0	0	0	0	486	128	
2	0	0	0	0	487	127	
3	0	0	0	0	487	128	
4	0	0	0	0	488	128	
5	0	0	0	0	489	127	
6	0	0	0	0	490	128	
7	0	0	0	0	491	128	
8	0	0	0	0	492	127	
9	0	0	0	0	493	128	
10	0	0	0	0	493	128	
11	0	0	0	0	495	127	
12	0	0	0	0	496	128	
13	0	0	0	0	496	127	
14	0	0	0	0	498	128	
15	0	0	0	0	499	128	
0	0	0	0	0	499	127	
1	0	0	0	0	500	128	
2	0	0	0	0	501	129	
3	0	0	0	0	502	127	
4	0	0	0	0	502	128	
5	0	0	0	0	503	127	
6	0	0	0	0	504	128	
7	0	0	0	0	504	128	
8	0	0	0	0	505	128	
9	0	0	0	0	507	129	
10	0	0	0	0	507	127	
11	0	0	0	0	508	128	
12	0	0	0	0	507	127	
13	0	0	0	0	508	128	
14	0	0	0	0	508	127	
15	0	0	0	0	508	128	
0	0	0	0	0	508	127	
1	0	0	0	0	508	128	
2	0	0	0	0	508	128	
3	0	0	0	0	508	127	
4	0	0	0	0	508	128	
5	0	0	0	0	508	127	
6	0	0	0	0	508	128	
7	0	0	0	0	508	127	
8	0	0	0	0	508	128	
9	0	0	0	0	508	129	
10	0	0	0	0	508	127	
11	0	0	0	0	509	128	
12	0	0	0	0	510	127	
13	0	0	0	0	511	128	
14	0	0	0	0	512	128	
15	0	0	0	0	514	127	
0	0	0	0	0	514	128	
1	0	0	0	0	514	127	
2	0	0	0	0	514	128	
3	0	0	0	0	515	127	
4	0	0	0	0	515	128	
5	0	0	0	0	515	127	
6	0	0	0	0	515	128	
7	0	0	0	0	515	128	
8	0	0	0	0	515	128	
9	0	0	0	0	516	129	
10	0	0	0	0	518	127	
11	0	0	0	0	519	128	
12	0	0	0	0	520	127	
13	0	0	0	0	521	128	
14	0	0	0	0	522	127	
15	0	0	0	0	523	128	
0	0	0	0	0	524	129	
1	0	0	0	0	524	127	
2	0	0	0	0	526	128	
3	0	0	0	0	527	127	
4	0	0	0	0	528	128	
5	0	0	0	0	529	128	
6	0	0	0	0	531	127	
7	0	0	0	0	531	128	
8	0	0	0	0	531	127	
9	0	0	0	0	532	128	
10	0	0	0	0	534	127	
11	0	0	0	0	535	128	
12	0	0	0	0	536	128	
13	0	0	0	0	536	128	
14	0	0	0	0	536	128	
15	0	0	0	0	537	127	
0	0	0	0	0	537	128	
1	0	0	0	0	537	127	
2	0	0	0	0	538	128	
3	0	0	0	0	539	127	
4	0	0	0	0	540	128	
5	0	0	0	0	540	128	
6	0	0	0	0	541	127	
7	0	0	0	0	542	128	
8	0	0	0	0	543	127	
9	0	0	0	0	543	127	
10	0	0	0	0	543	128	
11	0	0	0	0	543	127	
12	0	0	0	0	544	128	
13	0	0	0	0	544	128	
14	0	0	0	0	545	127	
15	0	0	0	0	545	128	
0	0	0	0	0	545	127	
1	0	0	0	0	546	128	
2	0	0	0	0	546	127	
3	0	0	0	0	547	127	
4	0	0	0	0	547	128	
5	0	0	0	0	548	127	
6	0	0	0	0	549	128	
7	0	0	0	0	550	127	
8	0	0	0	0	551	128	
9	0	0	0	0	552	128	
10	0	0	0	0	553	127	
11	0	0	0	0	553	128	
12	0	0	0	0	553	127	
13	0	0	0	0	554	127	
14	0	0	0	0	554	128	
15	0	0	0	0	554	127	
0	0	0	0	0	555	128	
1	0	0	0	0	555	127	
2	0	0	0	0	555	127	
3	0	0	0	0	556	128	
4	0	0	0	0	557	127	
5	0	0	0	0	558	128	
6	0	0	0	0	558	127	
7	0	0	0	0	558	128	
8	0	0	0	0	556	128	
9	0	0	0	0	554	127	
10	0	0	0	0	553	128	
11	0	0	0	0	553	127	
12	0	0	0	0	553	128	
13	0	0	0	0	552	128	
14	0	0	0	0	551	127	
15	0	0	0	0	551	128	
0	0	0	0	0	551	127	
1	0	0	0	0	551	128	
2	0	0	0	0	551	127	
3	0	0	0	0	551	128	
4	0	0	0	0	551	128	
5	0	0	0	0	552	127	
6	0	0	0	0	554	128	
7	0	0	0	0	555	127	
8	0	0	0	0	555	128	
9	0	0	0	0	555	127	
10	0	0	0	0	555	128	
11	0	0	0	0	556	127	
12	0	0	0	0	556	128	
13	0	0	0	0	556	127	
14	0	0	0	0	556	128	
15	0	0	0	0	556	127	
0	0	0	0	0	556	127	
1	0	0	0	0	554	128	
2	0	0	0	0	553	127	
3	0	0	0	0	554	128	
4	0	0	0	0	553	128	
5	0	0	0	0	554	127	
6	0	0	0	0	554	128	
7	0	0	0	0	554	127	
8	0	0	0	0	553	128	
9	0	0	0	0	552	127	
10	0	0	0	0	551	128	
11	0	0	0	0	550	128	
12	0	0	0	0	550	127	
13	0	0	0	0	548	128	
14	0	0	0	0	547	127	
15	0	0	0	0	546	128	
0	0	0	0	0	544	127	
1	0	0	0	0	542	128	
2	0	0	0	0	541	128	
3	0	0	0	0	540	127	
4	0	0	0	0	540	128	
5	0	0	0	0	539	127	
6	0	0	0	0	539	128	
7	0	0	0	0	537	128	
8	0	0	0	0	536	127	
9	0	0	0	0	533	128	
10	0	0	0	0	532	127	
11	0	0	0	0	530	128	
12	0	0	0	0	528	128	
13	0	0	0	0	527	127	
14	0	0	0	0	524	128	
15	0	0	0	0	523	127	
0	0	0	0	0	521	128	
1	0	0	0	0	518	127	
2	0	0	0	0	517	128	
3	0	0	0	0	515	128	
4	0	0	0	0	512	127	
5	0	0	0	0	511	128	
6	0	0	0	0	510	127	
7	0	0	0	0	507	128	
8	0	0	0	0	505	127	
9	0	0	0	0	504	128	
10	0	0	0	0	501	128	
11	0	0	0	0	499	127	
12	0	0	0	0	497	128	
13	0	0	0	0	495	127	
14	0	0	0	0	493	128	
15	0	0	0	0	492	127	
0	0	0	0	0	490	128	
1	0	0	0	0	488	128	
2	0	0	0	0	487	127	
3	0	0	0	0	486	128	
4	0	0	0	0	484	127	
5	0	0	0	0	483	128	
6	0	0	0	0	481	127	
7	0	0	0	0	480	128	
8	0	0	0	0	478	128	
9	0	0	0	0	477	127	
10	0	0	0	0	476	128	
11	0	0	0	0	474	127	
12	0	0	0	0	473	128	
13	0	0	0	0	473	127	
14	0	0	0	0	471	128	
15	0	0	0	0	470	128	
0	0	0	0	0	469	127	
1	0	0	0	0	468	128	
2	0	0	0	0	467	127	
3	0	0	0	0	467	128	
4	0	0	0	0	466	127	
5	0	0	0	0	464	128	
6	0	0	0	0	464	128	
7	0	0	0	0	463	128	
8	0	0	0	0	462	128	
9	0	0	0	0	461	127	
10	0	0	0	0	460	128	
11	0	0	0	0	459	129	
12	0	0	0	0	457	128	
13	0	0	0	0	455	128	
14	0	0	0	0	455	127	
15	0	0	0	0	453	128	
0	0	0	0	0	453	129	
1	0	0	0	0	451	127	
2	0	0	0	0	448	128	
3	0	0	0	0	447	127	
4	0	0	0	0	444	128	
5	0	0	0	0	444	129	
6	0	0	0	0	444	128	
7	0	0	0	0	444	128	
8	0	0	0	0	444	127	
9	0	0	0	0	441	128	
10	0	0	0	0	440	127	
11	0	0	0	0	439	128	
12	0	0	0	0	439	128	
13	0	0	0	0	438	128	
14	0	0	0	0	438	128	
15	0	0	0	0	439	127	
0	0	0	0	0	438	128	
1	0	0	0	0	438	127	
2	0	0	0	0	436	128	
3	0	0	0	0	436	129	
4	0	0	0	0	436	128	
5	0	0	0	0	437	128	
6	0	0	0	0	438	127	
7	0	0	0	0	438	128	
8	0	0	0	0	440	129	
9	0	0	0	0	443	128	
10	0	0	0	0	445	128	
11	0	0	0	0	446	127	
12	0	0	0	0	447	128	
13	0	0	0	0	448	128	
14	0	0	0	0	449	128	
15	0	0	0	0	449	128	
0	0	0	0	0	450	127	
1	0	0	0	0	451	128	
2	0	0	0	0	452	127	
3	0	0	0	0	453	128	
4	0	0	0	0	454	127	
5	0	0	0	0	454	128	
6	0	0	0	0	455	128	
7	0	0	0	0	457	128	
8	0	0	0	0	457	129	
9	0	0	0	0	458	127	
10	0	0	0	0	459	128	
11	0	0	0	0	460	127	
12	0	0	0	0	461	128	
13	0	0	0	0	461	128	
14	0	0	0	0	461	128	
15	0	0	0	0	460	129	
0	0	0	0	0	460	128	
1	0	0	0	0	460	128	
2	0	0	0	0	460	127	
3	0	0	0	0	460	128	
4	0	0	0	0	460	127	
5	0	0	0	0	461	128	
6	0	0	0	0	461	129	
7	0	0	0	0	460	127	
8	0	0	0	0	459	128	
9	0	0	0	0	460	127	
10	0	0	0	0	459	128	
11	0	0	0	0	458	128	
12	0	0	0	0	458	128	
13	0	0	0	0	459	128	
14	0	0	0	0	459	127	
15	0	0	0	0	459	128	
0	0	0	0	0	460	127	
1	0	0	0	0	459	128	
2	0	0	0	0	459	127	
3	0	0	0	0	458	128	
4	0	0	0	0	458	128	
5	0	0	0	0	458	128	
6	0	0	0	0	457	129	
7	0	0	0	0	459	127	
8	0	0	0	0	459	128	
9	0	0	0	0	460	128	
10	0	0	0	0	461	127	
11	0	0	0	0	463	128	
12	0	0	0	0	464	128	
13	0	0	0	0	465	128	
14	0	0	0	0	466	129	
15	0	0	0	0	467	127	
0	0	0	0	0	467	128	
1	0	0	0	0	468	127	
2	0	0	0	0	468	128	
3	0	0	0	0	469	129	
4	0	0	0	0	469	127	
5	0	0	0	0	469	128	
6	0	0	0	0	470	127	
7	0	0	0	0	471	128	
8	0	0	0	0	471	127	
9	0	0	0	0	471	128	
10	0	0	0	0	470	128	
11	0	0	0	0	470	127	
12	0	0	0	0	472	128	
13	0	0	0	0	473	127	
14	0	0	0	0	473	128	
15	0	0	0	0	473	128	
0	0	0	0	0	471	128	
1	0	0	0	0	472	128	
2	0	0	0	0	474	127	
3	0	0	0	0	475	128	
4	0	0	0	0	475	127	
5	0	0	0	0	475	128	
6	0	0	0	0	476	128	
7	0	0	0	0	477	128	
8	0	0	0	0	478	129	
9	0	0	0	0	479	127	
10	0	0	0	0	480	128	
11	0	0	0	0	481	127	
12	0	0	0	0	482	128	
13	0	0	0	0	482	128	
14	0	0	0	0	483	128	
15	0	0	0	0	483	129	
0	0	0	0	0	484	128	
1	0	0	0	0	484	128	
2	0	0	0	0	485	127	
3	0	0	0	0	486	129	
4	0	0	0	0	486	127	
5	0	0	0	0	485	128	
6	0	0	0	0	485	128	
7	0	0	0	0	486	128	
8	0	0	0	0	486	128	
9	0	0	0	0	487	128	
10	0	0	0	0	488	127	
11	0	0	0	0	490	128	
12	0	0	0	0	491	128	
13	0	0	0	0	492	128	
14	0	0	0	0	492	129	
15	0	0	0	0	492	127	
0	0	0	0	0	492	128	
1	0	0	0	0	491	127	
2	0	0	0	0	490	128	
3	0	0	0	0	489	128	
4	0	0	0	0	490	128	
5	0	0	0	0	490	129	
6	0	0	0	0	490	128	
7	0	0	0	0	490	129	
8	0	0	0	0	489	128	
9	0	0	0	0	489	129	
10	0	0	0	0	489	127	
11	0	0	0	0	489	128	
12	0	0	0	0	490	128	
13	0	0	0	0	491	128	
14	0	0	0	0	492	129	
15	0	0	0	0	493	127	
0	0	0	0	0	493	129	
1	0	0	0	0	494	127	
2	0	0	0	0	494	128	
3	0	0	0	0	494	127	
4	0	0	0	0	493	128	
5	0	0	0	0	493	128	
6	0	0	0	0	492	128	
7	0	0	0	0	491	128	
8	0	0	0	0	491	127	
9	0	0	0	0	491	128	
10	0	0	0	0	491	128	
11	0	0	0	0	489	128	
12	0	0	0	0	490	129	
13	0	0	0	0	489	127	
14	0	0	0	0	489	129	
15	0	0	0	0	489	127	
0	0	0	0	0	489	129	
1	0	0	0	0	488	127	
2	0	0	0	0	488	128	
3	0	0	0	0	488	129	
4	0	0	0	0	487	128	
5	0	0	0	0	486	129	
6	0	0	0	0	485	127	
7	0	0	0	0	485	128	
8	0	0	0	0	485	127	
9	0	0	0	0	485	129	
10	0	0	0	0	485	128	
11	0	0	0	0	485	128	
12	0	0	0	0	484	129	
13	0	0	0	0	483	128	
14	0	0	0	0	484	129	
15	0	0	0	0	483	127	
0	0	0	0	0	484	128	
1	0	0	0	0	484	127	
2	0	0	0	0	484	128	
3	0	0	0	0	483	127	
4	0	0	0	0	484	129	
5	0	0	0	0	484	128	
6	0	0	0	0	485	128	
7	0	0	0	0	487	129	
8	0	0	0	0	487	128	
9	0	0	0	0	486	129	
10	0	0	0	0	487	127	
11	0	0	0	0	491	129	
12	0	0	0	0	493	128	
13	0	0	0	0	494	128	
14	0	0	0	0	496	128	
15	0	0	0	0	496	127	
0	0	0	0	0	496	128	
1	0	0	0	0	497	129	
2	0	0	0	0	498	127	
3	0	0	0	0	499	128	
4	0	0	0	0	498	129	
5	0	0	0	0	498	127	
6	0	0	0	0	497	129	
7	0	0	0	0	497	128	
8	0	0	0	0	497	128	
9	0	0	0	0	496	129	
10	0	0	0	0	496	127	
11	0	0	0	0	496	129	
12	0	0	0	0	495	129	
13	0	0	0	0	494	127	
14	0	0	0	0	494	128	
15	0	0	0	0	494	129	
0	0	0	0	0	494	127	
1	0	0	0	0	495	128	
2	0	0	0	0	496	129	
3	0	0	0	0	497	127	
4	0	0	0	0	498	128	
5	0	0	0	0	498	129	
6	0	0	0	0	499	127	
7	0	0	0	0	499	129	
8	0	0	0	0	499	128	
9	0	0	0	0	499	128	
10	0	0	0	0	499	129	
11	0	0	0	0	499	129	
12	0	0	0	0	501	127	
13	0	0	0	0	502	128	
14	0	0	0	0	503	129	
15	0	0	0	0	503	127	
0	0	0	0	0	504	129	
1	0	0	0	0	504	128	
2	0	0	0	0	505	128	
3	0	0	0	0	505	129	
4	0	0	0	0	506	127	
5	0	0	0	0	506	128	
6	0	0	0	0	506	129	
7	0	0	0	0	505	128	
8	0	0	0	0	506	129	
9	0	0	0	0	507	129	
10	0	0	0	0	507	128	
11	0	0	0	0	506	129	
12	0	0	0	0	506	127	
13	0	0	0	0	505	128	
14	0	0	0	0	505	129	
15	0	0	0	0	504	127	
0	0	0	0	0	504	129	
1	0	0	0	0	505	127	
2	0	0	0	0	505	128	
3	0	0	0	0	505	129	
4	0	0	0	0	506	128	
5	0	0	0	0	506	129	
6	0	0	0	0	507	127	
7	0	0	0	0	507	129	
8	0	0	0	0	507	128	
9	0	0	0	0	507	128	
10	0	0	0	0	507	129	
11	0	0	0	0	507	127	
12	0	0	0	0	508	129	
13	0	0	0	0	508	127	
14	0	0	0	0	508	128	
15	0	0	0	0	507	128	
0	0	0	0	0	507	128	
1	0	0	0	0	508	129	
2	0	0	0	0	508	128	
3	0	0	0	0	508	129	
4	0	0	0	0	508	127	
5	0	0	0	0	508	129	
6	0	0	0	0	509	128	
7	0	0	0	0	508	128	
8	0	0	0	0	509	129	
9	0	0	0	0	510	128	
10	0	0	0	0	510	129	
11	0	0	0	0	510	127	
12	0	0	0	0	510	129	
13	0	0	0	0	510	127	
14	0	0	0	0	510	128	
15	0	0	0	0	511	129	
0	0	0	0	0	511	128	
1	0	0	0	0	512	129	
2	0	0	0	0	511	127	
3	0	0	0	0	512	129	
4	0	0	0	0	512	129	
5	0	0	0	0	512	128	
6	0	0	0	0	513	129	
7	0	0	0	0	513	127	
8	0	0	0	0	513	128	
9	0	0	0	0	513	129	
10	0	0	0	0	513	127	
11	0	0	0	0	513	129	
12	0	0	0	0	513	127	
13	0	0	0	0	513	129	
14	0	0	0	0	512	128	
15	0	0	0	0	513	129	
0	0	0	0	0	512	129	
1	0	0	0	0	512	128	
2	0	0	0	0	513	129	
3	0	0	0	0	512	128	
4	0	0	0	0	513	129	
5	0	0	0	0	513	127	
6	0	0	0	0	513	129	
7	0	0	0	0	514	129	
8	0	0	0	0	515	128	
9	0	0	0	0	515	129	
10	0	0	0	0	515	127	
11	0	0	0	0	514	129	
12	0	0	0	0	514	128	
13	0	0	0	0	514	129	
14	0	0	0	0	513	129	
15	0	0	0	0	512	128	
0	0	0	0	0	512	129	
1	0	0	0	0	513	127	
2	0	0	0	0	513	129	
3	0	0	0	0	514	128	
4	0	0	0	0	515	129	
5	0	0	0	0	515	128	
6	0	0	0	0	515	129	
7	0	0	0	0	516	128	
8	0	0	0	0	515	129	
9	0	0	0	0	515	128	
10	0	0	0	0	515	129	
11	0	0	0	0	515	128	
12	0	0	0	0	515	129	
13	0	0	0	0	515	129	
14	0	0	0	0	514	128	
15	0	0	0	0	514	129	
0	0	0	0	0	514	128	
1	0	0	0	0	515	129	
2	0	0	0	0	516	128	
3	0	0	0	0	516	129	
4	0	0	0	0	516	128	
5	0	0	0	0	516	129	
6	0	0	0	0	516	127	
7	0	0	0	0	517	129	
8	0	0	0	0	517	127	
9	0	0	0	0	517	129	
10	0	0	0	0	518	128	
11	0	0	0	0	518	129	
12	0	0	0	0	519	128	
13	0	0	0	0	520	129	
14	0	0	0	0	520	128	
15	0	0	0	0	520	129	
0	0	0	0	0	521	128	
1	0	0	0	0	523	129	
2	0	0	0	0	524	129	
3	0	0	0	0	524	128	
4	0	0	0	0	524	129	
5	0	0	0	0	524	127	
6	0	0	0	0	523	129	
7	0	0	0	0	523	128	
8	0	0	0	0	523	129	
9	0	0	0	0	521	128	
10	0	0	0	0	521	129	
11	0	0	0	0	520	128	
12	0	0	0	0	520	129	
13	0	0	0	0	521	129	
14	0	0	0	0	522	128	
15	0	0	0	0	523	129	
0	0	0	0	0	523	127	
1	0	0	0	0	523	129	
2	0	0	0	0	523	127	
3	0	0	0	0	524	129	
4	0	0	0	0	525	127	
5	0	0	0	0	526	129	
6	0	0	0	0	526	129	
7	0	0	0	0	526	129	
8	0	0	0	0	527	129	
9	0	0	0	0	526	128	
10	0	0	0	0	525	129	
11	0	0	0	0	524	128	
12	0	0	0	0	524	129	
13	0	0	0	0	524	129	
14	0	0	0	0	524	129	
15	0	0	0	0	524	128	
0	0	0	0	0	525	129	
1	0	0	0	0	525	127	
2	0	0	0	0	526	129	
3	0	0	0	0	527	128	
4	0	0	0	0	527	129	
5	0	0	0	0	527	129	
6	0	0	0	0	527	128	
7	0	0	0	0	527	129	
8	0	0	0	0	527	128	
9	0	0	0	0	528	129	
10	0	0	0	0	529	128	
11	0	0	0	0	528	129	
12	0	0	0	0	529	127	
13	0	0	0	0	529	129	
14	0	0	0	0	529	128	
15	0	0	0	0	529	129	
0	0	0	0	0	529	129	
1	0	0	0	0	529	129	
2	0	0	0	0	530	129	
3	0	0	0	0	530	128	
4	0	0	0	0	530	129	
5	0	0	0	0	531	128	
6	0	0	0	0	531	129	
7	0	0	0	0	532	127	
8	0	0	0	0	532	129	
9	0	0	0	0	533	128	
10	0	0	0	0	533	129	
11	0	0	0	0	533	129	
12	0	0	0	0	533	129	
13	0	0	0	0	532	129	
14	0	0	0	0	532	128	
15	0	0	0	0	532	129	
0	0	0	0	0	533	128	
1	0	0	0	0	534	129	
2	0	0	0	0	535	128	
3	0	0	0	0	536	128	
4	0	0	0	0	536	129	
5	0	0	0	0	536	128	
6	0	0	0	0	536	129	
7	0	0	0	0	536	127	
8	0	0	0	0	536	129	
9	0	0	0	0	536	128	
10	0	0	0	0	536	129	
11	0	0	0	0	535	128	
12	0	0	0	0	536	128	
13	0	0	0	0	536	129	
14	0	0	0	0	535	128	
15	0	0	0	0	534	129	
0	0	0	0	0	533	128	
1	0	0	0	0	533	129	
2	0	0	0	0	534	129	
3	0	0	0	0	534	128	
4	0	0	0	0	535	129	
5	0	0	0	0	536	128	
6	0	0	0	0	536	129	
7	0	0	0	0	536	128	
8	0	0	0	0	535	129	
9	0	0	0	0	536	128	
10	0	0	0	0	536	129	
11	0	0	0	0	536	128	
12	0	0	0	0	536	129	
13	0	0	0	0	536	129	
14	0	0	0	0	536	128	
15	0	0	0	0	535	129	
0	0	0	0	0	534	128	
1	0	0	0	0	533	129	
2	0	0	0	0	532	128	
3	0	0	0	0	532	129	
4	0	0	0	0	533	129	
5	0	0	0	0	533	128	
6	0	0	0	0	533	129	
7	0	0	0	0	534	128	
8	0	0	0	0	534	129	
9	0	0	0	0	534	128	
10	0	0	0	0	535	129	
11	0	0	0	0	536	128	
12	0	0	0	0	536	129	
13	0	0	0	0	536	129	
14	0	0	0	0	535	128	
15	0	0	0	0	535	129	
0	0	0	0	0	535	128	
1	0	0	0	0	535	129	
2	0	0	0	0	535	129	
3	0	0	0	0	535	129	
4	0	0	0	0	534	129	
5	0	0	0	0	534	128	
6	0	0	0	0	534	129	
7	0	0	0	0	535	128	
8	0	0	0	0	536	129	
9	0	0	0	0	536	128	
10	0	0	0	0	536	129	
11	0	0	0	0	536	128	
12	0	0	0	0	535	129	
13	0	0	0	0	535	129	
14	0	0	0	0	535	129	
15	0	0	0	0	534	129	
0	0	0	0	0	532	128	
1	0	0	0	0	532	129	
2	0	0	0	0	532	128	
3	0	0	0	0	532	129	
4	0	0	0	0	531	128	
5	0	0	0	0	532	129	
6	0	0	0	0	532	128	
7	0	0	0	0	533	129	
8	0	0	0	0	534	128	
9	0	0	0	0	533	129	
10	0	0	0	0	534	129	
11	0	0	0	0	534	128	
12	0	0	0	0	535	129	
13	0	0	0	0	535	128	
14	0	0	0	0	535	129	
15	0	0	0	0	534	128	
0	0	0	0	0	534	129	
1	0	0	0	0	534	129	
2	0	0	0	0	533	128	
3	0	0	0	0	532	129	
4	0	0	0	0	533	129	
5	0	0	0	0	533	128	
6	0	0	0	0	533	129	
7	0	0	0	0	533	129	
8	0	0	0	0	533	129	
9	0	0	0	0	533	129	
10	0	0	0	0	532	128	
11	0	0	0	0	531	129	
12	0	0	0	0	532	129	
13	0	0	0	0	531	128	
14	0	0	0	0	531	129	
15	0	0	0	0	531	128	
0	0	0	0	0	531	129	
1	0	0	0	0	531	129	
2	0	0	0	0	532	129	
3	0	0	0	0	532	129	
4	0	0	0	0	532	128	
5	0	0	0	0	532	129	
6	0	0	0	0	531	128	
7	0	0	0	0	531	129	
8	0	0	0	0	531	129	
9	0	0	0	0	529	129	
10	0	0	0	0	529	130	
11	0	0	0	0	529	129	
12	0	0	0	0	529	129	
13	0	0	0	0	530	128	
14	0	0	0	0	531	129	
15	0	0	0	0	530	128	
0	0	0	0	0	530	129	
1	0	0	0	0	529	129	
2	0	0	0	0	530	129	
3	0	0	0	0	529	130	
4	0	0	0	0	530	129	
5	0	0	0	0	530	129	
6	0	0	0	0	529	128	
7	0	0	0	0	529	129	
8	0	0	0	0	529	129	
9	0	0	0	0	529	128	
10	0	0	0	0	529	129	
11	0	0	0	0	529	128	
12	0	0	0	0	528	129	
13	0	0	0	0	529	129	
14	0	0	0	0	529	129	
15	0	0	0	0	530	130	
0	0	0	0	0	530	128	
1	0	0	0	0	531	129	
2	0	0	0	0	530	128	
3	0	0	0	0	530	129	
4	0	0	0	0	531	128	
5	0	0	0	0	530	129	
6	0	0	0	0	530	130	
7	0	0	0	0	530	129	
8	0	0	0	0	530	129	
9	0	0	0	0	529	128	
10	0	0	0	0	530	129	
11	0	0	0	0	530	128	
12	0	0	0	0	530	129	
13	0	0	0	0	530	129	
14	0	0	0	0	530	129	
15	0	0	0	0	531	130	
0	0	0	0	0	530	128	
1	0	0	0	0	530	129	
2	0	0	0	0	530	129	
3	0	0	0	0	531	129	
4	0	0	0	0	531	130	
5	0	0	0	0	532	129	
6	0	0	0	0	533	129	
7	0	0	0	0	534	128	
8	0	0	0	0	534	129	
9	0	0	0	0	535	130	
10	0	0	0	0	536	129	
11	0	0	0	0	536	130	
12	0	0	0	0	536	128	
13	0	0	0	0	536	130	
14	0	0	0	0	536	129	
15	0	0	0	0	537	129	
0	0	0	0	0	538	130	
1	0	0	0	0	539	128	
2	0	0	0	0	540	130	
3	0	0	0	0	540	128	
4	0	0	0	0	541	129	
5	0	0	0	0	543	130	
6	0	0	0	0	543	129	
7	0	0	0	0	543	130	
8	0	0	0	0	543	128	
9	0	0	0	0	544	129	
10	0	0	0	0	544	129	
11	0	0	0	0	544	129	
12	0	0	0	0	543	130	
13	0	0	0	0	542	128	
14	0	0	0	0	543	130	
15	0	0	0	0	543	128	
0	0	0	0	0	542	129	
1	0	0	0	0	541	130	
2	0	0	0	0	541	128	
3	0	0	0	0	540	129	
4	0	0	0	0	540	130	
5	0	0	0	0	540	129	
6	0	0	0	0	540	130	
7	0	0	0	0	540	128	
8	0	0	0	0	541	130	
9	0	0	0	0	541	129	
10	0	0	0	0	543	129	
11	0	0	0	0	544	130	
12	0	0	0	0	545	129	
13	0	0	0	0	546	130	
14	0	0	0	0	547	129	
15	0	0	0	0	548	130	
0	0	0	0	0	548	129	
1	0	0	0	0	549	129	
2	0	0	0	0	549	130	
3	0	0	0	0	550	128	
4	0	0	0	0	550	130	
5	0	0	0	0	550	129	
6	0	0	0	0	551	129	
7	0	0	0	0	552	130	
8	0	0	0	0	552	129	
9	0	0	0	0	552	129	
10	0	0	0	0	551	130	
11	0	0	0	0	551	129	
12	0	0	0	0	551	130	
13	0	0	0	0	551	129	
14	0	0	0	0	551	129	
15	0	0	0	0	549	130	
0	0	0	0	0	549	129	
1	0	0	0	0	549	130	
2	0	0	0	0	548	129	
3	0	0	0	0	548	130	
4	0	0	0	0	547	129	
5	0	0	0	0	547	129	
6	0	0	0	0	547	130	
7	0	0	0	0	547	129	
8	0	0	0	0	546	130	
9	0	0	0	0	546	129	
10	0	0	0	0	546	130	
11	0	0	0	0	545	130	
12	0	0	0	0	544	129	
13	0	0	0	0	544	130	
14	0	0	0	0	543	129	
15	0	0	0	0	543	130	
0	0	0	0	0	542	130	
1	0	0	0	0	542	129	
2	0	0	0	0	542	130	
3	0	0	0	0	541	129	
4	0	0	0	0	540	130	
5	0	0	0	0	539	130	
6	0	0	0	0	539	129	
7	0	0	0	0	538	130	
8	0	0	0	0	537	129	
9	0	0	0	0	536	130	
10	0	0	0	0	533	130	
11	0	0	0	0	531	129	
12	0	0	0	0	530	130	
13	0	0	0	0	529	129	
14	0	0	0	0	529	130	
15	0	0	0	0	528	129	
0	0	0	0	0	527	130	
1	0	0	0	0	527	130	
2	0	0	0	0	527	130	
3	0	0	0	0	526	130	
4	0	0	0	0	525	129	
5	0	0	0	0	525	130	
6	0	0	0	0	525	129	
7	0	0	0	0	524	130	
8	0	0	0	0	524	129	
9	0	0	0	0	524	130	
10	0	0	0	0	523	130	
11	0	0	0	0	523	130	
12	0	0	0	0	524	131	
13	0	0	0	0	524	130	
14	0	0	0	0	525	131	
15	0	0	0	0	526	129	
0	0	0	0	0	526	130	
1	0	0	0	0	527	129	
2	0	0	0	0	527	130	
3	0	0	0	0	527	131	
4	0	0	0	0	528	130	
5	0	0	0	0	527	130	
6	0	0	0	0	527	129	
7	0	0	0	0	526	131	
8	0	0	0	0	526	130	
9	0	0	0	0	525	130	
10	0	0	0	0	524	131	
11	0	0	0	0	524	129	
12	0	0	0	0	524	131	
13	0	0	0	0	524	130	
14	0	0	0	0	524	130	
15	0	0	0	0	523	131	
0	0	0	0	0	524	129	
1	0	0	0	0	525	131	
2	0	0	0	0	524	130	
3	0	0	0	0	526	131	
4	0	0	0	0	525	131	
5	0	0	0	0	526	130	
6	0	0	0	0	527	131	
7	0	0	0	0	527	129	
8	0	0	0	0	527	131	
9	0	0	0	0	527	129	
10	0	0	0	0	528	131	
11	0	0	0	0	529	130	
12	0	0	0	0	529	130	
13	0	0	0	0	529	131	
14	0	0	0	0	528	130	
15	0	0	0	0	528	131	
0	0	0	0	0	528	130	
1	0	0	0	0	528	131	
2	0	0	0	0	528	130	
3	0	0	0	0	528	131	
4	0	0	0	0	529	129	
5	0	0	0	0	529	131	
6	0	0	0	0	529	129	
7	0	0	0	0	530	131	
8	0	0	0	0	529	129	
9	0	0	0	0	528	131	
10	0	0	0	0	528	130	
11	0	0	0	0	529	130	
12	0	0	0	0	529	131	
13	0	0	0	0	529	130	
14	0	0	0	0	531	131	
15	0	0	0	0	532	129	
0	0	0	0	0	535	131	
1	0	0	0	0	538	129	
2	0	0	0	0	541	131	
3	0	0	0	0	547	129	
4	0	0	0	0	555	131	
5	0	0	0	0	563	130	
6	0	0	0	0	574	130	
7	0	0	0	0	583	131	
8	0	0	0	0	594	129	
9	0	0	0	0	605	131	
10	0	0	0	0	615	129	
11	0	0	0	0	627	131	
12	0	0	0	0	637	129	
13	0	0	0	0	647	130	
14	0	0	0	0	655	131	
15	0	0	0	0	662	129	
0	0	0	0	0	669	131	
1	0	0	0	0	673	129	
2	0	0	0	0	677	130	
3	0	0	0	0	681	130	
4	0	0	0	0	684	129	
5	0	0	0	0	686	131	
6	0	0	0	0	687	128	
7	0	0	0	0	687	130	
8	0	0	0	0	685	130	
9	0	0	0	0	681	129	
10	0	0	0	0	675	131	
11	0	0	0	0	667	129	
12	0	0	0	0	659	131	
13	0	0	0	0	651	129	
14	0	0	0	0	642	130	
15	0	0	0	0	634	131	
0	0	0	0	0	627	129	
1	0	0	0	0	619	131	
2	0	0	0	0	609	129	
3	0	0	0	0	598	130	
4	0	0	0	0	587	131	
5	0	0	0	0	577	129	
6	0	0	0	0	564	131	
7	0	0	0	0	551	129	
8	0	0	0	0	539	131	
9	0	0	0	0	527	131	
10	0	0	0	0	516	130	
11	0	0	0	0	510	131	
12	0	0	0	0	503	131	
13	0	0	0	0	497	130	
14	0	0	0	0	491	131	
15	0	0	0	0	486	131	
0	0	0	0	0	482	130	
1	0	0	0	0	480	131	
2	0	0	0	0	478	131	
3	0	0	0	0	476	131	
4	0	0	0	0	476	131	
5	0	0	0	0	475	130	
6	0	0	0	0	475	131	
7	0	0	0	0	475	130	
8	0	0	0	0	477	131	
9	0	0	0	0	479	131	
10	0	0	0	0	480	130	
11	0	0	0	0	483	131	
12	0	0	0	0	484	130	
13	0	0	0	0	486	131	
14	0	0	0	0	489	130	
15	0	0	0	0	491	130	
0	0	0	0	0	492	131	
1	0	0	0	0	494	130	
2	0	0	0	0	495	131	
3	0	0	0	0	496	130	
4	0	0	0	0	497	131	
5	0	0	0	0	498	131	
6	0	0	0	0	499	130	
7	0	0	0	0	501	131	
8	0	0	0	0	502	131	
9	0	0	0	0	502	130	
10	0	0	0	0	503	131	
11	0	0	0	0	503	131	
12	0	0	0	0	503	130	
13	0	0	0	0	503	131	
14	0	0	0	0	504	130	
15	0	0	0	0	504	131	
0	0	0	0	0	504	130	
1	0	0	0	0	504	131	
2	0	0	0	0	504	130	
3	0	0	0	0	504	131	
4	0	0	0	0	504	131	
5	0	0	0	0	504	130	
6	0	0	0	0	503	131	
7	0	0	0	0	503	130	
8	0	0	0	0	504	131	
9	0	0	0	0	504	131	
10	0	0	0	0	504	130	
11	0	0	0	0	506	131	
12	0	0	0	0	506	130	
13	0	0	0	0	506	131	
14	0	0	0	0	506	130	
15	0	0	0	0	506	131	
0	0	0	0	0	507	131	
1	0	0	0	0	506	131	
2	0	0	0	0	506	131	
3	0	0	0	0	507	130	
4	0	0	0	0	507	131	
5	0	0	0	0	507	130	
6	0	0	0	0	507	131	
7	0	0	0	0	507	131	
8	0	0	0	0	507	131	
9	0	0	0	0	507	131	
10	0	0	0	0	508	130	
11	0	0	0	0	508	131	
12	0	0	0	0	509	130	
13	0	0	0	0	509	131	
14	0	0	0	0	509	131	
15	0	0	0	0	510	131	
0	0	0	0	0	511	131	
1	0	0	0	0	511	131	
2	0	0	0	0	511	131	
3	0	0	0	0	511	130	
4	0	0	0	0	511	131	
5	0	0	0	0	511	130	
6	0	0	0	0	511	131	
7	0	0	0	0	512	130	
8	0	0	0	0	512	131	
9	0	0	0	0	513	130	
10	0	0	0	0	513	130	
11	0	0	0	0	515	131	
12	0	0	0	0	515	130	
13	0	0	0	0	514	131	
14	0	0	0	0	515	130	
15	0	0	0	0	515	131	
0	0	0	0	0	516	130	
1	0	0	0	0	517	131	
2	0	0	0	0	517	130	
3	0	0	0	0	517	131	
4	0	0	0	0	516	130	
5	0	0	0	0	516	131	
6	0	0	0	0	515	130	
7	0	0	0	0	516	131	
8	0	0	0	0	516	131	
9	0	0	0	0	516	130	
10	0	0	0	0	517	131	
11	0	0	0	0	517	131	
12	0	0	0	0	518	131	
13	0	0	0	0	518	131	
14	0	0	0	0	519	130	
15	0	0	0	0	519	131	
0	0	0	0	0	519	130	
1	0	0	0	0	518	131	
2	0	0	0	0	518	131	
3	0	0	0	0	518	131	
4	0	0	0	0	519	131	
5	0	0	0	0	518	130	
6	0	0	0	0	519	131	
7	0	0	0	0	519	130	
8	0	0	0	0	520	131	
9	0	0	0	0	521	130	
10	0	0	0	0	521	131	
11	0	0	0	0	521	130	
12	0	0	0	0	521	131	
13	0	0	0	0	522	130	
14	0	0	0	0	522	131	
15	0	0	0	0	523	130	
0	0	0	0	0	523	131	
1	0	0	0	0	523	130	
2	0	0	0	0	524	131	
3	0	0	0	0	524	130	
4	0	0	0	0	524	131	
5	0	0	0	0	524	131	
6	0	0	0	0	524	131	
7	0	0	0	0	524	131	
8	0	0	0	0	524	130	
9	0	0	0	0	524	131	
10	0	0	0	0	523	130	
11	0	0	0	0	522	131	
12	0	0	0	0	521	130	
13	0	0	0	0	522	131	
14	0	0	0	0	523	130	
15	0	0	0	0	523	131	
0	0	0	0	0	524	130	
1	0	0	0	0	524	131	
2	0	0	0	0	524	130	
3	0	0	0	0	523	131	
4	0	0	0	0	523	131	
5	0	0	0	0	523	130	
6	0	0	0	0	524	131	
7	0	0	0	0	525	130	
8	0	0	0	0	526	131	
9	0	0	0	0	526	130	
10	0	0	0	0	527	131	
11	0	0	0	0	527	131	
12	0	0	0	0	527	131	
13	0	0	0	0	528	131	
14	0	0	0	0	528	130	
15	0	0	0	0	528	131	
0	0	0	0	0	529	130	
1	0	0	0	0	529	131	
2	0	0	0	0	530	131	
3	0	0	0	0	530	131	
4	0	0	0	0	530	132	
5	0	0	0	0	531	131	
6	0	0	0	0	531	131	
7	0	0	0	0	531	130	
8	0	0	0	0	531	131	
9	0	0	0	0	531	130	
10	0	0	0	0	531	131	
11	0	0	0	0	531	131	
12	0	0	0	0	531	131	
13	0	0	0	0	531	131	
14	0	0	0	0	531	130	
15	0	0	0	0	531	131	
0	0	0	0	0	532	131	
1	0	0	0	0	532	131	
2	0	0	0	0	533	131	
3	0	0	0	0	534	131	
4	0	0	0	0	533	131	
5	0	0	0	0	533	131	
6	0	0	0	0	534	130	
7	0	0	0	0	535	131	
8	0	0	0	0	537	132	
9	0	0	0	0	537	131	
10	0	0	0	0	537	132	
11	0	0	0	0	537	131	
12	0	0	0	0	537	132	
13	0	0	0	0	537	131	
14	0	0	0	0	536	131	
15	0	0	0	0	536	130	
0	0	0	0	0	537	132	
1	0	0	0	0	536	131	
2	0	0	0	0	536	131	
3	0	0	0	0	536	132	
4	0	0	0	0	535	131	
5	0	0	0	0	536	131	
6	0	0	0	0	536	130	
7	0	0	0	0	536	131	
8	0	0	0	0	536	131	
9	0	0	0	0	537	131	
10	0	0	0	0	537	131	
11	0	0	0	0	536	131	
12	0	0	0	0	536	131	
13	0	0	0	0	536	131	
14	0	0	0	0	535	132	
15	0	0	0	0	535	131	
0	0	0	0	0	535	132	
1	0	0	0	0	534	131	
2	0	0	0	0	534	132	
3	0	0	0	0	532	130	
4	0	0	0	0	532	132	
5	0	0	0	0	531	131	
6	0	0	0	0	531	131	
7	0	0	0	0	531	131	
8	0	0	0	0	532	131	
9	0	0	0	0	532	131	
10	0	0	0	0	532	131	
11	0	0	0	0	532	131	
12	0	0	0	0	532	131	
13	0	0	0	0	532	132	
14	0	0	0	0	532	131	
15	0	0	0	0	532	132	
0	0	0	0	0	532	131	
1	0	0	0	0	532	132	
2	0	0	0	0	532	131	
3	0	0	0	0	531	132	
4	0	0	0	0	531	131	
5	0	0	0	0	531	132	
6	0	0	0	0	531	131	
7	0	0	0	0	531	132	
8	0	0	0	0	531	132	
9	0	0	0	0	531	131	
10	0	0	0	0	532	132	
11	0	0	0	0	532	131	
12	0	0	0	0	532	132	
13	0	0	0	0	533	131	
14	0	0	0	0	533	132	
15	0	0	0	0	534	132	
0	0	0	0	0	534	131	
1	0	0	0	0	535	132	
2	0	0	0	0	536	131	
3	0	0	0	0	536	132	
4	0	0	0	0	537	131	
5	0	0	0	0	537	132	
6	0	0	0	0	538	131	
7	0	0	0	0	539	132	
8	0	0	0	0	538	132	
9	0	0	0	0	538	131	
10	0	0	0	0	539	132	
11	0	0	0	0	539	131	
12	0	0	0	0	540	132	
13	0	0	0	0	540	131	
14	0	0	0	0	539	132	
15	0	0	0	0	539	131	
0	0	0	0	0	540	132	
1	0	0	0	0	540	131	
2	0	0	0	0	540	132	
3	0	0	0	0	539	132	
4	0	0	0	0	537	131	
5	0	0	0	0	537	132	
6	0	0	0	0	537	131	
7	0	0	0	0	536	132	
8	0	0	0	0	536	131	
9	0	0	0	0	536	132	
10	0	0	0	0	536	131	
11	0	0	0	0	536	132	
12	0	0	0	0	536	131	
13	0	0	0	0	536	132	
14	0	0	0	0	536	131	
15	0	0	0	0	535	132	
0	0	0	0	0	535	131	
1	0	0	0	0	535	132	
2	0	0	0	0	535	131	
3	0	0	0	0	535	132	
4	0	0	0	0	535	131	
5	0	0	0	0	534	132	
6	0	0	0	0	533	131	
7	0	0	0	0	532	132	
8	0	0	0	0	530	132	
9	0	0	0	0	529	132	
10	0	0	0	0	527	132	
11	0	0	0	0	526	131	
12	0	0	0	0	523	132	
13	0	0	0	0	521	131	
14	0	0	0	0	520	132	
15	0	0	0	0	519	131	
0	0	0	0	0	519	132	
1	0	0	0	0	518	132	
2	0	0	0	0	516	132	
3	0	0	0	0	514	132	
4	0	0	0	0	512	131	
5	0	0	0	0	511	132	
6	0	0	0	0	509	131	
7	0	0	0	0	506	132	
8	0	0	0	0	503	131	
9	0	0	0	0	500	132	
10	0	0	0	0	498	131	
11	0	0	0	0	496	132	
12	0	0	0	0	494	131	
13	0	0	0	0	492	132	
14	0	0	0	0	490	131	
15	0	0	0	0	488	132	
0	0	0	0	0	487	131	
1	0	0	0	0	486	132	
2	0	0	0	0	484	131	
3	0	0	0	0	482	132	
4	0	0	0	0	480	132	
5	0	0	0	0	478	132	
6	0	0	0	0	476	132	
7	0	0	0	0	474	132	
8	0	0	0	0	472	133	
9	0	0	0	0	470	132	
10	0	0	0	0	468	132	
11	0	0	0	0	467	131	
12	0	0	0	0	465	132	
13	0	0	0	0	463	132	
14	0	0	0	0	462	132	
15	0	0	0	0	460	132	
0	0	0	0	0	459	132	
1	0	0	0	0	458	133	
2	0	0	0	0	457	132	
3	0	0	0	0	455	132	
4	0	0	0	0	454	132	
5	0	0	0	0	454	132	
6	0	0	0	0	453	132	
7	0	0	0	0	452	132	
8	0	0	0	0	452	132	
9	0	0	0	0	452	132	
10	0	0	0	0	451	131	
11	0	0	0	0	451	132	
12	0	0	0	0	451	131	
13	0	0	0	0	450	132	
14	0	0	0	0	450	133	
15	0	0	0	0	449	132	
0	0	0	0	0	449	133	
1	0	0	0	0	448	132	
2	0	0	0	0	448	132	
3	0	0	0	0	449	131	
4	0	0	0	0	449	132	
5	0	0	0	0	449	132	
6	0	0	0	0	449	132	
7	0	0	0	0	449	132	
8	0	0	0	0	450	132	
9	0	0	0	0	450	133	
10	0	0	0	0	450	132	
11	0	0	0	0	450	133	
12	0	0	0	0	451	132	
13	0	0	0	0	451	132	
14	0	0	0	0	452	131	
15	0	0	0	0	452	132	
0	0	0	0	0	454	132	
1	0	0	0	0	455	132	
2	0	0	0	0	455	133	
3	0	0	0	0	455	132	
4	0	0	0	0	455	133	
5	0	0	0	0	455	132	
6	0	0	0	0	456	132	
7	0	0	0	0	457	132	
8	0	0	0	0	457	132	
9	0	0	0	0	458	132	
10	0	0	0	0	459	133	
11	0	0	0	0	460	132	
12	0	0	0	0	461	132	
13	0	0	0	0	462	131	
14	0	0	0	0	463	132	
15	0	0	0	0	464	132	
0	0	0	0	0	464	132	
1	0	0	0	0	465	132	
2	0	0	0	0	466	132	
3	0	0	0	0	466	131	
4	0	0	0	0	466	132	
5	0	0	0	0	467	132	
6	0	0	0	0	467	132	
7	0	0	0	0	467	133	
8	0	0	0	0	467	132	
9	0	0	0	0	469	133	
10	0	0	0	0	470	132	
11	0	0	0	0	471	133	
12	0	0	0	0	471	131	
13	0	0	0	0	472	132	
14	0	0	0	0	473	131	
15	0	0	0	0	474	132	
0	0	0	0	0	475	131	
1	0	0	0	0	476	132	
2	0	0	0	0	476	131	
3	0	0	0	0	477	132	
4	0	0	0	0	479	131	
5	0	0	0	0	479	133	
6	0	0	0	0	479	131	
7	0	0	0	0	479	132	
8	0	0	0	0	479	131	
9	0	0	0	0	480	132	
10	0	0	0	0	480	131	
11	0	0	0	0	480	132	
12	0	0	0	0	481	132	
13	0	0	0	0	481	132	
14	0	0	0	0	481	131	
15	0	0	0	0	482	132	
0	0	0	0	0	483	131	
1	0	0	0	0	483	133	
2	0	0	0	0	484	132	
3	0	0	0	0	484	132	
4	0	0	0	0	485	132	
5	0	0	0	0	484	132	
6	0	0	0	0	484	133	
7	0	0	0	0	485	131	
8	0	0	0	0	486	132	
9	0	0	0	0	486	131	
10	0	0	0	0	486	132	
11	0	0	0	0	487	131	
12	0	0	0	0	487	132	
13	0	0	0	0	487	131	
14	0	0	0	0	487	132	
15	0	0	0	0	487	131	
0	0	0	0	0	487	132	
1	0	0	0	0	488	131	
2	0	0	0	0	488	132	
3	0	0	0	0	489	132	
4	0	0	0	0	489	131	
5	0	0	0	0	490	132	
6	0	0	0	0	490	131	
7	0	0	0	0	491	132	
8	0	0	0	0	492	131	
9	0	0	0	0	492	132	
10	0	0	0	0	493	131	
11	0	0	0	0	494	132	
12	0	0	0	0	494	131	
13	0	0	0	0	494	132	
14	0	0	0	0	494	131	
15	0	0	0	0	494	132	
0	0	0	0	0	494	131	
1	0	0	0	0	494	132	
2	0	0	0	0	494	132	
3	0	0	0	0	494	132	
4	0	0	0	0	494	133	
5	0	0	0	0	494	132	
6	0	0	0	0	494	133	
7	0	0	0	0	495	132	
8	0	0	0	0	495	132	
9	0	0	0	0	496	131	
10	0	0	0	0	496	132	
11	0	0	0	0	497	131	
12	0	0	0	0	497	132	
13	0	0	0	0	498	131	
14	0	0	0	0	499	132	
15	0	0	0	0	499	132	
0	0	0	0	0	498	132	
1	0	0	0	0	498	132	
2	0	0	0	0	498	132	
3	0	0	0	0	498	133	
4	0	0	0	0	498	132	
5	0	0	0	0	498	133	
6	0	0	0	0	499	132	
7	0	0	0	0	499	133	
8	0	0	0	0	500	132	
9	0	0	0	0	501	132	
10	0	0	0	0	501	131	
11	0	0	0	0	502	133	
12	0	0	0	0	502	131	
13	0	0	0	0	502	133	
14	0	0	0	0	501	131	
15	0	0	0	0	501	132	
0	0	0	0	0	501	131	
1	0	0	0	0	501	132	
2	0	0	0	0	499	131	
3	0	0	0	0	497	132	
4	0	0	0	0	495	132	
5	0	0	0	0	494	132	
6	0	0	0	0	494	132	
7	0	0	0	0	495	132	
8	0	0	0	0	496	133	
9	0	0	0	0	498	131	
10	0	0	0	0	499	133	
11	0	0	0	0	502	131	
12	0	0	0	0	503	132	
13	0	0	0	0	503	131	
14	0	0	0	0	503	132	
15	0	0	0	0	503	131	
0	0	0	0	0	502	132	
1	0	0	0	0	502	132	
2	0	0	0	0	501	132	
3	0	0	0	0	501	132	
4	0	0	0	0	502	132	
5	0	0	0	0	501	132	
6	0	0	0	0	501	131	
7	0	0	0	0	500	132	
8	0	0	0	0	500	131	
9	0	0	0	0	500	132	
10	0	0	0	0	499	131	
11	0	0	0	0	500	132	
12	0	0	0	0	501	131	
13	0	0	0	0	502	132	
14	0	0	0	0	504	132	
15	0	0	0	0	506	131	
0	0	0	0	0	508	132	
1	0	0	0	0	509	131	
2	0	0	0	0	509	132	
3	0	0	0	0	510	131	
4	0	0	0	0	510	132	
5	0	0	0	0	511	131	
6	0	0	0	0	509	132	
7	0	0	0	0	507	132	
8	0	0	0	0	507	132	
9	0	0	0	0	504	132	
10	0	0	0	0	502	131	
11	0	0	0	0	500	132	
12	0	0	0	0	496	131	
13	0	0	0	0	496	132	
14	0	0	0	0	497	132	
15	0	0	0	0	497	131	
0	0	0	0	0	497	132	
1	0	0	0	0	495	131	
2	0	0	0	0	493	132	
3	0	0	0	0	492	131	
4	0	0	0	0	491	132	
5	0	0	0	0	491	131	
6	0	0	0	0	492	132	
7	0	0	0	0	495	132	
8	0	0	0	0	499	131	
9	0	0	0	0	504	132	
10	0	0	0	0	510	132	
11	0	0	0	0	515	132	
12	0	0	0	0	523	131	
13	0	0	0	0	524	132	
14	0	0	0	0	517	131	
15	0	0	0	0	505	132	
0	0	0	0	0	490	132	
1	0	0	0	0	472	132	
2	0	0	0	0	452	132	
3	0	0	0	0	439	132	
4	0	0	0	0	435	132	
5	0	0	0	0	440	131	
6	0	0	0	0	452	132	
7	0	0	0	0	464	131	
8	0	0	0	0	472	132	
9	0	0	0	0	476	131	
10	0	0	0	0	480	132	
11	0	0	0	0	485	131	
12	0	0	0	0	493	132	
13	0	0	0	0	500	132	
14	0	0	0	0	503	132	
15	0	0	0	0	503	132	
0	0	0	0	0	506	132	
1	0	0	0	0	510	131	
2	0	0	0	0	513	132	
3	0	0	0	0	512	132	
4	0	0	0	0	503	131	
5	0	0	0	0	487	132	
6	0	0	0	0	473	131	
7	0	0	0	0	465	132	
8	0	0	0	0	463	132	
9	0	0	0	0	465	132	
10	0	0	0	0	468	132	
11	0	0	0	0	469	131	
12	0	0	0	0	470	132	
13	0	0	0	0	471	132	
14	0	0	0	0	470	132	
15	0	0	0	0	469	132	
0	0	0	0	0	470	131	
1	0	0	0	0	473	132	
2	0	0	0	0	479	131	
3	0	0	0	0	483	132	
4	0	0	0	0	485	131	
5	0	0	0	0	483	132	
6	0	0	0	0	478	131	
7	0	0	0	0	473	132	
8	0	0	0	0	470	132	
9	0	0	0	0	472	132	
10	0	0	0	0	476	132	
11	0	0	0	0	483	131	
12	0	0	0	0	488	132	
13	0	0	0	0	492	132	
14	0	0	0	0	487	132	
15	0	0	0	0	474	132	
0	0	0	0	0	457	132	
1	0	0	0	0	444	132	
2	0	0	0	0	439	131	
3	0	0	0	0	444	132	
4	0	0	0	0	450	131	
5	0	0	0	0	457	132	
6	0	0	0	0	463	132	
7	0	0	0	0	466	132	
8	0	0	0	0	470	132	
9	0	0	0	0	471	132	
10	0	0	0	0	471	132	
11	0	0	0	0	471	132	
12	0	0	0	0	472	132	
13	0	0	0	0	472	131	
14	0	0	0	0	473	132	
15	0	0	0	0	472	131	
0	0	0	0	0	469	132	
1	0	0	0	0	467	131	
2	0	0	0	0	466	132	
3	0	0	0	0	467	131	
4	0	0	0	0	467	132	
5	0	0	0	0	467	131	
6	0	0	0	0	467	132	
7	0	0	0	0	466	131	
8	0	0	0	0	467	132	
9	0	0	0	0	468	131	
10	0	0	0	0	467	132	
11	0	0	0	0	466	132	
12	0	0	0	0	464	132	
13	0	0	0	0	463	132	
14	0	0	0	0	463	132	
15	0	0	0	0	462	132	
0	0	0	0	0	462	132	
1	0	0	0	0	460	132	
2	0	0	0	0	461	132	
3	0	0	0	0	463	132	
4	0	0	0	0	464	132	
5	0	0	0	0	465	132	
6	0	0	0	0	466	132	
7	0	0	0	0	465	132	
8	0	0	0	0	464	131	
9	0	0	0	0	464	132	
10	0	0	0	0	465	131	
11	0	0	0	0	467	132	
12	0	0	0	0	468	131	
13	0	0	0	0	469	132	
14	0	0	0	0	470	131	
15	0	0	0	0	470	132	
0	0	0	0	0	471	131	
1	0	0	0	0	472	132	
2	0	0	0	0	472	131	
3	0	0	0	0	472	132	
4	0	0	0	0	472	131	
5	0	0	0	0	473	132	
6	0	0	0	0	473	131	
7	0	0	0	0	473	132	
8	0	0	0	0	473	132	
9	0	0	0	0	472	131	
10	0	0	0	0	472	132	
11	0	0	0	0	472	131	
12	0	0	0	0	471	132	
13	0	0	0	0	470	131	
14	0	0	0	0	468	132	
15	0	0	0	0	470	132	
0	0	0	0	0	471	131	
1	0	0	0	0	472	132	
2	0	0	0	0	472	131	
3	0	0	0	0	473	132	
4	0	0	0	0	474	132	
5	0	0	0	0	475	131	
6	0	0	0	0	476	132	
7	0	0	0	0	478	131	
8	0	0	0	0	480	132	
9	0	0	0	0	480	131	
10	0	0	0	0	481	132	
11	0	0	0	0	481	132	
12	0	0	0	0	480	132	
13	0	0	0	0	479	132	
14	0	0	0	0	480	132	
15	0	0	0	0	480	132	
0	0	0	0	0	481	131	
1	0	0	0	0	484	132	
2	0	0	0	0	484	131	
3	0	0	0	0	484	132	
4	0	0	0	0	484	131	
5	0	0	0	0	484	132	
6	0	0	0	0	486	132	
7	0	0	0	0	487	132	
8	0	0	0	0	487	132	
9	0	0	0	0	487	131	
10	0	0	0	0	486	132	
11	0	0	0	0	485	131	
12	0	0	0	0	484	132	
13	0	0	0	0	484	132	
14	0	0	0	0	483	131	
15	0	0	0	0	483	132	
0	0	0	0	0	484	131	
1	0	0	0	0	485	132	
2	0	0	0	0	486	131	
3	0	0	0	0	487	132	
4	0	0	0	0	487	132	
5	0	0	0	0	487	131	
6	0	0	0	0	487	132	
7	0	0	0	0	488	131	
8	0	0	0	0	489	132	
9	0	0	0	0	489	131	
10	0	0	0	0	489	132	
11	0	0	0	0	489	131	
12	0	0	0	0	488	132	
13	0	0	0	0	487	132	
14	0	0	0	0	487	131	
15	0	0	0	0	487	132	
0	0	0	0	0	487	131	
1	0	0	0	0	486	132	
2	0	0	0	0	486	132	
3	0	0	0	0	485	131	
4	0	0	0	0	484	132	
5	0	0	0	0	484	131	
6	0	0	0	0	485	132	
7	0	0	0	0	485	131	
8	0	0	0	0	486	132	
9	0	0	0	0	486	132	
10	0	0	0	0	485	131	
11	0	0	0	0	485	132	
12	0	0	0	0	484	131	
13	0	0	0	0	485	132	
14	0	0	0	0	486	132	
15	0	0	0	0	485	131	
0	0	0	0	0	485	132	
1	0	0	0	0	484	131	
2	0	0	0	0	484	132	
3	0	0	0	0	485	132	
4	0	0	0	0	486	131	
5	0	0	0	0	487	132	
6	0	0	0	0	487	131	
7	0	0	0	0	486	132	
8	0	0	0	0	484	132	
9	0	0	0	0	483	131	
10	0	0	0	0	482	132	
11	0	0	0	0	481	131	
12	0	0	0	0	481	132	
13	0	0	0	0	481	131	
14	0	0	0	0	482	132	
15	0	0	0	0	482	132	
0	0	0	0	0	482	131	
1	0	0	0	0	482	132	
2	0	0	0	0	483	131	
3	0	0	0	0	483	132	
4	0	0	0	0	483	132	
5	0	0	0	0	482	131	
6	0	0	0	0	482	132	
7	0	0	0	0	483	131	
8	0	0	0	0	484	132	
9	0	0	0	0	486	132	
10	0	0	0	0	487	131	
11	0	0	0	0	486	132	
12	0	0	0	0	485	131	
13	0	0	0	0	485	132	
14	0	0	0	0	486	131	
15	0	0	0	0	486	132	
0	0	0	0	0	487	132	
1	0	0	0	0	489	131	
2	0	0	0	0	490	132	
3	0	0	0	0	491	131	
4	0	0	0	0	491	132	
5	0	0	0	0	491	132	
6	0	0	0	0	491	131	
7	0	0	0	0	491	132	
8	0	0	0	0	491	131	
9	0	0	0	0	492	132	
10	0	0	0	0	492	131	
11	0	0	0	0	492	131	
12	0	0	0	0	493	132	
13	0	0	0	0	494	131	
14	0	0	0	0	494	132	
15	0	0	0	0	494	131	
0	0	0	0	0	494	131	
1	0	0	0	0	494	132	
2	0	0	0	0	494	131	
3	0	0	0	0	494	132	
4	0	0	0	0	495	132	
5	0	0	0	0	496	131	
6	0	0	0	0	498	132	
7	0	0	0	0	499	131	
8	0	0	0	0	499	131	
9	0	0	0	0	499	132	
10	0	0	0	0	499	131	
11	0	0	0	0	500	132	
12	0	0	0	0	500	131	
13	0	0	0	0	499	132	
14	0	0	0	0	499	132	
15	0	0	0	0	498	131	
0	0	0	0	0	499	132	
1	0	0	0	0	499	131	
2	0	0	0	0	499	132	
3	0	0	0	0	500	132	
4	0	0	0	0	502	131	
5	0	0	0	0	501	132	
6	0	0	0	0	499	131	
7	0	0	0	0	499	132	
8	0	0	0	0	498	131	
9	0	0	0	0	498	132	
10	0	0	0	0	498	132	
11	0	0	0	0	498	131	
12	0	0	0	0	498	132	
13	0	0	0	0	497	131	
14	0	0	0	0	498	132	
15	0	0	0	0	498	131	
0	0	0	0	0	498	132	
1	0	0	0	0	497	131	
2	0	0	0	0	499	131	
3	0	0	0	0	499	132	
4	0	0	0	0	499	131	
5	0	0	0	0	499	132	
6	0	0	0	0	498	131	
7	0	0	0	0	497	132	
8	0	0	0	0	496	132	
9	0	0	0	0	496	131	
10	0	0	0	0	495	132	
11	0	0	0	0	495	131	
12	0	0	0	0	495	132	
13	0	0	0	0	495	131	
14	0	0	0	0	495	132	
15	0	0	0	0	495	132	
0	0	0	0	0	495	131	
1	0	0	0	0	494	132	
2	0	0	0	0	493	131	
3	0	0	0	0	492	132	
4	0	0	0	0	492	131	
5	0	0	0	0	491	132	
6	0	0	0	0	490	132	
7	0	0	0	0	490	131	
8	0	0	0	0	491	132	
9	0	0	0	0	492	131	
10	0	0	0	0	491	132	
11	0	0	0	0	490	131	
12	0	0	0	0	489	131	
13	0	0	0	0	489	132	
14	0	0	0	0	488	131	
15	0	0	0	0	487	132	
0	0	0	0	0	487	131	
1	0	0	0	0	486	132	
2	0	0	0	0	485	132	
3	0	0	0	0	485	131	
4	0	0	0	0	484	132	
5	0	0	0	0	484	131	
6	0	0	0	0	484	132	
7	0	0	0	0	484	131	
8	0	0	0	0	483	132	
9	0	0	0	0	483	132	
10	0	0	0	0	483	131	
11	0	0	0	0	483	132	
12	0	0	0	0	483	131	
13	0	0	0	0	483	132	
14	0	0	0	0	483	131	
15	0	0	0	0	482	132	
0	0	0	0	0	482	131	
1	0	0	0	0	480	131	
2	0	0	0	0	480	132	
3	0	0	0	0	479	131	
4	0	0	0	0	478	132	
5	0	0	0	0	478	131	
6	0	0	0	0	478	132	
7	0	0	0	0	479	131	
8	0	0	0	0	478	132	
9	0	0	0	0	478	131	
10	0	0	0	0	478	132	
11	0	0	0	0	477	132	
12	0	0	0	0	476	132	
13	0	0	0	0	476	131	
14	0	0	0	0	475	132	
15	0	0	0	0	475	131	
0	0	0	0	0	474	132	
1	0	0	0	0	474	132	
2	0	0	0	0	474	131	
3	0	0	0	0	475	132	
4	0	0	0	0	476	131	
5	0	0	0	0	477	132	
6	0	0	0	0	478	131	
7	0	0	0	0	478	132	
8	0	0	0	0	480	131	
9	0	0	0	0	480	132	
10	0	0	0	0	481	131	
11	0	0	0	0	480	132	
12	0	0	0	0	480	132	
13	0	0	0	0	480	131	
14	0	0	0	0	480	132	
15	0	0	0	0	481	131	
0	0	0	0	0	482	132	
1	0	0	0	0	482	132	
2	0	0	0	0	482	131	
3	0	0	0	0	482	132	
4	0	0	0	0	483	131	
5	0	0	0	0	483	132	
6	0	0	0	0	484	132	
7	0	0	0	0	485	131	
8	0	0	0	0	486	132	
9	0	0	0	0	487	131	
10	0	0	0	0	488	132	
11	0	0	0	0	488	131	
12	0	0	0	0	489	132	
13	0	0	0	0	489	132	
14	0	0	0	0	489	131	
15	0	0	0	0	490	132	
0	0	0	0	0	489	131	
1	0	0	0	0	490	131	
2	0	0	0	0	490	132	
3	0	0	0	0	491	132	
4	0	0	0	0	492	131	
5	0	0	0	0	493	131	
6	0	0	0	0	494	132	
7	0	0	0	0	496	131	
8	0	0	0	0	497	131	
9	0	0	0	0	499	132	
10	0	0	0	0	500	132	
11	0	0	0	0	501	131	
12	0	0	0	0	502	131	
13	0	0	0	0	504	132	
14	0	0	0	0	504	131	
15	0	0	0	0	505	131	
0	0	0	0	0	505	132	
1	0	0	0	0	505	131	
2	0	0	0	0	505	131	
3	0	0	0	0	505	132	
4	0	0	0	0	505	132	
5	0	0	0	0	506	131	
6	0	0	0	0	507	132	
7	0	0	0	0	507	132	
8	0	0	0	0	507	131	
9	0	0	0	0	508	131	
10	0	0	0	0	509	131	
11	0	0	0	0	509	132	
12	0	0	0	0	510	131	
13	0	0	0	0	510	131	
14	0	0	0	0	510	132	
15	0	0	0	0	509	131	
0	0	0	0	0	510	131	
1	0	0	0	0	510	132	
2	0	0	0	0	511	131	
3	0	0	0	0	511	131	
4	0	0	0	0	512	132	
5	0	0	0	0	512	131	
6	0	0	0	0	512	131	
7	0	0	0	0	512	132	
8	0	0	0	0	511	132	
9	0	0	0	0	510	132	
10	0	0	0	0	511	131	
11	0	0	0	0	510	132	
12	0	0	0	0	510	132	
13	0	0	0	0	509	131	
14	0	0	0	0	508	131	
15	0	0	0	0	507	132	
0	0	0	0	0	507	132	
1	0	0	0	0	507	131	
2	0	0	0	0	507	131	
3	0	0	0	0	505	132	
4	0	0	0	0	505	131	
5	0	0	0	0	504	131	
6	0	0	0	0	504	132	
7	0	0	0	0	503	131	
8	0	0	0	0	503	131	
9	0	0	0	0	503	132	
10	0	0	0	0	503	132	
11	0	0	0	0	504	131	
12	0	0	0	0	504	131	
13	0	0	0	0	504	132	
14	0	0	0	0	504	132	
15	0	0	0	0	504	131	
0	0	0	0	0	503	132	
1	0	0	0	0	503	132	
2	0	0	0	0	504	131	
3	0	0	0	0	505	131	
4	0	0	0	0	506	132	
5	0	0	0	0	508	132	
6	0	0	0	0	509	131	
7	0	0	0	0	511	132	
8	0	0	0	0	513	132	
9	0	0	0	0	515	131	
10	0	0	0	0	515	132	
11	0	0	0	0	517	132	
12	0	0	0	0	518	131	
13	0	0	0	0	519	132	
14	0	0	0	0	519	132	
15	0	0	0	0	520	131	
0	0	0	0	0	520	132	
1	0	0	0	0	520	132	
2	0	0	0	0	520	131	
3	0	0	0	0	519	132	
4	0	0	0	0	519	132	
5	0	0	0	0	518	131	
6	0	0	0	0	518	132	
7	0	0	0	0	517	131	
8	0	0	0	0	516	131	
9	0	0	0	0	516	131	
10	0	0	0	0	516	132	
11	0	0	0	0	515	131	
12	0	0	0	0	515	131	
13	0	0	0	0	515	132	
14	0	0	0	0	514	132	
15	0	0	0	0	514	131	
0	0	0	0	0	513	131	
1	0	0	0	0	515	132	
2	0	0	0	0	515	131	
3	0	0	0	0	515	131	
4	0	0	0	0	516	132	
5	0	0	0	0	516	132	
6	0	0	0	0	516	131	
7	0	0	0	0	517	132	
8	0	0	0	0	519	132	
9	0	0	0	0	520	131	
10	0	0	0	0	521	132	
11	0	0	0	0	522	132	
12	0	0	0	0	521	131	
13	0	0	0	0	522	131	
14	0	0	0	0	521	132	
15	0	0	0	0	521	131	
0	0	0	0	0	521	131	
1	0	0	0	0	521	132	
2	0	0	0	0	521	132	
3	0	0	0	0	520	131	
4	0	0	0	0	521	132	
5	0	0	0	0	521	132	
6	0	0	0	0	522	131	
7	0	0	0	0	523	131	
8	0	0	0	0	524	132	
9	0	0	0	0	527	131	
10	0	0	0	0	531	131	
11	0	0	0	0	535	132	
12	0	0	0	0	540	132	
13	0	0	0	0	546	131	
14	0	0	0	0	555	132	
15	0	0	0	0	564	132	
0	0	0	0	0	574	131	
1	0	0	0	0	584	132	
2	0	0	0	0	595	132	
3	0	0	0	0	605	130	
4	0	0	0	0	615	131	
5	0	0	0	0	626	131	
6	0	0	0	0	636	130	
7	0	0	0	0	644	131	
8	0	0	0	0	652	132	
9	0	0	0	0	659	130	
10	0	0	0	0	665	131	
11	0	0	0	0	671	132	
12	0	0	0	0	675	130	
13	0	0	0	0	679	131	
14	0	0	0	0	682	132	
15	0	0	0	0	683	130	
0	0	0	0	0	683	131	
1	0	0	0	0	680	131	
2	0	0	0	0	676	130	
3	0	0	0	0	671	131	
4	0	0	0	0	664	132	
5	0	0	0	0	657	130	
6	0	0	0	0	649	131	
7	0	0	0	0	642	131	
8	0	0	0	0	635	130	
9	0	0	0	0	627	131	
10	0	0	0	0	620	132	
11	0	0	0	0	609	130	
12	0	0	0	0	598	131	
13	0	0	0	0	587	132	
14	0	0	0	0	576	132	
15	0	0	0	0	565	131	
0	0	0	0	0	553	132	
1	0	0	0	0	542	131	
2	0	0	0	0	531	131	
3	0	0	0	0	520	132	
4	0	0	0	0	512	132	
5	0	0	0	0	507	131	
6	0	0	0	0	501	132	
7	0	0	0	0	496	131	
8	0	0	0	0	492	131	
9	0	0	0	0	488	132	
10	0	0	0	0	486	132	
11	0	0	0	0	486	131	
12	0	0	0	0	486	132	
13	0	0	0	0	486	131	
14	0	0	0	0	486	132	
15	0	0	0	0	486	131	
0	0	0	0	0	487	132	
1	0	0	0	0	487	132	
2	0	0	0	0	489	131	
3	0	0	0	0	492	132	
4	0	0	0	0	495	131	
5	0	0	0	0	497	132	
6	0	0	0	0	500	131	
7	0	0	0	0	503	131	
8	0	0	0	0	505	132	
9	0	0	0	0	506	131	
10	0	0	0	0	507	132	
11	0	0	0	0	508	131	
12	0	0	0	0	509	131	
13	0	0	0	0	510	132	
14	0	0	0	0	510	131	
15	0	0	0	0	511	132	
0	0	0	0	0	512	132	
1	0	0	0	0	513	131	
2	0	0	0	0	513	132	
3	0	0	0	0	513	131	
4	0	0	0	0	514	132	
5	0	0	0	0	515	132	
6	0	0	0	0	515	131	
7	0	0	0	0	516	132	
8	0	0	0	0	516	131	
9	0	0	0	0	518	132	
10	0	0	0	0	519	131	
11	0	0	0	0	520	132	
12	0	0	0	0	521	131	
13	0	0	0	0	522	131	
14	0	0	0	0	524	132	
15	0	0	0	0	525	131	
0	0	0	0	0	525	132	
1	0	0	0	0	526	131	
2	0	0	0	0	526	132	
3	0	0	0	0	527	131	
4	0	0	0	0	527	132	
5	0	0	0	0	526	132	
6	0	0	0	0	527	131	
7	0	0	0	0	527	132	
8	0	0	0	0	529	131	
9	0	0	0	0	529	131	
10	0	0	0	0	530	132	
11	0	0	0	0	531	131	
12	0	0	0	0	532	132	
13	0	0	0	0	531	131	
14	0	0	0	0	531	132	
15	0	0	0	0	531	131	
0	0	0	0	0	531	132	
1	0	0	0	0	531	130	
2	0	0	0	0	531	132	
3	0	0	0	0	531	131	
4	0	0	0	0	530	132	
5	0	0	0	0	530	131	
6	0	0	0	0	530	131	
7	0	0	0	0	531	131	
8	0	0	0	0	530	131	
9	0	0	0	0	530	131	
10	0	0	0	0	530	132	
11	0	0	0	0	529	131	
12	0	0	0	0	529	132	
13	0	0	0	0	529	131	
14	0	0	0	0	528	132	
15	0	0	0	0	528	132	
0	0	0	0	0	527	131	
1	0	0	0	0	527	132	
2	0	0	0	0	526	131	
3	0	0	0	0	526	131	
4	0	0	0	0	526	132	
5	0	0	0	0	526	131	
6	0	0	0	0	525	132	
7	0	0	0	0	524	131	
8	0	0	0	0	525	131	
9	0	0	0	0	525	132	
10	0	0	0	0	526	131	
11	0	0	0	0	527	132	
12	0	0	0	0	528	131	
13	0	0	0	0	527	131	
14	0	0	0	0	528	132	
15	0	0	0	0	528	131	
0	0	0	0	0	528	132	
1	0	0	0	0	529	131	
2	0	0	0	0	530	132	
3	0	0	0	0	532	130	
4	0	0	0	0	532	131	
5	0	0	0	0	534	131	
6	0	0	0	0	536	131	
7	0	0	0	0	538	132	
8	0	0	0	0	539	131	
9	0	0	0	0	539	132	
10	0	0	0	0	538	130	
11	0	0	0	0	538	131	
12	0	0	0	0	539	131	
13	0	0	0	0	540	131	
14	0	0	0	0	540	131	
15	0	0	0	0	540	131	
0	0	0	0	0	540	132	
1	0	0	0	0	540	130	
2	0	0	0	0	540	131	
3	0	0	0	0	540	131	
4	0	0	0	0	540	131	
5	0	0	0	0	540	132	
6	0	0	0	0	540	131	
7	0	0	0	0	539	132	
8	0	0	0	0	538	130	
9	0	0	0	0	537	131	
10	0	0	0	0	536	131	
11	0	0	0	0	536	131	
12	0	0	0	0	536	132	
13	0	0	0	0	536	130	
14	0	0	0	0	536	131	
15	0	0	0	0	536	130	
0	0	0	0	0	536	131	
1	0	0	0	0	536	130	
2	0	0	0	0	536	131	
3	0	0	0	0	537	131	
4	0	0	0	0	537	131	
5	0	0	0	0	538	131	
6	0	0	0	0	539	131	
7	0	0	0	0	539	131	
8	0	0	0	0	540	131	
9	0	0	0	0	540	131	
10	0	0	0	0	540	130	
11	0	0	0	0	541	131	
12	0	0	0	0	541	130	
13	0	0	0	0	542	131	
14	0	0	0	0	542	132	
15	0	0	0	0	542	131	
0	0	0	0	0	542	131	
1	0	0	0	0	542	130	
2	0	0	0	0	542	131	
3	0	0	0	0	542	130	
4	0	0	0	0	542	131	
5	0	0	0	0	542	132	
6	0	0	0	0	541	131	
7	0	0	0	0	540	132	
8	0	0	0	0	540	131	
9	0	0	0	0	540	131	
10	0	0	0	0	539	131	
11	0	0	0	0	537	131	
12	0	0	0	0	536	130	
13	0	0	0	0	535	131	
14	0	0	0	0	533	130	
15	0	0	0	0	533	131	
0	0	0	0	0	531	130	
1	0	0	0	0	531	131	
2	0	0	0	0	531	130	
3	0	0	0	0	530	131	
4	0	0	0	0	530	131	
5	0	0	0	0	529	131	
6	0	0	0	0	528	132	
7	0	0	0	0	527	131	
8	0	0	0	0	528	131	
9	0	0	0	0	528	131	
10	0	0	0	0	527	131	
11	0	0	0	0	527	130	
12	0	0	0	0	527	131	
13	0	0	0	0	528	130	
14	0	0	0	0	529	131	
15	0	0	0	0	529	131	
0	0	0	0	0	530	130	
1	0	0	0	0	531	131	
2	0	0	0	0	531	130	
3	0	0	0	0	532	131	
4	0	0	0	0	531	131	
5	0	0	0	0	532	131	
6	0	0	0	0	533	131	
7	0	0	0	0	534	131	
8	0	0	0	0	534	131	
9	0	0	0	0	535	131	
10	0	0	0	0	535	131	
11	0	0	0	0	535	130	
12	0	0	0	0	536	131	
13	0	0	0	0	536	130	
14	0	0	0	0	536	131	
15	0	0	0	0	538	131	
0	0	0	0	0	539	131	
1	0	0	0	0	538	131	
2	0	0	0	0	538	131	
3	0	0	0	0	538	131	
4	0	0	0	0	539	130	
5	0	0	0	0	540	131	
6	0	0	0	0	540	130	
7	0	0	0	0	541	131	
8	0	0	0	0	542	131	
9	0	0	0	0	543	131	
10	0	0	0	0	543	131	
11	0	0	0	0	543	130	
12	0	0	0	0	544	131	
13	0	0	0	0	544	131	
14	0	0	0	0	545	130	
15	0	0	0	0	545	131	
0	0	0	0	0	545	130	
1	0	0	0	0	545	131	
2	0	0	0	0	544	130	
3	0	0	0	0	544	131	
4	0	0	0	0	545	130	
5	0	0	0	0	544	131	
6	0	0	0	0	545	130	
7	0	0	0	0	545	131	
8	0	0	0	0	546	130	
9	0	0	0	0	546	131	
10	0	0	0	0	547	131	
11	0	0	0	0	547	131	
12	0	0	0	0	547	131	
13	0	0	0	0	548	130	
14	0	0	0	0	550	131	
15	0	0	0	0	550	130	
0	0	0	0	0	550	131	
1	0	0	0	0	550	131	
2	0	0	0	0	550	131	
3	0	0	0	0	550	131	
4	0	0	0	0	550	130	
5	0	0	0	0	550	131	
6	0	0	0	0	550	130	
7	0	0	0	0	551	131	
8	0	0	0	0	551	130	
9	0	0	0	0	553	131	
10	0	0	0	0	553	130	
11	0	0	0	0	553	131	
12	0	0	0	0	553	131	
13	0	0	0	0	554	130	
14	0	0	0	0	554	131	
15	0	0	0	0	554	130	
0	0	0	0	0	553	131	
1	0	0	0	0	553	130	
2	0	0	0	0	553	131	
3	0	0	0	0	553	131	
4	0	0	0	0	553	130	
5	0	0	0	0	553	131	
6	0	0	0	0	555	130	
7	0	0	0	0	556	131	
8	0	0	0	0	556	130	
9	0	0	0	0	558	131	
10	0	0	0	0	558	131	
11	0	0	0	0	559	131	
12	0	0	0	0	560	130	
13	0	0	0	0	559	131	
14	0	0	0	0	559	130	
15	0	0	0	0	558	131	
0	0	0	0	0	558	131	
1	0	0	0	0	558	130	
2	0	0	0	0	556	131	
3	0	0	0	0	556	130	
4	0	0	0	0	555	131	
5	0	0	0	0	555	131	
6	0	0	0	0	554	130	
7	0	0	0	0	553	131	
8	0	0	0	0	553	130	
9	0	0	0	0	553	131	
10	0	0	0	0	553	131	
11	0	0	0	0	552	131	
12	0	0	0	0	551	131	
13	0	0	0	0	551	130	
14	0	0	0	0	550	131	
15	0	0	0	0	548	129	
0	0	0	0	0	547	131	
1	0	0	0	0	545	131	
2	0	0	0	0	545	130	
3	0	0	0	0	545	131	
4	0	0	0	0	544	130	
5	0	0	0	0	542	131	
6	0	0	0	0	541	130	
7	0	0	0	0	541	131	
8	0	0	0	0	540	131	
9	0	0	0	0	538	130	
10	0	0	0	0	537	131	
11	0	0	0	0	536	131	
12	0	0	0	0	535	131	
13	0	0	0	0	532	131	
14	0	0	0	0	530	130	
15	0	0	0	0	529	131	
0	0	0	0	0	527	130	
1	0	0	0	0	525	131	
2	0	0	0	0	524	130	
3	0	0	0	0	523	131	
4	0	0	0	0	520	131	
5	0	0	0	0	518	131	
6	0	0	0	0	517	131	
7	0	0	0	0	514	130	
8	0	0	0	0	512	131	
9	0	0	0	0	511	130	
10	0	0	0	0	508	131	
11	0	0	0	0	505	131	
12	0	0	0	0	504	130	
13	0	0	0	0	503	131	
14	0	0	0	0	502	130	
15	0	0	0	0	500	131	
0	0	0	0	0	499	131	
1	0	0	0	0	496	130	
2	0	0	0	0	494	131	
3	0	0	0	0	493	131	
4	0	0	0	0	492	130	
5	0	0	0	0	492	131	
6	0	0	0	0	490	130	
7	0	0	0	0	488	131	
8	0	0	0	0	488	131	
9	0	0	0	0	487	130	
10	0	0	0	0	485	131	
11	0	0	0	0	484	130	
12	0	0	0	0	483	131	
13	0	0	0	0	481	130	
14	0	0	0	0	479	131	
15	0	0	0	0	478	131	
0	0	0	0	0	477	130	
1	0	0	0	0	477	131	
2	0	0	0	0	476	130	
3	0	0	0	0	475	131	
4	0	0	0	0	473	130	
5	0	0	0	0	472	131	
6	0	0	0	0	471	131	
7	0	0	0	0	470	131	
8	0	0	0	0	469	131	
9	0	0	0	0	469	130	
10	0	0	0	0	469	131	
11	0	0	0	0	468	130	
12	0	0	0	0	468	131	
13	0	0	0	0	469	131	
14	0	0	0	0	469	131	
15	0	0	0	0	469	131	
0	0	0	0	0	470	131	
1	0	0	0	0	470	131	
2	0	0	0	0	470	130	
3	0	0	0	0	472	131	
4	0	0	0	0	472	130	
5	0	0	0	0	472	131	
6	0	0	0	0	472	131	
7	0	0	0	0	472	130	
8	0	0	0	0	472	131	
9	0	0	0	0	472	130	
10	0	0	0	0	472	131	
11	0	0	0	0	472	131	
12	0	0	0	0	472	130	
13	0	0	0	0	472	131	
14	0	0	0	0	471	130	
15	0	0	0	0	471	131	
0	0	0	0	0	471	131	
1	0	0	0	0	472	130	
2	0	0	0	0	472	131	
3	0	0	0	0	472	131	
4	0	0	0	0	472	130	
5	0	0	0	0	473	131	
6	0	0	0	0	474	130	
7	0	0	0	0	475	131	
8	0	0	0	0	475	131	
9	0	0	0	0	474	130	
10	0	0	0	0	474	131	
11	0	0	0	0	474	130	
12	0	0	0	0	474	131	
13	0	0	0	0	474	130	
14	0	0	0	0	475	131	
15	0	0	0	0	476	131	
0	0	0	0	0	475	130	
1	0	0	0	0	476	131	
2	0	0	0	0	476	131	
3	0	0	0	0	475	130	
4	0	0	0	0	474	131	
5	0	0	0	0	474	130	
6	0	0	0	0	475	131	
7	0	0	0	0	475	131	
8	0	0	0	0	475	130	
9	0	0	0	0	476	131	
10	0	0	0	0	477	130	
11	0	0	0	0	477	131	
12	0	0	0	0	476	130	
13	0	0	0	0	476	131	
14	0	0	0	0	476	130	
15	0	0	0	0	476	131	
0	0	0	0	0	476	131	
1	0	0	0	0	477	130	
2	0	0	0	0	477	131	
3	0	0	0	0	477	130	
4	0	0	0	0	476	130	
5	0	0	0	0	477	131	
6	0	0	0	0	478	130	
7	0	0	0	0	479	131	
8	0	0	0	0	480	131	
9	0	0	0	0	480	130	
10	0	0	0	0	481	131	
11	0	0	0	0	482	130	
12	0	0	0	0	483	131	
13	0	0	0	0	484	130	
14	0	0	0	0	484	131	
15	0	0	0	0	486	131	
0	0	0	0	0	487	130	
1	0	0	0	0	487	131	
2	0	0	0	0	487	130	
3	0	0	0	0	487	131	
4	0	0	0	0	487	130	
5	0	0	0	0	487	131	
6	0	0	0	0	487	131	
7	0	0	0	0	488	130	
8	0	0	0	0	489	130	
9	0	0	0	0	490	131	
10	0	0	0	0	490	130	
11	0	0	0	0	490	131	
12	0	0	0	0	490	130	
13	0	0	0	0	491	130	
14	0	0	0	0	492	131	
15	0	0	0	0	491	130	
0	0	0	0	0	492	131	
1	0	0	0	0	493	130	
2	0	0	0	0	493	131	
3	0	0	0	0	493	131	
4	0	0	0	0	494	130	
5	0	0	0	0	496	131	
6	0	0	0	0	497	130	
7	0	0	0	0	497	130	
8	0	0	0	0	496	131	
9	0	0	0	0	496	130	
10	0	0	0	0	497	131	
11	0	0	0	0	497	129	
12	0	0	0	0	498	131	
13	0	0	0	0	498	131	
14	0	0	0	0	499	130	
15	0	0	0	0	499	131	
0	0	0	0	0	499	131	
1	0	0	0	0	499	130	
2	0	0	0	0	500	131	
3	0	0	0	0	500	129	
4	0	0	0	0	500	131	
5	0	0	0	0	500	131	
6	0	0	0	0	500	130	
7	0	0	0	0	500	131	
8	0	0	0	0	501	130	
9	0	0	0	0	500	131	
10	0	0	0	0	500	130	
11	0	0	0	0	499	130	
12	0	0	0	0	499	131	
13	0	0	0	0	499	130	
14	0	0	0	0	500	131	
15	0	0	0	0	500	130	
0	0	0	0	0	500	131	
1	0	0	0	0	500	131	
2	0	0	0	0	501	130	
3	0	0	0	0	502	131	
4	0	0	0	0	503	131	
5	0	0	0	0	504	130	
6	0	0	0	0	504	131	
7	0	0	0	0	504	131	
8	0	0	0	0	504	130	
9	0	0	0	0	503	131	
10	0	0	0	0	503	129	
11	0	0	0	0	503	131	
12	0	0	0	0	503	130	
13	0	0	0	0	503	130	
14	0	0	0	0	504	131	
15	0	0	0	0	503	130	
0	0	0	0	0	503	131	
1	0	0	0	0	502	129	
2	0	0	0	0	503	131	
3	0	0	0	0	505	130	
4	0	0	0	0	506	131	
5	0	0	0	0	507	131	
6	0	0	0	0	507	130	
7	0	0	0	0	510	131	
8	0	0	0	0	511	130	
9	0	0	0	0	511	131	
10	0	0	0	0	511	129	
11	0	0	0	0	510	131	
12	0	0	0	0	509	131	
13	0	0	0	0	508	130	
14	0	0	0	0	506	131	
15	0	0	0	0	504	130	
0	0	0	0	0	503	131	
1	0	0	0	0	502	129	
2	0	0	0	0	503	131	
3	0	0	0	0	503	130	
4	0	0	0	0	504	130	
5	0	0	0	0	505	131	
6	0	0	0	0	506	130	
7	0	0	0	0	505	131	
8	0	0	0	0	505	129	
9	0	0	0	0	504	131	
10	0	0	0	0	505	130	
11	0	0	0	0	504	130	
12	0	0	0	0	504	131	
13	0	0	0	0	504	129	
14	0	0	0	0	504	131	
15	0	0	0	0	504	129	
0	0	0	0	0	505	131	
1	0	0	0	0	505	130	
2	0	0	0	0	505	130	
3	0	0	0	0	507	131	
4	0	0	0	0	508	129	
5	0	0	0	0	508	131	
6	0	0	0	0	509	129	
7	0	0	0	0	510	131	
8	0	0	0	0	511	130	
9	0	0	0	0	511	131	
10	0	0	0	0	512	131	
11	0	0	0	0	512	130	
12	0	0	0	0	512	131	
13	0	0	0	0	512	129	
14	0	0	0	0	513	131	
15	0	0	0	0	513	129	
0	0	0	0	0	513	131	
1	0	0	0	0	513	131	
2	0	0	0	0	514	130	
3	0	0	0	0	515	131	
4	0	0	0	0	515	129	
5	0	0	0	0	516	131	
6	0	0	0	0	516	130	
7	0	0	0	0	515	130	
8	0	0	0	0	514	131	
9	0	0	0	0	513	129	
10	0	0	0	0	512	131	
11	0	0	0	0	511	129	
12	0	0	0	0	511	131	
13	0	0	0	0	510	131	
14	0	0	0	0	511	129	
15	0	0	0	0	512	131	
0	0	0	0	0	513	129	
1	0	0	0	0	514	131	
2	0	0	0	0	514	129	
3	0	0	0	0	514	131	
4	0	0	0	0	515	131	
5	0	0	0	0	516	130	
6	0	0	0	0	516	131	
7	0	0	0	0	516	130	
8	0	0	0	0	517	131	
9	0	0	0	0	517	129	
10	0	0	0	0	517	131	
11	0	0	0	0	517	129	
12	0	0	0	0	516	130	
13	0	0	0	0	516	130	
14	0	0	0	0	516	130	
15	0	0	0	0	515	130	
0	0	0	0	0	515	130	
1	0	0	0	0	516	130	
2	0	0	0	0	516	131	
3	0	0	0	0	516	129	
4	0	0	0	0	515	130	
5	0	0	0	0	515	130	
6	0	0	0	0	516	130	
7	0	0	0	0	517	131	
8	0	0	0	0	518	130	
9	0	0	0	0	518	131	
10	0	0	0	0	517	129	
11	0	0	0	0	517	130	
12	0	0	0	0	517	129	
13	0	0	0	0	517	131	
14	0	0	0	0	517	131	
15	0	0	0	0	516	130	
0	0	0	0	0	515	130	
1	0	0	0	0	516	130	
2	0	0	0	0	515	130	
3	0	0	0	0	515	131	
4	0	0	0	0	514	129	
5	0	0	0	0	514	130	
6	0	0	0	0	513	130	
7	0	0	0	0	512	130	
8	0	0	0	0	511	131	
9	0	0	0	0	510	129	
10	0	0	0	0	509	131	
11	0	0	0	0	510	130	
12	0	0	0	0	511	130	
13	0	0	0	0	511	131	
14	0	0	0	0	512	130	
15	0	0	0	0	512	130	
0	0	0	0	0	513	129	
1	0	0	0	0	513	130	
2	0	0	0	0	513	129	
3	0	0	0	0	512	130	
4	0	0	0	0	512	131	
5	0	0	0	0	511	129	
6	0	0	0	0	512	130	
7	0	0	0	0	512	129	
8	0	0	0	0	512	130	
9	0	0	0	0	513	130	
10	0	0	0	0	513	129	
11	0	0	0	0	513	130	
12	0	0	0	0	512	129	
13	0	0	0	0	513	130	
14	0	0	0	0	512	130	
15	0	0	0	0	512	130	
0	0	0	0	0	511	131	
1	0	0	0	0	511	129	
2	0	0	0	0	512	130	
3	0	0	0	0	512	129	
4	0	0	0	0	513	130	
5	0	0	0	0	513	129	
6	0	0	0	0	513	130	
7	0	0	0	0	513	130	
8	0	0	0	0	512	130	
9	0	0	0	0	512	131	
10	0	0	0	0	512	129	
11	0	0	0	0	511	130	
12	0	0	0	0	511	129	
13	0	0	0	0	511	130	
14	0	0	0	0	511	129	
15	0	0	0	0	511	130	
0	0	0	0	0	511	131	
1	0	0	0	0	512	129	
2	0	0	0	0	511	130	
3	0	0	0	0	512	129	
4	0	0	0	0	513	130	
5	0	0	0	0	514	129	
6	0	0	0	0	514	130	
7	0	0	0	0	515	130	
8	0	0	0	0	515	130	
9	0	0	0	0	514	130	
10	0	0	0	0	514	129	
11	0	0	0	0	513	130	
12	0	0	0	0	513	129	
13	0	0	0	0	512	130	
14	0	0	0	0	512	130	
15	0	0	0	0	513	130	
0	0	0	0	0	514	131	
1	0	0	0	0	514	129	
2	0	0	0	0	514	130	
3	0	0	0	0	512	129	
4	0	0	0	0	511	130	
5	0	0	0	0	510	130	
6	0	0	0	0	510	129	
7	0	0	0	0	509	130	
8	0	0	0	0	508	129	
9	0	0	0	0	507	130	
10	0	0	0	0	506	130	
11	0	0	0	0	506	129	
12	0	0	0	0	506	130	
13	0	0	0	0	507	129	
14	0	0	0	0	508	130	
15	0	0	0	0	508	129	
0	0	0	0	0	508	130	
1	0	0	0	0	508	129	
2	0	0	0	0	508	130	
3	0	0	0	0	509	129	
4	0	0	0	0	510	130	
5	0	0	0	0	510	130	
6	0	0	0	0	510	129	
7	0	0	0	0	509	130	
8	0	0	0	0	508	129	
9	0	0	0	0	507	130	
10	0	0	0	0	506	129	
11	0	0	0	0	506	130	
12	0	0	0	0	505	131	
13	0	0	0	0	505	129	
14	0	0	0	0	506	130	
15	0	0	0	0	505	129	
0	0	0	0	0	505	130	
1	0	0	0	0	505	130	
2	0	0	0	0	505	129	
3	0	0	0	0	506	130	
4	0	0	0	0	505	129	
5	0	0	0	0	506	130	
6	0	0	0	0	507	130	
7	0	0	0	0	507	129	
8	0	0	0	0	508	130	
9	0	0	0	0	508	130	
10	0	0	0	0	508	129	
11	0	0	0	0	509	130	
12	0	0	0	0	510	129	
13	0	0	0	0	510	130	
14	0	0	0	0	509	129	
15	0	0	0	0	509	130	
0	0	0	0	0	508	130	
1	0	0	0	0	508	129	
2	0	0	0	0	510	130	
3	0	0	0	0	510	129	
4	0	0	0	0	509	130	
5	0	0	0	0	509	129	
6	0	0	0	0	509	130	
7	0	0	0	0	510	130	
8	0	0	0	0	510	129	
9	0	0	0	0	511	130	
10	0	0	0	0	511	129	
11	0	0	0	0	511	130	
12	0	0	0	0	510	129	
13	0	0	0	0	510	130	
14	0	0	0	0	510	129	
15	0	0	0	0	510	129	
0	0	0	0	0	510	130	
1	0	0	0	0	508	129	
2	0	0	0	0	508	130	
3	0	0	0	0	508	130	
4	0	0	0	0	508	130	
5	0	0	0	0	507	130	
6	0	0	0	0	506	129	
7	0	0	0	0	507	130	
8	0	0	0	0	507	130	
9	0	0	0	0	507	129	
10	0	0	0	0	505	130	
11	0	0	0	0	505	129	
12	0	0	0	0	505	130	
13	0	0	0	0	505	129	
14	0	0	0	0	505	130	
15	0	0	0	0	505	130	
0	0	0	0	0	506	129	
1	0	0	0	0	506	130	
2	0	0	0	0	506	129	
