# OpenSignals Text File Format. Version 1
# {"98:D3:B1:FD:3D:90": {"position": 0, "device": "bitalino_rev", "device name": "98:D3:B1:FD:3D:90", "device connection": "BTH98:D3:B1:FD:3D:90", "sampling rate": 1000, "resolution": [4, 1, 1, 1, 1, 10, 10], "firmware version": 1281, "comments": "", "keywords": "", "mode": 0, "sync interval": 2, "date": "2022-3-22", "time": "21:53:32.193", "channels": [2, 3], "sensor": ["ECGBIT", "EDABITREV"], "label": ["A2", "A3"], "column": ["nSeq", "I1", "I2", "O1", "O2", "A2", "A3"], "special": [{}, {}], "digital IO": [0, 0, 1, 1]}}
# EndOfHeader
0	0	0	0	0	518	196	
1	0	0	0	0	519	197	
2	0	0	0	0	519	197	
3	0	0	0	0	517	197	
4	0	0	0	0	516	197	
5	0	0	0	0	515	197	
6	0	0	0	0	515	197	
7	0	0	0	0	515	197	
8	0	0	0	0	514	198	
9	0	0	0	0	515	198	
10	0	0	0	0	516	197	
11	0	0	0	0	515	198	
12	0	0	0	0	516	197	
13	0	0	0	0	517	196	
14	0	0	0	0	518	196	
15	0	0	0	0	519	196	
0	0	0	0	0	519	197	
1	0	0	0	0	519	197	
2	0	0	0	0	521	197	
3	0	0	0	0	521	197	
4	0	0	0	0	520	197	
5	0	0	0	0	519	197	
6	0	0	0	0	519	197	
7	0	0	0	0	521	197	
8	0	0	0	0	523	197	
9	0	0	0	0	521	197	
10	0	0	0	0	521	197	
11	0	0	0	0	523	198	
12	0	0	0	0	524	196	
13	0	0	0	0	525	196	
14	0	0	0	0	525	196	
15	0	0	0	0	525	196	
0	0	0	0	0	525	196	
1	0	0	0	0	526	197	
2	0	0	0	0	526	197	
3	0	0	0	0	526	197	
4	0	0	0	0	524	197	
5	0	0	0	0	524	197	
6	0	0	0	0	523	197	
7	0	0	0	0	522	197	
8	0	0	0	0	521	197	
9	0	0	0	0	519	197	
10	0	0	0	0	518	197	
11	0	0	0	0	517	197	
12	0	0	0	0	516	197	
13	0	0	0	0	515	197	
14	0	0	0	0	513	197	
15	0	0	0	0	514	197	
0	0	0	0	0	516	198	
1	0	0	0	0	518	198	
2	0	0	0	0	519	197	
3	0	0	0	0	521	198	
4	0	0	0	0	522	198	
5	0	0	0	0	522	197	
6	0	0	0	0	522	197	
7	0	0	0	0	521	196	
8	0	0	0	0	519	196	
9	0	0	0	0	517	196	
10	0	0	0	0	516	196	
11	0	0	0	0	516	197	
12	0	0	0	0	516	197	
13	0	0	0	0	515	197	
14	0	0	0	0	515	197	
15	0	0	0	0	516	197	
0	0	0	0	0	517	197	
1	0	0	0	0	516	197	
2	0	0	0	0	515	197	
3	0	0	0	0	515	197	
4	0	0	0	0	515	197	
5	0	0	0	0	514	197	
6	0	0	0	0	513	197	
7	0	0	0	0	512	197	
8	0	0	0	0	511	197	
9	0	0	0	0	512	198	
10	0	0	0	0	512	198	
11	0	0	0	0	512	197	
12	0	0	0	0	512	197	
13	0	0	0	0	512	196	
14	0	0	0	0	510	196	
15	0	0	0	0	509	196	
0	0	0	0	0	508	196	
1	0	0	0	0	508	196	
2	0	0	0	0	508	196	
3	0	0	0	0	508	196	
4	0	0	0	0	509	197	
5	0	0	0	0	509	197	
6	0	0	0	0	510	197	
7	0	0	0	0	509	197	
8	0	0	0	0	508	197	
9	0	0	0	0	508	198	
10	0	0	0	0	507	197	
11	0	0	0	0	506	197	
12	0	0	0	0	507	197	
13	0	0	0	0	507	197	
14	0	0	0	0	507	198	
15	0	0	0	0	508	197	
0	0	0	0	0	508	198	
1	0	0	0	0	508	197	
2	0	0	0	0	508	197	
3	0	0	0	0	507	197	
4	0	0	0	0	506	196	
5	0	0	0	0	507	196	
6	0	0	0	0	508	196	
7	0	0	0	0	508	196	
8	0	0	0	0	508	196	
9	0	0	0	0	508	196	
10	0	0	0	0	508	196	
11	0	0	0	0	509	196	
12	0	0	0	0	510	196	
13	0	0	0	0	512	196	
14	0	0	0	0	512	197	
15	0	0	0	0	511	197	
0	0	0	0	0	511	197	
1	0	0	0	0	510	197	
2	0	0	0	0	511	197	
3	0	0	0	0	510	197	
4	0	0	0	0	508	197	
5	0	0	0	0	507	197	
6	0	0	0	0	507	197	
7	0	0	0	0	507	197	
8	0	0	0	0	506	197	
9	0	0	0	0	504	197	
10	0	0	0	0	504	197	
11	0	0	0	0	503	197	
12	0	0	0	0	505	197	
13	0	0	0	0	506	197	
14	0	0	0	0	508	197	
15	0	0	0	0	508	197	
0	0	0	0	0	507	197	
1	0	0	0	0	506	197	
2	0	0	0	0	505	197	
3	0	0	0	0	504	197	
4	0	0	0	0	504	197	
5	0	0	0	0	503	198	
6	0	0	0	0	504	197	
7	0	0	0	0	504	197	
8	0	0	0	0	504	196	
9	0	0	0	0	505	196	
10	0	0	0	0	505	196	
11	0	0	0	0	508	196	
12	0	0	0	0	511	196	
13	0	0	0	0	514	196	
14	0	0	0	0	520	196	
15	0	0	0	0	527	196	
0	0	0	0	0	536	196	
1	0	0	0	0	545	196	
2	0	0	0	0	555	196	
3	0	0	0	0	566	196	
4	0	0	0	0	575	196	
5	0	0	0	0	586	196	
6	0	0	0	0	595	196	
7	0	0	0	0	606	196	
8	0	0	0	0	614	196	
9	0	0	0	0	621	196	
10	0	0	0	0	627	196	
11	0	0	0	0	632	196	
12	0	0	0	0	637	195	
13	0	0	0	0	641	195	
14	0	0	0	0	643	195	
15	0	0	0	0	644	195	
0	0	0	0	0	644	195	
1	0	0	0	0	644	196	
2	0	0	0	0	644	196	
3	0	0	0	0	642	196	
4	0	0	0	0	640	197	
5	0	0	0	0	636	197	
6	0	0	0	0	631	197	
7	0	0	0	0	625	197	
8	0	0	0	0	619	197	
9	0	0	0	0	612	197	
10	0	0	0	0	607	197	
11	0	0	0	0	601	197	
12	0	0	0	0	593	197	
13	0	0	0	0	584	197	
14	0	0	0	0	574	197	
15	0	0	0	0	563	197	
0	0	0	0	0	551	197	
1	0	0	0	0	538	197	
2	0	0	0	0	527	197	
3	0	0	0	0	516	197	
4	0	0	0	0	507	196	
5	0	0	0	0	500	196	
6	0	0	0	0	494	196	
7	0	0	0	0	488	196	
8	0	0	0	0	483	197	
9	0	0	0	0	478	197	
10	0	0	0	0	473	197	
11	0	0	0	0	470	197	
12	0	0	0	0	467	196	
13	0	0	0	0	465	197	
14	0	0	0	0	464	197	
15	0	0	0	0	464	197	
0	0	0	0	0	464	196	
1	0	0	0	0	465	197	
2	0	0	0	0	467	197	
3	0	0	0	0	470	197	
4	0	0	0	0	473	197	
5	0	0	0	0	476	197	
6	0	0	0	0	476	197	
7	0	0	0	0	477	197	
8	0	0	0	0	478	197	
9	0	0	0	0	479	197	
10	0	0	0	0	481	197	
11	0	0	0	0	482	197	
12	0	0	0	0	483	197	
13	0	0	0	0	484	197	
14	0	0	0	0	485	197	
15	0	0	0	0	486	197	
0	0	0	0	0	485	197	
1	0	0	0	0	484	197	
2	0	0	0	0	484	197	
3	0	0	0	0	484	197	
4	0	0	0	0	484	197	
5	0	0	0	0	483	197	
6	0	0	0	0	484	197	
7	0	0	0	0	484	197	
8	0	0	0	0	485	197	
9	0	0	0	0	486	196	
10	0	0	0	0	487	196	
11	0	0	0	0	488	197	
12	0	0	0	0	488	197	
13	0	0	0	0	489	197	
14	0	0	0	0	490	197	
15	0	0	0	0	491	196	
0	0	0	0	0	492	197	
1	0	0	0	0	494	197	
2	0	0	0	0	495	197	
3	0	0	0	0	496	197	
4	0	0	0	0	496	197	
5	0	0	0	0	497	197	
6	0	0	0	0	496	197	
7	0	0	0	0	496	197	
8	0	0	0	0	496	197	
9	0	0	0	0	496	197	
10	0	0	0	0	497	197	
11	0	0	0	0	497	197	
12	0	0	0	0	496	197	
13	0	0	0	0	495	197	
14	0	0	0	0	496	197	
15	0	0	0	0	496	197	
0	0	0	0	0	496	197	
1	0	0	0	0	497	197	
2	0	0	0	0	497	197	
3	0	0	0	0	499	197	
4	0	0	0	0	500	197	
5	0	0	0	0	502	197	
6	0	0	0	0	503	197	
7	0	0	0	0	504	197	
8	0	0	0	0	504	197	
9	0	0	0	0	504	197	
10	0	0	0	0	504	197	
11	0	0	0	0	505	197	
12	0	0	0	0	506	197	
13	0	0	0	0	507	197	
14	0	0	0	0	507	197	
15	0	0	0	0	507	197	
0	0	0	0	0	508	197	
1	0	0	0	0	508	197	
2	0	0	0	0	508	197	
3	0	0	0	0	508	197	
4	0	0	0	0	508	196	
5	0	0	0	0	508	196	
6	0	0	0	0	507	196	
7	0	0	0	0	507	196	
8	0	0	0	0	506	196	
9	0	0	0	0	505	196	
10	0	0	0	0	504	196	
11	0	0	0	0	504	196	
12	0	0	0	0	503	196	
13	0	0	0	0	504	196	
14	0	0	0	0	504	196	
15	0	0	0	0	505	197	
0	0	0	0	0	506	196	
1	0	0	0	0	507	197	
2	0	0	0	0	509	197	
3	0	0	0	0	509	197	
4	0	0	0	0	510	197	
5	0	0	0	0	511	197	
6	0	0	0	0	511	198	
7	0	0	0	0	512	197	
8	0	0	0	0	511	197	
9	0	0	0	0	511	197	
10	0	0	0	0	510	197	
11	0	0	0	0	509	197	
12	0	0	0	0	509	197	
13	0	0	0	0	508	197	
14	0	0	0	0	507	197	
15	0	0	0	0	507	197	
0	0	0	0	0	507	197	
1	0	0	0	0	508	197	
2	0	0	0	0	508	197	
3	0	0	0	0	508	197	
4	0	0	0	0	508	197	
5	0	0	0	0	508	196	
6	0	0	0	0	508	197	
7	0	0	0	0	508	196	
8	0	0	0	0	508	196	
9	0	0	0	0	510	196	
10	0	0	0	0	511	196	
11	0	0	0	0	513	196	
12	0	0	0	0	515	196	
13	0	0	0	0	515	196	
14	0	0	0	0	515	197	
15	0	0	0	0	516	196	
0	0	0	0	0	517	197	
1	0	0	0	0	518	196	
2	0	0	0	0	517	197	
3	0	0	0	0	516	197	
4	0	0	0	0	516	197	
5	0	0	0	0	518	197	
6	0	0	0	0	518	197	
7	0	0	0	0	518	197	
8	0	0	0	0	519	197	
9	0	0	0	0	519	197	
10	0	0	0	0	518	197	
11	0	0	0	0	517	197	
12	0	0	0	0	517	197	
13	0	0	0	0	517	197	
14	0	0	0	0	517	197	
15	0	0	0	0	517	197	
0	0	0	0	0	517	197	
1	0	0	0	0	519	197	
2	0	0	0	0	519	197	
3	0	0	0	0	518	197	
4	0	0	0	0	519	197	
5	0	0	0	0	521	197	
6	0	0	0	0	521	197	
7	0	0	0	0	523	197	
8	0	0	0	0	522	197	
9	0	0	0	0	523	198	
10	0	0	0	0	522	197	
11	0	0	0	0	522	197	
12	0	0	0	0	521	197	
13	0	0	0	0	520	197	
14	0	0	0	0	520	197	
15	0	0	0	0	519	196	
0	0	0	0	0	519	196	
1	0	0	0	0	518	196	
2	0	0	0	0	518	196	
3	0	0	0	0	518	196	
4	0	0	0	0	518	196	
5	0	0	0	0	518	196	
6	0	0	0	0	519	197	
7	0	0	0	0	519	197	
8	0	0	0	0	519	197	
9	0	0	0	0	519	197	
10	0	0	0	0	518	197	
11	0	0	0	0	518	197	
12	0	0	0	0	517	197	
13	0	0	0	0	516	197	
14	0	0	0	0	516	197	
15	0	0	0	0	516	197	
0	0	0	0	0	516	197	
1	0	0	0	0	515	196	
2	0	0	0	0	516	196	
3	0	0	0	0	516	196	
4	0	0	0	0	518	196	
5	0	0	0	0	518	196	
6	0	0	0	0	519	196	
7	0	0	0	0	519	196	
8	0	0	0	0	519	196	
9	0	0	0	0	520	196	
10	0	0	0	0	519	196	
11	0	0	0	0	519	196	
12	0	0	0	0	520	197	
13	0	0	0	0	519	197	
14	0	0	0	0	519	197	
15	0	0	0	0	521	197	
0	0	0	0	0	522	197	
1	0	0	0	0	523	197	
2	0	0	0	0	523	197	
3	0	0	0	0	522	197	
4	0	0	0	0	520	197	
5	0	0	0	0	519	197	
6	0	0	0	0	519	197	
7	0	0	0	0	518	197	
8	0	0	0	0	516	197	
9	0	0	0	0	516	197	
10	0	0	0	0	517	197	
11	0	0	0	0	519	197	
12	0	0	0	0	520	197	
13	0	0	0	0	520	197	
14	0	0	0	0	521	196	
15	0	0	0	0	521	196	
0	0	0	0	0	521	196	
1	0	0	0	0	521	196	
2	0	0	0	0	521	196	
3	0	0	0	0	522	196	
4	0	0	0	0	522	196	
5	0	0	0	0	522	196	
6	0	0	0	0	523	197	
7	0	0	0	0	524	197	
8	0	0	0	0	525	197	
9	0	0	0	0	526	197	
10	0	0	0	0	526	197	
11	0	0	0	0	527	197	
12	0	0	0	0	526	197	
13	0	0	0	0	526	197	
14	0	0	0	0	527	197	
15	0	0	0	0	529	197	
0	0	0	0	0	529	197	
1	0	0	0	0	531	197	
2	0	0	0	0	533	197	
3	0	0	0	0	535	197	
4	0	0	0	0	536	197	
5	0	0	0	0	536	197	
6	0	0	0	0	537	197	
7	0	0	0	0	538	197	
8	0	0	0	0	537	197	
9	0	0	0	0	538	197	
10	0	0	0	0	540	197	
11	0	0	0	0	541	197	
12	0	0	0	0	542	197	
13	0	0	0	0	543	197	
14	0	0	0	0	544	196	
15	0	0	0	0	547	196	
0	0	0	0	0	546	196	
1	0	0	0	0	545	196	
2	0	0	0	0	543	197	
3	0	0	0	0	543	196	
4	0	0	0	0	540	197	
5	0	0	0	0	538	196	
6	0	0	0	0	536	196	
7	0	0	0	0	535	196	
8	0	0	0	0	534	196	
9	0	0	0	0	532	196	
10	0	0	0	0	531	196	
11	0	0	0	0	531	196	
12	0	0	0	0	530	196	
13	0	0	0	0	529	196	
14	0	0	0	0	529	197	
15	0	0	0	0	529	197	
0	0	0	0	0	527	197	
1	0	0	0	0	527	196	
2	0	0	0	0	527	196	
3	0	0	0	0	525	196	
4	0	0	0	0	524	197	
5	0	0	0	0	523	196	
6	0	0	0	0	521	197	
7	0	0	0	0	520	197	
8	0	0	0	0	519	197	
9	0	0	0	0	518	197	
10	0	0	0	0	516	197	
11	0	0	0	0	514	197	
12	0	0	0	0	514	197	
13	0	0	0	0	513	197	
14	0	0	0	0	512	197	
15	0	0	0	0	513	197	
0	0	0	0	0	512	197	
1	0	0	0	0	512	197	
2	0	0	0	0	509	197	
3	0	0	0	0	508	197	
4	0	0	0	0	507	197	
5	0	0	0	0	504	197	
6	0	0	0	0	502	197	
7	0	0	0	0	500	197	
8	0	0	0	0	496	197	
9	0	0	0	0	494	197	
10	0	0	0	0	492	197	
11	0	0	0	0	489	197	
12	0	0	0	0	488	197	
13	0	0	0	0	487	197	
14	0	0	0	0	486	196	
15	0	0	0	0	487	196	
0	0	0	0	0	486	196	
1	0	0	0	0	485	196	
2	0	0	0	0	484	196	
3	0	0	0	0	483	196	
4	0	0	0	0	481	196	
5	0	0	0	0	480	196	
6	0	0	0	0	480	196	
7	0	0	0	0	479	196	
8	0	0	0	0	478	196	
9	0	0	0	0	477	197	
10	0	0	0	0	476	197	
11	0	0	0	0	476	197	
12	0	0	0	0	475	197	
13	0	0	0	0	474	197	
14	0	0	0	0	473	197	
15	0	0	0	0	472	197	
0	0	0	0	0	472	197	
1	0	0	0	0	471	197	
2	0	0	0	0	471	197	
3	0	0	0	0	471	197	
4	0	0	0	0	471	197	
5	0	0	0	0	472	197	
6	0	0	0	0	472	197	
7	0	0	0	0	473	197	
8	0	0	0	0	473	197	
9	0	0	0	0	473	197	
10	0	0	0	0	472	197	
11	0	0	0	0	470	197	
12	0	0	0	0	468	197	
13	0	0	0	0	467	196	
14	0	0	0	0	467	196	
15	0	0	0	0	465	196	
0	0	0	0	0	464	196	
1	0	0	0	0	464	196	
2	0	0	0	0	464	196	
3	0	0	0	0	464	196	
4	0	0	0	0	464	196	
5	0	0	0	0	465	196	
6	0	0	0	0	464	196	
7	0	0	0	0	464	196	
8	0	0	0	0	465	196	
9	0	0	0	0	465	196	
10	0	0	0	0	465	196	
11	0	0	0	0	467	196	
12	0	0	0	0	467	196	
13	0	0	0	0	468	196	
14	0	0	0	0	468	196	
15	0	0	0	0	470	197	
0	0	0	0	0	469	196	
1	0	0	0	0	470	197	
2	0	0	0	0	472	197	
3	0	0	0	0	471	197	
4	0	0	0	0	471	197	
5	0	0	0	0	472	197	
6	0	0	0	0	473	197	
7	0	0	0	0	473	197	
8	0	0	0	0	473	197	
9	0	0	0	0	473	197	
10	0	0	0	0	475	197	
11	0	0	0	0	476	197	
12	0	0	0	0	478	197	
13	0	0	0	0	477	197	
14	0	0	0	0	478	197	
15	0	0	0	0	480	197	
0	0	0	0	0	480	197	
1	0	0	0	0	481	197	
2	0	0	0	0	482	197	
3	0	0	0	0	484	197	
4	0	0	0	0	483	197	
5	0	0	0	0	483	197	
6	0	0	0	0	483	197	
7	0	0	0	0	483	197	
8	0	0	0	0	482	196	
9	0	0	0	0	483	196	
10	0	0	0	0	483	196	
11	0	0	0	0	484	196	
12	0	0	0	0	485	196	
13	0	0	0	0	486	196	
14	0	0	0	0	487	196	
15	0	0	0	0	488	196	
0	0	0	0	0	489	196	
1	0	0	0	0	489	197	
2	0	0	0	0	489	197	
3	0	0	0	0	489	197	
4	0	0	0	0	489	197	
5	0	0	0	0	490	197	
6	0	0	0	0	490	197	
7	0	0	0	0	491	197	
8	0	0	0	0	491	197	
9	0	0	0	0	491	197	
10	0	0	0	0	492	196	
11	0	0	0	0	492	197	
12	0	0	0	0	492	196	
13	0	0	0	0	492	196	
14	0	0	0	0	494	196	
15	0	0	0	0	495	196	
0	0	0	0	0	496	196	
1	0	0	0	0	497	196	
2	0	0	0	0	498	196	
3	0	0	0	0	499	196	
4	0	0	0	0	500	196	
5	0	0	0	0	499	196	
6	0	0	0	0	499	196	
7	0	0	0	0	500	196	
8	0	0	0	0	500	196	
9	0	0	0	0	499	196	
10	0	0	0	0	499	196	
11	0	0	0	0	499	196	
12	0	0	0	0	499	196	
13	0	0	0	0	499	196	
14	0	0	0	0	499	196	
15	0	0	0	0	498	196	
0	0	0	0	0	497	196	
1	0	0	0	0	497	197	
2	0	0	0	0	496	196	
3	0	0	0	0	495	196	
4	0	0	0	0	492	196	
5	0	0	0	0	493	196	
6	0	0	0	0	495	197	
7	0	0	0	0	496	197	
8	0	0	0	0	498	197	
9	0	0	0	0	498	197	
10	0	0	0	0	498	197	
11	0	0	0	0	498	197	
12	0	0	0	0	498	197	
13	0	0	0	0	499	197	
14	0	0	0	0	499	197	
15	0	0	0	0	499	197	
0	0	0	0	0	500	197	
1	0	0	0	0	502	197	
2	0	0	0	0	504	197	
3	0	0	0	0	504	197	
4	0	0	0	0	504	197	
5	0	0	0	0	504	197	
6	0	0	0	0	505	197	
7	0	0	0	0	507	197	
8	0	0	0	0	507	197	
9	0	0	0	0	507	197	
10	0	0	0	0	508	197	
11	0	0	0	0	510	197	
12	0	0	0	0	511	197	
13	0	0	0	0	511	197	
14	0	0	0	0	510	197	
15	0	0	0	0	510	196	
0	0	0	0	0	508	196	
1	0	0	0	0	508	196	
2	0	0	0	0	508	196	
3	0	0	0	0	507	196	
4	0	0	0	0	506	196	
5	0	0	0	0	505	196	
6	0	0	0	0	504	196	
7	0	0	0	0	504	196	
8	0	0	0	0	503	196	
9	0	0	0	0	504	196	
10	0	0	0	0	504	196	
11	0	0	0	0	505	196	
12	0	0	0	0	505	196	
13	0	0	0	0	505	196	
14	0	0	0	0	506	196	
15	0	0	0	0	508	196	
0	0	0	0	0	509	196	
1	0	0	0	0	509	196	
2	0	0	0	0	509	197	
3	0	0	0	0	509	197	
4	0	0	0	0	508	197	
5	0	0	0	0	508	197	
6	0	0	0	0	507	197	
7	0	0	0	0	508	197	
8	0	0	0	0	509	197	
9	0	0	0	0	509	197	
10	0	0	0	0	509	197	
11	0	0	0	0	510	197	
12	0	0	0	0	509	197	
13	0	0	0	0	509	197	
14	0	0	0	0	509	197	
15	0	0	0	0	510	197	
0	0	0	0	0	510	197	
1	0	0	0	0	510	197	
2	0	0	0	0	510	197	
3	0	0	0	0	509	197	
4	0	0	0	0	509	197	
5	0	0	0	0	509	197	
6	0	0	0	0	509	197	
7	0	0	0	0	510	197	
8	0	0	0	0	511	197	
9	0	0	0	0	512	197	
10	0	0	0	0	514	197	
11	0	0	0	0	512	197	
12	0	0	0	0	511	197	
13	0	0	0	0	511	196	
14	0	0	0	0	511	196	
15	0	0	0	0	512	196	
0	0	0	0	0	513	196	
1	0	0	0	0	513	196	
2	0	0	0	0	514	196	
3	0	0	0	0	515	196	
4	0	0	0	0	517	196	
5	0	0	0	0	517	196	
6	0	0	0	0	518	196	
7	0	0	0	0	519	196	
8	0	0	0	0	518	196	
9	0	0	0	0	516	196	
10	0	0	0	0	516	196	
11	0	0	0	0	515	197	
12	0	0	0	0	515	197	
13	0	0	0	0	516	197	
14	0	0	0	0	516	196	
15	0	0	0	0	516	196	
0	0	0	0	0	516	196	
1	0	0	0	0	516	197	
2	0	0	0	0	517	197	
3	0	0	0	0	518	197	
4	0	0	0	0	518	197	
5	0	0	0	0	518	197	
6	0	0	0	0	518	197	
7	0	0	0	0	517	197	
8	0	0	0	0	517	197	
9	0	0	0	0	516	197	
10	0	0	0	0	516	197	
11	0	0	0	0	516	197	
12	0	0	0	0	517	197	
13	0	0	0	0	518	197	
14	0	0	0	0	519	197	
15	0	0	0	0	520	197	
0	0	0	0	0	520	197	
1	0	0	0	0	521	197	
2	0	0	0	0	521	197	
3	0	0	0	0	522	197	
4	0	0	0	0	521	197	
5	0	0	0	0	520	197	
6	0	0	0	0	520	197	
7	0	0	0	0	518	197	
8	0	0	0	0	516	197	
9	0	0	0	0	515	197	
10	0	0	0	0	515	197	
11	0	0	0	0	516	197	
12	0	0	0	0	516	197	
13	0	0	0	0	517	197	
14	0	0	0	0	519	197	
15	0	0	0	0	521	196	
0	0	0	0	0	522	197	
1	0	0	0	0	524	197	
2	0	0	0	0	524	196	
3	0	0	0	0	523	196	
4	0	0	0	0	523	196	
5	0	0	0	0	525	196	
6	0	0	0	0	525	196	
7	0	0	0	0	525	196	
8	0	0	0	0	524	196	
9	0	0	0	0	524	196	
10	0	0	0	0	524	196	
11	0	0	0	0	524	196	
12	0	0	0	0	523	196	
13	0	0	0	0	523	196	
14	0	0	0	0	521	196	
15	0	0	0	0	521	196	
0	0	0	0	0	520	196	
1	0	0	0	0	521	197	
2	0	0	0	0	522	197	
3	0	0	0	0	522	197	
4	0	0	0	0	523	197	
5	0	0	0	0	524	197	
6	0	0	0	0	524	197	
7	0	0	0	0	524	197	
8	0	0	0	0	525	197	
9	0	0	0	0	526	197	
10	0	0	0	0	525	197	
11	0	0	0	0	526	197	
12	0	0	0	0	526	196	
13	0	0	0	0	525	196	
14	0	0	0	0	526	196	
15	0	0	0	0	526	196	
0	0	0	0	0	524	196	
1	0	0	0	0	523	196	
2	0	0	0	0	522	196	
3	0	0	0	0	521	196	
4	0	0	0	0	519	197	
5	0	0	0	0	519	197	
6	0	0	0	0	519	197	
7	0	0	0	0	519	197	
8	0	0	0	0	520	197	
9	0	0	0	0	521	197	
10	0	0	0	0	521	197	
11	0	0	0	0	523	197	
12	0	0	0	0	524	197	
13	0	0	0	0	522	197	
14	0	0	0	0	521	197	
15	0	0	0	0	523	197	
0	0	0	0	0	521	196	
1	0	0	0	0	521	196	
2	0	0	0	0	522	196	
3	0	0	0	0	522	196	
4	0	0	0	0	522	196	
5	0	0	0	0	523	196	
6	0	0	0	0	523	196	
7	0	0	0	0	524	196	
8	0	0	0	0	524	196	
9	0	0	0	0	522	196	
10	0	0	0	0	521	196	
11	0	0	0	0	521	196	
12	0	0	0	0	523	196	
13	0	0	0	0	524	196	
14	0	0	0	0	524	197	
15	0	0	0	0	524	197	
0	0	0	0	0	524	196	
1	0	0	0	0	524	196	
2	0	0	0	0	524	196	
3	0	0	0	0	523	197	
4	0	0	0	0	521	197	
5	0	0	0	0	519	197	
6	0	0	0	0	519	197	
7	0	0	0	0	519	197	
8	0	0	0	0	519	197	
9	0	0	0	0	518	197	
10	0	0	0	0	518	197	
11	0	0	0	0	519	197	
12	0	0	0	0	520	197	
13	0	0	0	0	519	197	
14	0	0	0	0	519	197	
15	0	0	0	0	519	197	
0	0	0	0	0	519	197	
1	0	0	0	0	519	196	
2	0	0	0	0	519	196	
3	0	0	0	0	521	196	
4	0	0	0	0	521	196	
5	0	0	0	0	523	196	
6	0	0	0	0	523	196	
7	0	0	0	0	524	196	
8	0	0	0	0	523	196	
9	0	0	0	0	523	196	
10	0	0	0	0	523	196	
11	0	0	0	0	521	196	
12	0	0	0	0	520	196	
13	0	0	0	0	520	196	
14	0	0	0	0	520	196	
15	0	0	0	0	519	196	
0	0	0	0	0	519	196	
1	0	0	0	0	519	196	
2	0	0	0	0	519	196	
3	0	0	0	0	518	196	
4	0	0	0	0	518	196	
5	0	0	0	0	518	196	
6	0	0	0	0	517	196	
7	0	0	0	0	517	196	
8	0	0	0	0	516	196	
9	0	0	0	0	517	196	
10	0	0	0	0	516	196	
11	0	0	0	0	516	196	
12	0	0	0	0	515	196	
13	0	0	0	0	515	196	
14	0	0	0	0	516	196	
15	0	0	0	0	517	197	
0	0	0	0	0	519	197	
1	0	0	0	0	519	197	
2	0	0	0	0	520	197	
3	0	0	0	0	520	197	
4	0	0	0	0	519	197	
5	0	0	0	0	521	197	
6	0	0	0	0	520	197	
7	0	0	0	0	520	197	
8	0	0	0	0	521	197	
9	0	0	0	0	520	197	
10	0	0	0	0	521	197	
11	0	0	0	0	521	197	
12	0	0	0	0	521	197	
13	0	0	0	0	519	197	
14	0	0	0	0	517	197	
15	0	0	0	0	516	197	
0	0	0	0	0	515	197	
1	0	0	0	0	515	197	
2	0	0	0	0	515	197	
3	0	0	0	0	514	197	
4	0	0	0	0	514	197	
5	0	0	0	0	513	197	
6	0	0	0	0	512	197	
7	0	0	0	0	513	197	
8	0	0	0	0	514	196	
9	0	0	0	0	515	196	
10	0	0	0	0	515	196	
11	0	0	0	0	516	196	
12	0	0	0	0	516	196	
13	0	0	0	0	516	196	
14	0	0	0	0	518	196	
15	0	0	0	0	518	196	
0	0	0	0	0	519	196	
1	0	0	0	0	520	196	
2	0	0	0	0	522	196	
3	0	0	0	0	524	196	
4	0	0	0	0	525	196	
5	0	0	0	0	526	196	
6	0	0	0	0	527	196	
7	0	0	0	0	527	196	
8	0	0	0	0	526	196	
9	0	0	0	0	526	196	
10	0	0	0	0	525	196	
11	0	0	0	0	526	196	
12	0	0	0	0	525	196	
13	0	0	0	0	524	196	
14	0	0	0	0	524	197	
15	0	0	0	0	524	196	
0	0	0	0	0	524	196	
1	0	0	0	0	520	196	
2	0	0	0	0	518	196	
3	0	0	0	0	517	196	
4	0	0	0	0	516	196	
5	0	0	0	0	516	197	
6	0	0	0	0	516	197	
7	0	0	0	0	516	197	
8	0	0	0	0	517	197	
9	0	0	0	0	518	196	
10	0	0	0	0	519	197	
11	0	0	0	0	520	197	
12	0	0	0	0	520	196	
13	0	0	0	0	521	196	
14	0	0	0	0	521	196	
15	0	0	0	0	523	196	
0	0	0	0	0	522	197	
1	0	0	0	0	521	197	
2	0	0	0	0	519	197	
3	0	0	0	0	519	197	
4	0	0	0	0	519	196	
5	0	0	0	0	519	196	
6	0	0	0	0	521	196	
7	0	0	0	0	521	196	
8	0	0	0	0	522	195	
9	0	0	0	0	524	196	
10	0	0	0	0	525	196	
11	0	0	0	0	526	197	
12	0	0	0	0	525	197	
13	0	0	0	0	524	197	
14	0	0	0	0	525	197	
15	0	0	0	0	524	197	
0	0	0	0	0	524	196	
1	0	0	0	0	523	197	
2	0	0	0	0	523	196	
3	0	0	0	0	523	196	
4	0	0	0	0	522	196	
5	0	0	0	0	521	196	
6	0	0	0	0	520	196	
7	0	0	0	0	519	196	
8	0	0	0	0	519	197	
9	0	0	0	0	519	197	
10	0	0	0	0	518	196	
11	0	0	0	0	518	196	
12	0	0	0	0	518	196	
13	0	0	0	0	516	197	
14	0	0	0	0	515	196	
15	0	0	0	0	513	196	
0	0	0	0	0	513	196	
1	0	0	0	0	513	196	
2	0	0	0	0	514	196	
3	0	0	0	0	514	197	
4	0	0	0	0	512	197	
5	0	0	0	0	511	197	
6	0	0	0	0	511	197	
7	0	0	0	0	510	196	
8	0	0	0	0	508	196	
9	0	0	0	0	507	196	
10	0	0	0	0	507	196	
11	0	0	0	0	506	196	
12	0	0	0	0	507	196	
13	0	0	0	0	508	196	
14	0	0	0	0	506	197	
15	0	0	0	0	504	197	
0	0	0	0	0	504	197	
1	0	0	0	0	505	197	
2	0	0	0	0	504	197	
3	0	0	0	0	504	196	
4	0	0	0	0	503	196	
5	0	0	0	0	502	196	
6	0	0	0	0	501	196	
7	0	0	0	0	502	196	
8	0	0	0	0	503	196	
9	0	0	0	0	502	197	
10	0	0	0	0	502	197	
11	0	0	0	0	503	197	
12	0	0	0	0	503	197	
13	0	0	0	0	502	197	
14	0	0	0	0	503	197	
15	0	0	0	0	504	196	
0	0	0	0	0	504	196	
1	0	0	0	0	504	196	
2	0	0	0	0	504	196	
3	0	0	0	0	504	196	
4	0	0	0	0	504	195	
5	0	0	0	0	504	196	
6	0	0	0	0	505	197	
7	0	0	0	0	506	197	
8	0	0	0	0	506	197	
9	0	0	0	0	506	197	
10	0	0	0	0	506	197	
11	0	0	0	0	505	197	
12	0	0	0	0	505	196	
13	0	0	0	0	504	196	
14	0	0	0	0	504	196	
15	0	0	0	0	503	196	
0	0	0	0	0	502	196	
1	0	0	0	0	502	196	
2	0	0	0	0	503	196	
3	0	0	0	0	502	197	
4	0	0	0	0	503	197	
5	0	0	0	0	502	197	
6	0	0	0	0	503	197	
7	0	0	0	0	502	197	
8	0	0	0	0	501	196	
9	0	0	0	0	500	197	
10	0	0	0	0	500	197	
11	0	0	0	0	500	196	
12	0	0	0	0	499	196	
13	0	0	0	0	499	196	
14	0	0	0	0	499	196	
15	0	0	0	0	501	196	
0	0	0	0	0	504	197	
1	0	0	0	0	508	197	
2	0	0	0	0	511	197	
3	0	0	0	0	513	197	
4	0	0	0	0	513	197	
5	0	0	0	0	514	197	
6	0	0	0	0	514	197	
7	0	0	0	0	512	196	
8	0	0	0	0	511	197	
9	0	0	0	0	511	197	
10	0	0	0	0	511	197	
11	0	0	0	0	510	197	
12	0	0	0	0	510	196	
13	0	0	0	0	511	196	
14	0	0	0	0	512	196	
15	0	0	0	0	512	196	
0	0	0	0	0	513	196	
1	0	0	0	0	514	195	
2	0	0	0	0	515	196	
3	0	0	0	0	514	196	
4	0	0	0	0	513	197	
5	0	0	0	0	513	197	
6	0	0	0	0	512	197	
7	0	0	0	0	512	196	
8	0	0	0	0	512	196	
9	0	0	0	0	513	197	
10	0	0	0	0	514	197	
11	0	0	0	0	514	196	
12	0	0	0	0	516	197	
13	0	0	0	0	518	197	
14	0	0	0	0	519	196	
15	0	0	0	0	521	196	
0	0	0	0	0	521	196	
1	0	0	0	0	521	196	
2	0	0	0	0	519	196	
3	0	0	0	0	519	196	
4	0	0	0	0	519	196	
5	0	0	0	0	517	197	
6	0	0	0	0	516	197	
7	0	0	0	0	516	197	
8	0	0	0	0	517	197	
9	0	0	0	0	518	196	
10	0	0	0	0	516	196	
11	0	0	0	0	516	197	
12	0	0	0	0	516	196	
13	0	0	0	0	516	196	
14	0	0	0	0	517	196	
15	0	0	0	0	518	196	
0	0	0	0	0	519	196	
1	0	0	0	0	519	196	
2	0	0	0	0	519	196	
3	0	0	0	0	519	196	
4	0	0	0	0	519	196	
5	0	0	0	0	520	196	
6	0	0	0	0	521	197	
7	0	0	0	0	522	197	
8	0	0	0	0	520	197	
9	0	0	0	0	519	196	
10	0	0	0	0	518	196	
11	0	0	0	0	517	196	
12	0	0	0	0	517	197	
13	0	0	0	0	517	197	
14	0	0	0	0	517	197	
15	0	0	0	0	518	197	
0	0	0	0	0	518	197	
1	0	0	0	0	519	197	
2	0	0	0	0	519	196	
3	0	0	0	0	520	196	
4	0	0	0	0	520	196	
5	0	0	0	0	520	195	
6	0	0	0	0	520	196	
7	0	0	0	0	519	195	
8	0	0	0	0	519	195	
9	0	0	0	0	519	196	
10	0	0	0	0	518	196	
11	0	0	0	0	517	195	
12	0	0	0	0	515	196	
13	0	0	0	0	513	195	
14	0	0	0	0	512	196	
15	0	0	0	0	511	195	
0	0	0	0	0	511	196	
1	0	0	0	0	513	197	
2	0	0	0	0	513	196	
3	0	0	0	0	514	196	
4	0	0	0	0	513	197	
5	0	0	0	0	512	197	
6	0	0	0	0	513	197	
7	0	0	0	0	513	196	
8	0	0	0	0	514	196	
9	0	0	0	0	514	196	
10	0	0	0	0	514	196	
11	0	0	0	0	514	197	
12	0	0	0	0	515	196	
13	0	0	0	0	517	196	
14	0	0	0	0	519	197	
15	0	0	0	0	521	196	
0	0	0	0	0	522	197	
1	0	0	0	0	522	197	
2	0	0	0	0	522	197	
3	0	0	0	0	523	197	
4	0	0	0	0	523	197	
5	0	0	0	0	523	196	
6	0	0	0	0	522	196	
7	0	0	0	0	522	196	
8	0	0	0	0	522	196	
9	0	0	0	0	522	196	
10	0	0	0	0	522	196	
11	0	0	0	0	523	196	
12	0	0	0	0	524	197	
13	0	0	0	0	524	196	
14	0	0	0	0	523	197	
15	0	0	0	0	524	196	
0	0	0	0	0	524	196	
1	0	0	0	0	523	196	
2	0	0	0	0	525	196	
3	0	0	0	0	525	195	
4	0	0	0	0	524	196	
5	0	0	0	0	523	196	
6	0	0	0	0	523	196	
7	0	0	0	0	525	195	
8	0	0	0	0	525	195	
9	0	0	0	0	526	195	
10	0	0	0	0	527	195	
11	0	0	0	0	527	196	
12	0	0	0	0	528	196	
13	0	0	0	0	529	196	
14	0	0	0	0	529	196	
15	0	0	0	0	527	196	
0	0	0	0	0	527	196	
1	0	0	0	0	527	196	
2	0	0	0	0	527	196	
3	0	0	0	0	527	196	
4	0	0	0	0	527	196	
5	0	0	0	0	527	196	
6	0	0	0	0	528	196	
7	0	0	0	0	528	197	
8	0	0	0	0	527	196	
9	0	0	0	0	527	196	
10	0	0	0	0	527	196	
11	0	0	0	0	527	196	
12	0	0	0	0	527	195	
13	0	0	0	0	527	195	
14	0	0	0	0	527	195	
15	0	0	0	0	526	196	
0	0	0	0	0	526	196	
1	0	0	0	0	527	196	
2	0	0	0	0	528	196	
3	0	0	0	0	528	196	
4	0	0	0	0	528	196	
5	0	0	0	0	528	196	
6	0	0	0	0	528	196	
7	0	0	0	0	528	196	
8	0	0	0	0	528	196	
9	0	0	0	0	528	196	
10	0	0	0	0	527	196	
11	0	0	0	0	527	196	
12	0	0	0	0	526	196	
13	0	0	0	0	526	196	
14	0	0	0	0	526	196	
15	0	0	0	0	526	196	
0	0	0	0	0	526	197	
1	0	0	0	0	526	197	
2	0	0	0	0	527	196	
3	0	0	0	0	529	197	
4	0	0	0	0	529	196	
5	0	0	0	0	530	195	
6	0	0	0	0	530	195	
7	0	0	0	0	531	195	
8	0	0	0	0	531	195	
9	0	0	0	0	531	195	
10	0	0	0	0	531	196	
11	0	0	0	0	529	195	
12	0	0	0	0	529	196	
13	0	0	0	0	530	196	
14	0	0	0	0	530	196	
15	0	0	0	0	531	196	
0	0	0	0	0	531	196	
1	0	0	0	0	532	196	
2	0	0	0	0	534	196	
3	0	0	0	0	534	196	
4	0	0	0	0	533	196	
5	0	0	0	0	534	196	
6	0	0	0	0	534	196	
7	0	0	0	0	535	196	
8	0	0	0	0	535	196	
9	0	0	0	0	535	196	
10	0	0	0	0	534	196	
11	0	0	0	0	534	196	
12	0	0	0	0	534	196	
13	0	0	0	0	534	196	
14	0	0	0	0	534	196	
15	0	0	0	0	533	196	
0	0	0	0	0	532	196	
1	0	0	0	0	532	195	
2	0	0	0	0	531	195	
3	0	0	0	0	531	195	
4	0	0	0	0	532	195	
5	0	0	0	0	532	195	
6	0	0	0	0	533	196	
7	0	0	0	0	534	196	
8	0	0	0	0	534	196	
9	0	0	0	0	534	196	
10	0	0	0	0	534	196	
11	0	0	0	0	535	196	
12	0	0	0	0	535	196	
13	0	0	0	0	536	196	
14	0	0	0	0	537	196	
15	0	0	0	0	537	196	
0	0	0	0	0	537	196	
1	0	0	0	0	536	196	
2	0	0	0	0	536	196	
3	0	0	0	0	536	196	
4	0	0	0	0	536	196	
5	0	0	0	0	537	196	
6	0	0	0	0	537	196	
7	0	0	0	0	538	196	
8	0	0	0	0	539	197	
9	0	0	0	0	540	196	
10	0	0	0	0	541	196	
11	0	0	0	0	541	196	
12	0	0	0	0	542	196	
13	0	0	0	0	543	195	
14	0	0	0	0	542	195	
15	0	0	0	0	543	195	
0	0	0	0	0	543	195	
1	0	0	0	0	543	195	
2	0	0	0	0	541	195	
3	0	0	0	0	541	196	
4	0	0	0	0	543	196	
5	0	0	0	0	544	196	
6	0	0	0	0	546	196	
7	0	0	0	0	549	196	
8	0	0	0	0	552	196	
9	0	0	0	0	553	196	
10	0	0	0	0	555	196	
11	0	0	0	0	558	196	
12	0	0	0	0	560	196	
13	0	0	0	0	561	196	
14	0	0	0	0	563	196	
15	0	0	0	0	564	196	
0	0	0	0	0	565	196	
1	0	0	0	0	566	196	
2	0	0	0	0	566	196	
3	0	0	0	0	565	196	
4	0	0	0	0	566	196	
5	0	0	0	0	565	196	
6	0	0	0	0	565	196	
7	0	0	0	0	564	196	
8	0	0	0	0	563	196	
9	0	0	0	0	561	196	
10	0	0	0	0	560	196	
11	0	0	0	0	558	196	
12	0	0	0	0	555	196	
13	0	0	0	0	554	197	
14	0	0	0	0	552	196	
15	0	0	0	0	552	196	
0	0	0	0	0	552	196	
1	0	0	0	0	553	196	
2	0	0	0	0	553	196	
3	0	0	0	0	551	196	
4	0	0	0	0	550	196	
5	0	0	0	0	550	196	
6	0	0	0	0	551	196	
7	0	0	0	0	551	196	
8	0	0	0	0	551	196	
9	0	0	0	0	552	196	
10	0	0	0	0	552	196	
11	0	0	0	0	553	196	
12	0	0	0	0	556	196	
13	0	0	0	0	556	196	
14	0	0	0	0	556	197	
15	0	0	0	0	555	196	
0	0	0	0	0	552	196	
1	0	0	0	0	551	197	
2	0	0	0	0	549	196	
3	0	0	0	0	548	195	
4	0	0	0	0	545	195	
5	0	0	0	0	543	195	
6	0	0	0	0	542	196	
7	0	0	0	0	541	196	
8	0	0	0	0	540	196	
9	0	0	0	0	540	195	
10	0	0	0	0	541	195	
11	0	0	0	0	541	195	
12	0	0	0	0	540	195	
13	0	0	0	0	539	195	
14	0	0	0	0	539	195	
15	0	0	0	0	536	195	
0	0	0	0	0	535	196	
1	0	0	0	0	532	196	
2	0	0	0	0	530	196	
3	0	0	0	0	528	196	
4	0	0	0	0	526	196	
5	0	0	0	0	526	196	
6	0	0	0	0	526	196	
7	0	0	0	0	526	196	
8	0	0	0	0	526	196	
9	0	0	0	0	527	196	
10	0	0	0	0	527	196	
11	0	0	0	0	527	196	
12	0	0	0	0	527	196	
13	0	0	0	0	527	196	
14	0	0	0	0	527	196	
15	0	0	0	0	527	196	
0	0	0	0	0	528	196	
1	0	0	0	0	529	196	
2	0	0	0	0	530	196	
3	0	0	0	0	531	196	
4	0	0	0	0	531	196	
5	0	0	0	0	531	196	
6	0	0	0	0	532	197	
7	0	0	0	0	534	196	
8	0	0	0	0	534	196	
9	0	0	0	0	533	196	
10	0	0	0	0	532	195	
11	0	0	0	0	532	195	
12	0	0	0	0	532	195	
13	0	0	0	0	533	195	
14	0	0	0	0	534	196	
15	0	0	0	0	534	196	
0	0	0	0	0	533	196	
1	0	0	0	0	532	196	
2	0	0	0	0	533	196	
3	0	0	0	0	532	196	
4	0	0	0	0	531	196	
5	0	0	0	0	527	196	
6	0	0	0	0	524	196	
7	0	0	0	0	523	196	
8	0	0	0	0	523	196	
9	0	0	0	0	524	196	
10	0	0	0	0	524	196	
11	0	0	0	0	525	196	
12	0	0	0	0	527	196	
13	0	0	0	0	529	196	
14	0	0	0	0	529	196	
15	0	0	0	0	530	196	
0	0	0	0	0	529	196	
1	0	0	0	0	528	196	
2	0	0	0	0	527	196	
3	0	0	0	0	527	196	
4	0	0	0	0	527	196	
5	0	0	0	0	527	196	
6	0	0	0	0	527	196	
7	0	0	0	0	527	196	
8	0	0	0	0	527	196	
9	0	0	0	0	528	196	
10	0	0	0	0	529	196	
11	0	0	0	0	532	196	
12	0	0	0	0	537	196	
13	0	0	0	0	544	195	
14	0	0	0	0	554	195	
15	0	0	0	0	566	195	
0	0	0	0	0	576	195	
1	0	0	0	0	588	195	
2	0	0	0	0	601	195	
3	0	0	0	0	613	196	
4	0	0	0	0	624	195	
5	0	0	0	0	633	195	
6	0	0	0	0	640	196	
7	0	0	0	0	647	196	
8	0	0	0	0	652	196	
9	0	0	0	0	654	195	
10	0	0	0	0	657	195	
11	0	0	0	0	659	195	
12	0	0	0	0	662	195	
13	0	0	0	0	664	195	
14	0	0	0	0	665	195	
15	0	0	0	0	666	195	
0	0	0	0	0	668	195	
1	0	0	0	0	667	195	
2	0	0	0	0	664	195	
3	0	0	0	0	659	195	
4	0	0	0	0	652	195	
5	0	0	0	0	644	196	
6	0	0	0	0	637	196	
7	0	0	0	0	628	196	
8	0	0	0	0	621	196	
9	0	0	0	0	614	196	
10	0	0	0	0	607	196	
11	0	0	0	0	600	196	
12	0	0	0	0	592	196	
13	0	0	0	0	583	196	
14	0	0	0	0	570	196	
15	0	0	0	0	557	196	
0	0	0	0	0	542	196	
1	0	0	0	0	529	196	
2	0	0	0	0	519	196	
3	0	0	0	0	509	196	
4	0	0	0	0	501	196	
5	0	0	0	0	495	197	
6	0	0	0	0	491	196	
7	0	0	0	0	489	196	
8	0	0	0	0	487	196	
9	0	0	0	0	483	195	
10	0	0	0	0	481	195	
11	0	0	0	0	481	196	
12	0	0	0	0	480	196	
13	0	0	0	0	479	196	
14	0	0	0	0	479	196	
15	0	0	0	0	480	196	
0	0	0	0	0	482	196	
1	0	0	0	0	484	196	
2	0	0	0	0	485	196	
3	0	0	0	0	487	196	
4	0	0	0	0	490	196	
5	0	0	0	0	491	196	
6	0	0	0	0	494	196	
7	0	0	0	0	496	196	
8	0	0	0	0	497	196	
9	0	0	0	0	496	196	
10	0	0	0	0	497	196	
11	0	0	0	0	497	196	
12	0	0	0	0	496	196	
13	0	0	0	0	496	196	
14	0	0	0	0	494	196	
15	0	0	0	0	494	197	
0	0	0	0	0	492	197	
1	0	0	0	0	491	196	
2	0	0	0	0	489	196	
3	0	0	0	0	488	196	
4	0	0	0	0	485	195	
5	0	0	0	0	483	196	
6	0	0	0	0	480	196	
7	0	0	0	0	480	196	
8	0	0	0	0	478	196	
9	0	0	0	0	477	196	
10	0	0	0	0	476	196	
11	0	0	0	0	475	196	
12	0	0	0	0	476	196	
13	0	0	0	0	477	196	
14	0	0	0	0	480	197	
15	0	0	0	0	484	197	
0	0	0	0	0	487	196	
1	0	0	0	0	491	196	
2	0	0	0	0	496	196	
3	0	0	0	0	499	196	
4	0	0	0	0	503	196	
5	0	0	0	0	506	196	
6	0	0	0	0	510	196	
7	0	0	0	0	512	196	
8	0	0	0	0	515	196	
9	0	0	0	0	515	196	
10	0	0	0	0	514	196	
11	0	0	0	0	513	196	
12	0	0	0	0	512	196	
13	0	0	0	0	509	196	
14	0	0	0	0	508	196	
15	0	0	0	0	506	196	
0	0	0	0	0	504	195	
1	0	0	0	0	503	195	
2	0	0	0	0	502	195	
3	0	0	0	0	500	196	
4	0	0	0	0	499	196	
5	0	0	0	0	499	196	
6	0	0	0	0	500	196	
7	0	0	0	0	501	196	
8	0	0	0	0	501	196	
9	0	0	0	0	502	196	
10	0	0	0	0	502	196	
11	0	0	0	0	503	196	
12	0	0	0	0	504	196	
13	0	0	0	0	504	196	
14	0	0	0	0	505	196	
15	0	0	0	0	505	196	
0	0	0	0	0	504	196	
1	0	0	0	0	505	196	
2	0	0	0	0	507	196	
3	0	0	0	0	507	196	
4	0	0	0	0	508	196	
5	0	0	0	0	508	196	
6	0	0	0	0	507	196	
7	0	0	0	0	507	196	
8	0	0	0	0	507	196	
9	0	0	0	0	507	196	
10	0	0	0	0	507	196	
11	0	0	0	0	507	196	
12	0	0	0	0	506	196	
13	0	0	0	0	505	196	
14	0	0	0	0	506	196	
15	0	0	0	0	505	195	
0	0	0	0	0	505	195	
1	0	0	0	0	505	196	
2	0	0	0	0	505	196	
3	0	0	0	0	506	196	
4	0	0	0	0	507	196	
5	0	0	0	0	508	196	
6	0	0	0	0	509	196	
7	0	0	0	0	511	196	
8	0	0	0	0	512	196	
9	0	0	0	0	513	196	
10	0	0	0	0	513	196	
11	0	0	0	0	512	196	
12	0	0	0	0	513	196	
13	0	0	0	0	513	196	
14	0	0	0	0	511	196	
15	0	0	0	0	509	195	
0	0	0	0	0	508	195	
1	0	0	0	0	507	195	
2	0	0	0	0	508	195	
3	0	0	0	0	510	195	
4	0	0	0	0	512	195	
5	0	0	0	0	514	195	
6	0	0	0	0	519	195	
7	0	0	0	0	525	196	
8	0	0	0	0	528	196	
9	0	0	0	0	532	196	
10	0	0	0	0	534	196	
11	0	0	0	0	534	196	
12	0	0	0	0	534	196	
13	0	0	0	0	533	196	
14	0	0	0	0	529	196	
15	0	0	0	0	526	196	
0	0	0	0	0	522	196	
1	0	0	0	0	519	196	
2	0	0	0	0	515	196	
3	0	0	0	0	513	195	
4	0	0	0	0	512	195	
5	0	0	0	0	512	195	
6	0	0	0	0	512	196	
7	0	0	0	0	513	196	
8	0	0	0	0	514	196	
9	0	0	0	0	517	196	
10	0	0	0	0	521	196	
11	0	0	0	0	525	196	
12	0	0	0	0	527	196	
13	0	0	0	0	529	196	
14	0	0	0	0	530	196	
15	0	0	0	0	529	196	
0	0	0	0	0	527	196	
1	0	0	0	0	526	195	
2	0	0	0	0	524	195	
3	0	0	0	0	520	195	
4	0	0	0	0	517	195	
5	0	0	0	0	515	195	
6	0	0	0	0	513	195	
7	0	0	0	0	512	195	
8	0	0	0	0	511	195	
9	0	0	0	0	511	195	
10	0	0	0	0	514	195	
11	0	0	0	0	517	195	
12	0	0	0	0	519	195	
13	0	0	0	0	521	195	
14	0	0	0	0	524	195	
15	0	0	0	0	527	195	
0	0	0	0	0	527	195	
1	0	0	0	0	528	195	
2	0	0	0	0	529	196	
3	0	0	0	0	529	196	
4	0	0	0	0	531	196	
5	0	0	0	0	534	196	
6	0	0	0	0	537	196	
7	0	0	0	0	540	196	
8	0	0	0	0	542	196	
9	0	0	0	0	543	196	
10	0	0	0	0	541	196	
11	0	0	0	0	540	196	
12	0	0	0	0	537	196	
13	0	0	0	0	534	196	
14	0	0	0	0	531	196	
15	0	0	0	0	529	196	
0	0	0	0	0	527	196	
1	0	0	0	0	526	196	
2	0	0	0	0	526	196	
3	0	0	0	0	525	196	
4	0	0	0	0	523	196	
5	0	0	0	0	522	196	
6	0	0	0	0	523	196	
7	0	0	0	0	525	196	
8	0	0	0	0	525	196	
9	0	0	0	0	524	196	
10	0	0	0	0	525	196	
11	0	0	0	0	525	196	
12	0	0	0	0	526	196	
13	0	0	0	0	528	196	
14	0	0	0	0	528	196	
15	0	0	0	0	530	196	
0	0	0	0	0	531	196	
1	0	0	0	0	530	196	
2	0	0	0	0	529	196	
3	0	0	0	0	529	196	
4	0	0	0	0	528	195	
5	0	0	0	0	528	195	
6	0	0	0	0	529	195	
7	0	0	0	0	530	196	
8	0	0	0	0	532	195	
9	0	0	0	0	536	196	
10	0	0	0	0	538	196	
11	0	0	0	0	540	196	
12	0	0	0	0	542	196	
13	0	0	0	0	543	196	
14	0	0	0	0	546	196	
15	0	0	0	0	552	196	
0	0	0	0	0	556	196	
1	0	0	0	0	558	196	
2	0	0	0	0	556	196	
3	0	0	0	0	554	196	
4	0	0	0	0	551	196	
5	0	0	0	0	550	196	
6	0	0	0	0	549	196	
7	0	0	0	0	549	196	
8	0	0	0	0	548	196	
9	0	0	0	0	547	196	
10	0	0	0	0	546	196	
11	0	0	0	0	545	196	
12	0	0	0	0	543	196	
13	0	0	0	0	542	196	
14	0	0	0	0	542	195	
15	0	0	0	0	544	195	
0	0	0	0	0	545	195	
1	0	0	0	0	545	195	
2	0	0	0	0	545	195	
3	0	0	0	0	544	195	
4	0	0	0	0	542	195	
5	0	0	0	0	541	195	
6	0	0	0	0	538	195	
7	0	0	0	0	535	195	
8	0	0	0	0	531	195	
9	0	0	0	0	529	195	
10	0	0	0	0	528	195	
11	0	0	0	0	527	196	
12	0	0	0	0	529	196	
13	0	0	0	0	532	195	
14	0	0	0	0	532	195	
15	0	0	0	0	534	196	
0	0	0	0	0	534	196	
1	0	0	0	0	536	196	
2	0	0	0	0	539	196	
3	0	0	0	0	541	196	
4	0	0	0	0	543	196	
5	0	0	0	0	545	196	
6	0	0	0	0	550	196	
7	0	0	0	0	555	196	
8	0	0	0	0	558	196	
9	0	0	0	0	559	196	
10	0	0	0	0	560	196	
11	0	0	0	0	561	196	
12	0	0	0	0	563	196	
13	0	0	0	0	566	196	
14	0	0	0	0	568	196	
15	0	0	0	0	566	196	
0	0	0	0	0	564	196	
1	0	0	0	0	560	196	
2	0	0	0	0	556	196	
3	0	0	0	0	553	196	
4	0	0	0	0	548	196	
5	0	0	0	0	546	196	
6	0	0	0	0	544	196	
7	0	0	0	0	543	196	
8	0	0	0	0	543	196	
9	0	0	0	0	541	196	
10	0	0	0	0	540	196	
11	0	0	0	0	539	195	
12	0	0	0	0	537	195	
13	0	0	0	0	534	195	
14	0	0	0	0	531	195	
15	0	0	0	0	527	196	
0	0	0	0	0	522	196	
1	0	0	0	0	519	195	
2	0	0	0	0	517	195	
3	0	0	0	0	514	195	
4	0	0	0	0	510	195	
5	0	0	0	0	507	195	
6	0	0	0	0	508	195	
7	0	0	0	0	508	195	
8	0	0	0	0	508	195	
9	0	0	0	0	508	196	
10	0	0	0	0	507	196	
11	0	0	0	0	506	196	
12	0	0	0	0	504	196	
13	0	0	0	0	501	196	
14	0	0	0	0	499	196	
15	0	0	0	0	499	196	
0	0	0	0	0	497	196	
1	0	0	0	0	495	196	
2	0	0	0	0	492	196	
3	0	0	0	0	490	196	
4	0	0	0	0	487	196	
5	0	0	0	0	484	196	
6	0	0	0	0	481	196	
7	0	0	0	0	479	196	
8	0	0	0	0	475	196	
9	0	0	0	0	471	196	
10	0	0	0	0	467	196	
11	0	0	0	0	463	196	
12	0	0	0	0	461	196	
13	0	0	0	0	460	196	
14	0	0	0	0	461	196	
15	0	0	0	0	462	196	
0	0	0	0	0	463	196	
1	0	0	0	0	464	196	
2	0	0	0	0	467	196	
3	0	0	0	0	471	196	
4	0	0	0	0	473	196	
5	0	0	0	0	475	196	
6	0	0	0	0	476	196	
7	0	0	0	0	476	196	
8	0	0	0	0	477	196	
9	0	0	0	0	477	196	
10	0	0	0	0	476	196	
11	0	0	0	0	475	196	
12	0	0	0	0	473	196	
13	0	0	0	0	471	196	
14	0	0	0	0	470	196	
15	0	0	0	0	469	196	
0	0	0	0	0	467	196	
1	0	0	0	0	466	196	
2	0	0	0	0	464	196	
3	0	0	0	0	463	196	
4	0	0	0	0	463	196	
5	0	0	0	0	462	196	
6	0	0	0	0	461	196	
7	0	0	0	0	460	196	
8	0	0	0	0	460	196	
9	0	0	0	0	463	196	
10	0	0	0	0	464	196	
11	0	0	0	0	465	196	
12	0	0	0	0	466	195	
13	0	0	0	0	466	195	
14	0	0	0	0	467	196	
15	0	0	0	0	467	196	
0	0	0	0	0	467	195	
1	0	0	0	0	467	196	
2	0	0	0	0	468	195	
3	0	0	0	0	469	196	
4	0	0	0	0	466	196	
5	0	0	0	0	466	196	
6	0	0	0	0	468	196	
7	0	0	0	0	472	195	
8	0	0	0	0	472	196	
9	0	0	0	0	470	195	
10	0	0	0	0	470	196	
11	0	0	0	0	471	196	
12	0	0	0	0	470	196	
13	0	0	0	0	467	196	
14	0	0	0	0	465	196	
15	0	0	0	0	463	195	
0	0	0	0	0	461	196	
1	0	0	0	0	458	196	
2	0	0	0	0	455	196	
3	0	0	0	0	454	196	
4	0	0	0	0	454	196	
5	0	0	0	0	459	196	
6	0	0	0	0	465	196	
7	0	0	0	0	472	196	
8	0	0	0	0	477	196	
9	0	0	0	0	480	196	
10	0	0	0	0	483	196	
11	0	0	0	0	485	196	
12	0	0	0	0	488	196	
13	0	0	0	0	491	196	
14	0	0	0	0	492	196	
15	0	0	0	0	491	196	
0	0	0	0	0	489	196	
1	0	0	0	0	486	196	
2	0	0	0	0	483	196	
3	0	0	0	0	480	196	
4	0	0	0	0	478	196	
5	0	0	0	0	476	196	
6	0	0	0	0	474	196	
7	0	0	0	0	471	196	
8	0	0	0	0	468	196	
9	0	0	0	0	466	196	
10	0	0	0	0	465	196	
11	0	0	0	0	464	196	
12	0	0	0	0	462	196	
13	0	0	0	0	460	196	
14	0	0	0	0	460	196	
15	0	0	0	0	460	196	
0	0	0	0	0	463	196	
1	0	0	0	0	470	196	
2	0	0	0	0	476	196	
3	0	0	0	0	480	196	
4	0	0	0	0	481	195	
5	0	0	0	0	481	196	
6	0	0	0	0	483	196	
7	0	0	0	0	483	196	
8	0	0	0	0	483	196	
9	0	0	0	0	485	196	
10	0	0	0	0	488	196	
11	0	0	0	0	489	196	
12	0	0	0	0	489	195	
13	0	0	0	0	488	195	
14	0	0	0	0	487	196	
15	0	0	0	0	487	196	
0	0	0	0	0	486	196	
1	0	0	0	0	484	196	
2	0	0	0	0	484	196	
3	0	0	0	0	483	196	
4	0	0	0	0	482	196	
5	0	0	0	0	479	195	
6	0	0	0	0	477	196	
7	0	0	0	0	475	196	
8	0	0	0	0	471	196	
9	0	0	0	0	469	196	
10	0	0	0	0	468	196	
11	0	0	0	0	467	196	
12	0	0	0	0	467	196	
13	0	0	0	0	468	196	
14	0	0	0	0	470	196	
15	0	0	0	0	470	196	
0	0	0	0	0	470	196	
1	0	0	0	0	471	196	
2	0	0	0	0	473	195	
3	0	0	0	0	476	195	
4	0	0	0	0	477	196	
5	0	0	0	0	478	196	
6	0	0	0	0	479	196	
7	0	0	0	0	479	196	
8	0	0	0	0	479	196	
9	0	0	0	0	476	196	
10	0	0	0	0	470	196	
11	0	0	0	0	465	196	
12	0	0	0	0	460	196	
13	0	0	0	0	455	196	
14	0	0	0	0	452	195	
15	0	0	0	0	451	196	
0	0	0	0	0	451	196	
1	0	0	0	0	452	196	
2	0	0	0	0	455	196	
3	0	0	0	0	456	196	
4	0	0	0	0	458	196	
5	0	0	0	0	460	196	
6	0	0	0	0	461	196	
7	0	0	0	0	462	196	
8	0	0	0	0	461	196	
9	0	0	0	0	460	196	
10	0	0	0	0	459	196	
11	0	0	0	0	458	196	
12	0	0	0	0	460	196	
13	0	0	0	0	462	196	
14	0	0	0	0	463	196	
15	0	0	0	0	463	196	
0	0	0	0	0	463	196	
1	0	0	0	0	464	196	
2	0	0	0	0	468	196	
3	0	0	0	0	472	196	
4	0	0	0	0	474	196	
5	0	0	0	0	474	196	
6	0	0	0	0	474	196	
7	0	0	0	0	473	196	
8	0	0	0	0	471	196	
9	0	0	0	0	470	196	
10	0	0	0	0	468	196	
11	0	0	0	0	467	196	
12	0	0	0	0	464	196	
13	0	0	0	0	464	196	
14	0	0	0	0	465	196	
15	0	0	0	0	470	196	
0	0	0	0	0	472	196	
1	0	0	0	0	472	196	
2	0	0	0	0	472	196	
3	0	0	0	0	472	196	
4	0	0	0	0	472	196	
5	0	0	0	0	473	196	
6	0	0	0	0	475	196	
7	0	0	0	0	476	196	
8	0	0	0	0	476	196	
9	0	0	0	0	476	196	
10	0	0	0	0	475	196	
11	0	0	0	0	472	196	
12	0	0	0	0	470	196	
13	0	0	0	0	469	196	
14	0	0	0	0	467	196	
15	0	0	0	0	466	196	
0	0	0	0	0	464	196	
1	0	0	0	0	462	196	
2	0	0	0	0	461	196	
3	0	0	0	0	463	196	
4	0	0	0	0	466	196	
5	0	0	0	0	469	196	
6	0	0	0	0	470	196	
7	0	0	0	0	466	196	
8	0	0	0	0	462	196	
9	0	0	0	0	458	197	
10	0	0	0	0	457	196	
11	0	0	0	0	455	196	
12	0	0	0	0	452	196	
13	0	0	0	0	450	196	
14	0	0	0	0	450	196	
15	0	0	0	0	450	196	
0	0	0	0	0	449	196	
1	0	0	0	0	448	196	
2	0	0	0	0	448	196	
3	0	0	0	0	448	196	
4	0	0	0	0	448	196	
5	0	0	0	0	447	196	
6	0	0	0	0	447	197	
7	0	0	0	0	448	196	
8	0	0	0	0	446	196	
9	0	0	0	0	443	196	
10	0	0	0	0	442	196	
11	0	0	0	0	443	196	
12	0	0	0	0	444	196	
13	0	0	0	0	444	196	
14	0	0	0	0	445	196	
15	0	0	0	0	448	196	
0	0	0	0	0	452	196	
1	0	0	0	0	455	196	
2	0	0	0	0	456	196	
3	0	0	0	0	457	196	
4	0	0	0	0	457	196	
5	0	0	0	0	457	196	
6	0	0	0	0	456	196	
7	0	0	0	0	454	196	
8	0	0	0	0	452	196	
9	0	0	0	0	449	197	
10	0	0	0	0	446	196	
11	0	0	0	0	442	196	
12	0	0	0	0	438	196	
13	0	0	0	0	437	196	
14	0	0	0	0	436	196	
15	0	0	0	0	439	196	
0	0	0	0	0	443	196	
1	0	0	0	0	450	196	
2	0	0	0	0	456	196	
3	0	0	0	0	460	196	
4	0	0	0	0	463	197	
5	0	0	0	0	464	196	
6	0	0	0	0	465	196	
7	0	0	0	0	467	195	
8	0	0	0	0	467	196	
9	0	0	0	0	465	196	
10	0	0	0	0	462	196	
11	0	0	0	0	457	196	
12	0	0	0	0	453	196	
13	0	0	0	0	449	196	
14	0	0	0	0	445	196	
15	0	0	0	0	442	196	
0	0	0	0	0	438	197	
1	0	0	0	0	433	197	
2	0	0	0	0	431	196	
3	0	0	0	0	428	197	
4	0	0	0	0	425	196	
5	0	0	0	0	423	196	
6	0	0	0	0	423	197	
7	0	0	0	0	422	196	
8	0	0	0	0	420	197	
9	0	0	0	0	418	196	
10	0	0	0	0	419	197	
11	0	0	0	0	421	196	
12	0	0	0	0	423	197	
13	0	0	0	0	425	197	
14	0	0	0	0	426	196	
15	0	0	0	0	426	196	
0	0	0	0	0	425	196	
1	0	0	0	0	427	196	
2	0	0	0	0	429	196	
3	0	0	0	0	431	196	
4	0	0	0	0	434	196	
5	0	0	0	0	438	196	
6	0	0	0	0	442	196	
7	0	0	0	0	446	196	
8	0	0	0	0	447	196	
9	0	0	0	0	446	196	
10	0	0	0	0	443	196	
11	0	0	0	0	440	196	
12	0	0	0	0	437	196	
13	0	0	0	0	436	196	
14	0	0	0	0	432	196	
15	0	0	0	0	429	196	
0	0	0	0	0	426	196	
1	0	0	0	0	426	196	
2	0	0	0	0	427	196	
3	0	0	0	0	428	196	
4	0	0	0	0	430	196	
5	0	0	0	0	432	196	
6	0	0	0	0	432	196	
7	0	0	0	0	435	196	
8	0	0	0	0	436	196	
9	0	0	0	0	435	196	
10	0	0	0	0	433	196	
11	0	0	0	0	432	196	
12	0	0	0	0	435	196	
13	0	0	0	0	439	197	
14	0	0	0	0	441	197	
15	0	0	0	0	443	196	
0	0	0	0	0	444	196	
1	0	0	0	0	446	196	
2	0	0	0	0	445	196	
3	0	0	0	0	444	196	
4	0	0	0	0	443	196	
5	0	0	0	0	443	196	
6	0	0	0	0	442	196	
7	0	0	0	0	442	196	
8	0	0	0	0	440	196	
9	0	0	0	0	440	196	
10	0	0	0	0	439	196	
11	0	0	0	0	438	196	
12	0	0	0	0	435	196	
13	0	0	0	0	431	196	
14	0	0	0	0	427	196	
15	0	0	0	0	427	196	
0	0	0	0	0	430	196	
1	0	0	0	0	431	197	
2	0	0	0	0	430	196	
3	0	0	0	0	428	197	
4	0	0	0	0	424	196	
5	0	0	0	0	422	196	
6	0	0	0	0	421	196	
7	0	0	0	0	419	196	
8	0	0	0	0	417	196	
9	0	0	0	0	416	196	
10	0	0	0	0	417	196	
11	0	0	0	0	419	197	
12	0	0	0	0	422	196	
13	0	0	0	0	424	196	
14	0	0	0	0	424	196	
15	0	0	0	0	423	196	
0	0	0	0	0	419	196	
1	0	0	0	0	417	196	
2	0	0	0	0	413	196	
3	0	0	0	0	410	196	
4	0	0	0	0	409	196	
5	0	0	0	0	413	196	
6	0	0	0	0	416	196	
7	0	0	0	0	419	196	
8	0	0	0	0	425	196	
9	0	0	0	0	429	196	
10	0	0	0	0	431	196	
11	0	0	0	0	431	196	
12	0	0	0	0	430	196	
13	0	0	0	0	430	196	
14	0	0	0	0	426	197	
15	0	0	0	0	420	197	
0	0	0	0	0	415	197	
1	0	0	0	0	410	196	
2	0	0	0	0	407	197	
3	0	0	0	0	406	196	
4	0	0	0	0	406	197	
5	0	0	0	0	406	196	
6	0	0	0	0	408	196	
7	0	0	0	0	414	197	
8	0	0	0	0	420	196	
9	0	0	0	0	425	197	
10	0	0	0	0	428	196	
11	0	0	0	0	427	196	
12	0	0	0	0	425	196	
13	0	0	0	0	424	196	
14	0	0	0	0	425	197	
15	0	0	0	0	426	197	
0	0	0	0	0	426	197	
1	0	0	0	0	426	197	
2	0	0	0	0	428	196	
3	0	0	0	0	430	197	
4	0	0	0	0	431	197	
5	0	0	0	0	432	197	
6	0	0	0	0	433	197	
7	0	0	0	0	432	196	
8	0	0	0	0	430	197	
9	0	0	0	0	428	196	
10	0	0	0	0	426	197	
11	0	0	0	0	424	197	
12	0	0	0	0	422	196	
13	0	0	0	0	421	197	
14	0	0	0	0	419	197	
15	0	0	0	0	418	197	
0	0	0	0	0	417	197	
1	0	0	0	0	416	197	
2	0	0	0	0	415	197	
3	0	0	0	0	415	197	
4	0	0	0	0	417	197	
5	0	0	0	0	419	196	
6	0	0	0	0	420	196	
7	0	0	0	0	421	196	
8	0	0	0	0	423	196	
9	0	0	0	0	425	196	
10	0	0	0	0	424	196	
11	0	0	0	0	421	196	
12	0	0	0	0	416	196	
13	0	0	0	0	411	196	
14	0	0	0	0	407	197	
15	0	0	0	0	405	197	
0	0	0	0	0	402	197	
1	0	0	0	0	399	197	
2	0	0	0	0	398	197	
3	0	0	0	0	400	197	
4	0	0	0	0	404	197	
5	0	0	0	0	410	196	
6	0	0	0	0	419	197	
7	0	0	0	0	424	197	
8	0	0	0	0	428	197	
9	0	0	0	0	428	196	
10	0	0	0	0	425	196	
11	0	0	0	0	425	196	
12	0	0	0	0	427	196	
13	0	0	0	0	427	196	
14	0	0	0	0	427	196	
15	0	0	0	0	427	197	
0	0	0	0	0	427	197	
1	0	0	0	0	428	197	
2	0	0	0	0	427	197	
3	0	0	0	0	427	197	
4	0	0	0	0	425	196	
5	0	0	0	0	424	197	
6	0	0	0	0	423	196	
7	0	0	0	0	423	196	
8	0	0	0	0	422	196	
9	0	0	0	0	420	196	
10	0	0	0	0	419	196	
11	0	0	0	0	419	196	
12	0	0	0	0	420	196	
13	0	0	0	0	421	196	
14	0	0	0	0	421	196	
15	0	0	0	0	422	196	
0	0	0	0	0	422	196	
1	0	0	0	0	421	196	
2	0	0	0	0	419	196	
3	0	0	0	0	419	196	
4	0	0	0	0	419	196	
5	0	0	0	0	417	196	
6	0	0	0	0	418	196	
7	0	0	0	0	418	196	
8	0	0	0	0	419	196	
9	0	0	0	0	419	196	
10	0	0	0	0	419	197	
11	0	0	0	0	418	197	
12	0	0	0	0	418	196	
13	0	0	0	0	417	196	
14	0	0	0	0	420	197	
15	0	0	0	0	422	197	
0	0	0	0	0	424	197	
1	0	0	0	0	425	197	
2	0	0	0	0	425	197	
3	0	0	0	0	427	197	
4	0	0	0	0	426	197	
5	0	0	0	0	425	196	
6	0	0	0	0	424	196	
7	0	0	0	0	423	196	
8	0	0	0	0	423	196	
9	0	0	0	0	423	196	
10	0	0	0	0	422	196	
11	0	0	0	0	420	196	
12	0	0	0	0	421	196	
13	0	0	0	0	424	196	
14	0	0	0	0	425	196	
15	0	0	0	0	425	197	
0	0	0	0	0	425	197	
1	0	0	0	0	423	196	
2	0	0	0	0	420	197	
3	0	0	0	0	418	197	
4	0	0	0	0	415	197	
5	0	0	0	0	414	197	
6	0	0	0	0	414	197	
7	0	0	0	0	414	197	
8	0	0	0	0	415	197	
9	0	0	0	0	416	197	
10	0	0	0	0	416	196	
11	0	0	0	0	417	197	
12	0	0	0	0	417	196	
13	0	0	0	0	415	196	
14	0	0	0	0	414	196	
15	0	0	0	0	413	196	
0	0	0	0	0	411	196	
1	0	0	0	0	413	196	
2	0	0	0	0	420	196	
3	0	0	0	0	427	197	
4	0	0	0	0	433	197	
5	0	0	0	0	433	197	
6	0	0	0	0	432	197	
7	0	0	0	0	431	197	
8	0	0	0	0	429	197	
9	0	0	0	0	428	197	
10	0	0	0	0	428	197	
11	0	0	0	0	427	197	
12	0	0	0	0	423	196	
13	0	0	0	0	420	196	
14	0	0	0	0	417	196	
15	0	0	0	0	416	196	
0	0	0	0	0	415	196	
1	0	0	0	0	416	196	
2	0	0	0	0	416	196	
3	0	0	0	0	417	196	
4	0	0	0	0	419	196	
5	0	0	0	0	421	196	
6	0	0	0	0	426	197	
7	0	0	0	0	431	197	
8	0	0	0	0	430	197	
9	0	0	0	0	431	197	
10	0	0	0	0	432	197	
11	0	0	0	0	431	197	
12	0	0	0	0	429	197	
13	0	0	0	0	426	197	
14	0	0	0	0	423	197	
15	0	0	0	0	422	196	
0	0	0	0	0	420	196	
1	0	0	0	0	417	196	
2	0	0	0	0	415	196	
3	0	0	0	0	414	196	
4	0	0	0	0	411	196	
5	0	0	0	0	408	196	
6	0	0	0	0	406	196	
7	0	0	0	0	407	196	
8	0	0	0	0	408	196	
9	0	0	0	0	408	196	
10	0	0	0	0	408	196	
11	0	0	0	0	407	196	
12	0	0	0	0	405	196	
13	0	0	0	0	403	196	
14	0	0	0	0	401	197	
15	0	0	0	0	398	196	
0	0	0	0	0	398	196	
1	0	0	0	0	397	197	
2	0	0	0	0	396	197	
3	0	0	0	0	395	196	
4	0	0	0	0	393	196	
5	0	0	0	0	394	196	
6	0	0	0	0	394	196	
7	0	0	0	0	394	196	
8	0	0	0	0	394	196	
9	0	0	0	0	395	196	
10	0	0	0	0	398	196	
11	0	0	0	0	399	196	
12	0	0	0	0	400	196	
13	0	0	0	0	403	196	
14	0	0	0	0	404	196	
15	0	0	0	0	405	196	
0	0	0	0	0	404	196	
1	0	0	0	0	403	196	
2	0	0	0	0	404	196	
3	0	0	0	0	403	196	
4	0	0	0	0	403	196	
5	0	0	0	0	404	196	
6	0	0	0	0	405	196	
7	0	0	0	0	406	196	
8	0	0	0	0	405	196	
9	0	0	0	0	405	196	
10	0	0	0	0	406	196	
11	0	0	0	0	408	196	
12	0	0	0	0	411	196	
13	0	0	0	0	415	196	
14	0	0	0	0	417	196	
15	0	0	0	0	420	196	
0	0	0	0	0	421	196	
1	0	0	0	0	423	196	
2	0	0	0	0	423	196	
3	0	0	0	0	422	196	
4	0	0	0	0	420	196	
5	0	0	0	0	419	196	
6	0	0	0	0	418	196	
7	0	0	0	0	416	196	
8	0	0	0	0	415	196	
9	0	0	0	0	415	196	
10	0	0	0	0	415	196	
11	0	0	0	0	414	196	
12	0	0	0	0	415	196	
13	0	0	0	0	415	196	
14	0	0	0	0	417	196	
15	0	0	0	0	417	196	
0	0	0	0	0	419	196	
1	0	0	0	0	420	196	
2	0	0	0	0	419	196	
3	0	0	0	0	419	196	
4	0	0	0	0	418	196	
5	0	0	0	0	419	196	
6	0	0	0	0	420	196	
7	0	0	0	0	421	196	
8	0	0	0	0	421	196	
9	0	0	0	0	422	196	
10	0	0	0	0	422	196	
11	0	0	0	0	420	196	
12	0	0	0	0	418	196	
13	0	0	0	0	418	196	
14	0	0	0	0	419	196	
15	0	0	0	0	420	197	
0	0	0	0	0	422	196	
1	0	0	0	0	423	196	
2	0	0	0	0	423	197	
3	0	0	0	0	421	197	
4	0	0	0	0	418	196	
5	0	0	0	0	416	196	
6	0	0	0	0	412	197	
7	0	0	0	0	407	197	
8	0	0	0	0	403	196	
9	0	0	0	0	400	197	
10	0	0	0	0	401	197	
11	0	0	0	0	403	197	
12	0	0	0	0	411	196	
13	0	0	0	0	420	196	
14	0	0	0	0	429	197	
15	0	0	0	0	434	196	
0	0	0	0	0	436	197	
1	0	0	0	0	435	197	
2	0	0	0	0	432	197	
3	0	0	0	0	429	197	
4	0	0	0	0	427	197	
5	0	0	0	0	426	197	
6	0	0	0	0	426	197	
7	0	0	0	0	426	197	
8	0	0	0	0	425	197	
9	0	0	0	0	426	197	
10	0	0	0	0	425	197	
11	0	0	0	0	424	197	
12	0	0	0	0	423	197	
13	0	0	0	0	423	197	
14	0	0	0	0	423	197	
15	0	0	0	0	423	197	
0	0	0	0	0	423	197	
1	0	0	0	0	423	197	
2	0	0	0	0	422	197	
3	0	0	0	0	422	197	
4	0	0	0	0	422	197	
5	0	0	0	0	422	197	
6	0	0	0	0	423	197	
7	0	0	0	0	423	197	
8	0	0	0	0	425	197	
9	0	0	0	0	426	197	
10	0	0	0	0	428	197	
11	0	0	0	0	429	197	
12	0	0	0	0	430	197	
13	0	0	0	0	431	197	
14	0	0	0	0	432	197	
15	0	0	0	0	434	197	
0	0	0	0	0	436	197	
1	0	0	0	0	440	197	
2	0	0	0	0	441	197	
3	0	0	0	0	441	197	
4	0	0	0	0	439	197	
5	0	0	0	0	436	196	
6	0	0	0	0	435	196	
7	0	0	0	0	433	196	
8	0	0	0	0	432	196	
9	0	0	0	0	430	196	
10	0	0	0	0	430	196	
11	0	0	0	0	429	196	
12	0	0	0	0	428	196	
13	0	0	0	0	429	196	
14	0	0	0	0	433	196	
15	0	0	0	0	439	196	
0	0	0	0	0	442	196	
1	0	0	0	0	445	196	
2	0	0	0	0	446	196	
3	0	0	0	0	448	197	
4	0	0	0	0	451	196	
5	0	0	0	0	454	196	
6	0	0	0	0	455	196	
7	0	0	0	0	456	196	
8	0	0	0	0	457	196	
9	0	0	0	0	459	196	
10	0	0	0	0	457	196	
11	0	0	0	0	456	196	
12	0	0	0	0	455	196	
13	0	0	0	0	454	196	
14	0	0	0	0	455	196	
15	0	0	0	0	459	196	
0	0	0	0	0	463	196	
1	0	0	0	0	465	196	
2	0	0	0	0	467	196	
3	0	0	0	0	465	196	
4	0	0	0	0	464	196	
5	0	0	0	0	464	196	
6	0	0	0	0	464	196	
7	0	0	0	0	465	196	
8	0	0	0	0	467	196	
9	0	0	0	0	469	196	
10	0	0	0	0	470	196	
11	0	0	0	0	472	196	
12	0	0	0	0	473	196	
13	0	0	0	0	475	196	
14	0	0	0	0	476	196	
15	0	0	0	0	477	196	
0	0	0	0	0	476	196	
1	0	0	0	0	476	196	
2	0	0	0	0	475	196	
3	0	0	0	0	475	196	
4	0	0	0	0	474	196	
5	0	0	0	0	473	196	
6	0	0	0	0	472	196	
7	0	0	0	0	473	196	
8	0	0	0	0	472	196	
9	0	0	0	0	473	196	
10	0	0	0	0	474	196	
11	0	0	0	0	473	196	
12	0	0	0	0	474	196	
13	0	0	0	0	477	196	
14	0	0	0	0	479	196	
15	0	0	0	0	479	196	
0	0	0	0	0	480	196	
1	0	0	0	0	480	196	
2	0	0	0	0	479	196	
3	0	0	0	0	477	196	
4	0	0	0	0	475	196	
5	0	0	0	0	472	196	
6	0	0	0	0	472	197	
7	0	0	0	0	473	197	
8	0	0	0	0	473	197	
9	0	0	0	0	472	197	
10	0	0	0	0	472	197	
11	0	0	0	0	472	197	
12	0	0	0	0	473	197	
13	0	0	0	0	474	197	
14	0	0	0	0	474	197	
15	0	0	0	0	473	197	
0	0	0	0	0	472	197	
1	0	0	0	0	473	197	
2	0	0	0	0	474	197	
3	0	0	0	0	476	197	
4	0	0	0	0	477	197	
5	0	0	0	0	480	197	
6	0	0	0	0	482	197	
7	0	0	0	0	483	197	
8	0	0	0	0	482	197	
9	0	0	0	0	482	197	
10	0	0	0	0	481	197	
11	0	0	0	0	481	197	
12	0	0	0	0	481	197	
13	0	0	0	0	481	197	
14	0	0	0	0	480	197	
15	0	0	0	0	478	197	
0	0	0	0	0	477	197	
1	0	0	0	0	476	197	
2	0	0	0	0	477	197	
3	0	0	0	0	477	197	
4	0	0	0	0	478	197	
5	0	0	0	0	480	197	
6	0	0	0	0	480	197	
7	0	0	0	0	483	197	
8	0	0	0	0	484	197	
9	0	0	0	0	485	197	
10	0	0	0	0	486	197	
11	0	0	0	0	485	197	
12	0	0	0	0	485	197	
13	0	0	0	0	484	197	
14	0	0	0	0	483	197	
15	0	0	0	0	483	196	
0	0	0	0	0	483	196	
1	0	0	0	0	483	196	
2	0	0	0	0	481	196	
3	0	0	0	0	481	196	
4	0	0	0	0	482	196	
5	0	0	0	0	483	196	
6	0	0	0	0	484	196	
7	0	0	0	0	485	196	
8	0	0	0	0	484	196	
9	0	0	0	0	485	196	
10	0	0	0	0	485	196	
11	0	0	0	0	486	196	
12	0	0	0	0	487	196	
13	0	0	0	0	491	196	
14	0	0	0	0	492	196	
15	0	0	0	0	493	196	
0	0	0	0	0	493	196	
1	0	0	0	0	492	196	
2	0	0	0	0	494	196	
3	0	0	0	0	495	196	
4	0	0	0	0	495	196	
5	0	0	0	0	494	196	
6	0	0	0	0	496	196	
7	0	0	0	0	498	196	
8	0	0	0	0	499	196	
9	0	0	0	0	501	196	
10	0	0	0	0	502	196	
11	0	0	0	0	502	196	
12	0	0	0	0	503	196	
13	0	0	0	0	504	196	
14	0	0	0	0	505	196	
15	0	0	0	0	504	196	
0	0	0	0	0	504	196	
1	0	0	0	0	505	196	
2	0	0	0	0	507	196	
3	0	0	0	0	508	196	
4	0	0	0	0	510	196	
5	0	0	0	0	511	196	
6	0	0	0	0	511	196	
7	0	0	0	0	511	196	
8	0	0	0	0	512	196	
9	0	0	0	0	514	196	
10	0	0	0	0	514	196	
11	0	0	0	0	515	196	
12	0	0	0	0	515	196	
13	0	0	0	0	513	196	
14	0	0	0	0	512	196	
15	0	0	0	0	512	196	
0	0	0	0	0	512	196	
1	0	0	0	0	513	196	
2	0	0	0	0	513	196	
3	0	0	0	0	514	196	
4	0	0	0	0	513	196	
5	0	0	0	0	513	196	
6	0	0	0	0	514	196	
7	0	0	0	0	516	196	
8	0	0	0	0	520	197	
9	0	0	0	0	524	197	
10	0	0	0	0	530	197	
11	0	0	0	0	539	197	
12	0	0	0	0	546	197	
13	0	0	0	0	554	197	
14	0	0	0	0	562	197	
15	0	0	0	0	572	197	
0	0	0	0	0	582	197	
1	0	0	0	0	591	197	
2	0	0	0	0	601	197	
3	0	0	0	0	611	197	
4	0	0	0	0	620	196	
5	0	0	0	0	628	196	
6	0	0	0	0	635	196	
7	0	0	0	0	641	196	
8	0	0	0	0	646	196	
9	0	0	0	0	650	196	
10	0	0	0	0	654	197	
11	0	0	0	0	657	197	
12	0	0	0	0	659	197	
13	0	0	0	0	661	196	
14	0	0	0	0	659	196	
15	0	0	0	0	659	196	
0	0	0	0	0	657	196	
1	0	0	0	0	654	196	
2	0	0	0	0	651	195	
3	0	0	0	0	646	195	
4	0	0	0	0	641	195	
5	0	0	0	0	635	195	
6	0	0	0	0	629	195	
7	0	0	0	0	624	195	
8	0	0	0	0	616	195	
9	0	0	0	0	607	195	
10	0	0	0	0	598	195	
11	0	0	0	0	588	195	
12	0	0	0	0	577	196	
13	0	0	0	0	566	196	
14	0	0	0	0	556	196	
15	0	0	0	0	547	196	
0	0	0	0	0	539	196	
1	0	0	0	0	530	196	
2	0	0	0	0	525	196	
3	0	0	0	0	520	196	
4	0	0	0	0	515	197	
5	0	0	0	0	510	197	
6	0	0	0	0	507	197	
7	0	0	0	0	503	197	
8	0	0	0	0	502	197	
9	0	0	0	0	499	197	
10	0	0	0	0	497	197	
11	0	0	0	0	495	197	
12	0	0	0	0	495	197	
13	0	0	0	0	497	197	
14	0	0	0	0	499	197	
15	0	0	0	0	504	197	
0	0	0	0	0	508	197	
1	0	0	0	0	512	197	
2	0	0	0	0	516	197	
3	0	0	0	0	518	197	
4	0	0	0	0	521	197	
5	0	0	0	0	523	197	
6	0	0	0	0	523	197	
7	0	0	0	0	525	197	
8	0	0	0	0	527	197	
9	0	0	0	0	527	197	
10	0	0	0	0	527	197	
11	0	0	0	0	527	197	
12	0	0	0	0	527	196	
13	0	0	0	0	528	196	
14	0	0	0	0	529	197	
15	0	0	0	0	531	197	
0	0	0	0	0	531	197	
1	0	0	0	0	531	197	
2	0	0	0	0	532	197	
3	0	0	0	0	532	197	
4	0	0	0	0	534	197	
5	0	0	0	0	535	197	
6	0	0	0	0	536	197	
7	0	0	0	0	536	197	
8	0	0	0	0	536	197	
9	0	0	0	0	536	197	
10	0	0	0	0	534	196	
11	0	0	0	0	533	196	
12	0	0	0	0	531	196	
13	0	0	0	0	530	196	
14	0	0	0	0	530	196	
15	0	0	0	0	531	196	
0	0	0	0	0	531	196	
1	0	0	0	0	531	196	
2	0	0	0	0	530	196	
3	0	0	0	0	531	196	
4	0	0	0	0	531	196	
5	0	0	0	0	533	196	
6	0	0	0	0	535	196	
7	0	0	0	0	536	197	
8	0	0	0	0	536	197	
9	0	0	0	0	537	197	
10	0	0	0	0	538	197	
11	0	0	0	0	538	197	
12	0	0	0	0	539	196	
13	0	0	0	0	539	197	
14	0	0	0	0	538	197	
15	0	0	0	0	540	197	
0	0	0	0	0	542	197	
1	0	0	0	0	542	197	
2	0	0	0	0	542	197	
3	0	0	0	0	541	197	
4	0	0	0	0	541	196	
5	0	0	0	0	541	196	
6	0	0	0	0	540	197	
7	0	0	0	0	540	197	
8	0	0	0	0	542	196	
9	0	0	0	0	541	196	
10	0	0	0	0	540	196	
11	0	0	0	0	541	196	
12	0	0	0	0	541	196	
13	0	0	0	0	542	196	
14	0	0	0	0	543	196	
15	0	0	0	0	545	196	
0	0	0	0	0	545	196	
1	0	0	0	0	546	196	
2	0	0	0	0	547	196	
3	0	0	0	0	548	196	
4	0	0	0	0	548	196	
5	0	0	0	0	547	196	
6	0	0	0	0	547	197	
7	0	0	0	0	547	197	
8	0	0	0	0	545	197	
9	0	0	0	0	546	197	
10	0	0	0	0	548	197	
11	0	0	0	0	548	197	
12	0	0	0	0	546	197	
13	0	0	0	0	545	197	
14	0	0	0	0	544	197	
15	0	0	0	0	545	197	
0	0	0	0	0	545	197	
1	0	0	0	0	545	196	
2	0	0	0	0	547	196	
3	0	0	0	0	548	196	
4	0	0	0	0	548	196	
5	0	0	0	0	549	196	
6	0	0	0	0	548	196	
7	0	0	0	0	548	196	
8	0	0	0	0	547	196	
9	0	0	0	0	547	197	
10	0	0	0	0	549	196	
11	0	0	0	0	548	197	
12	0	0	0	0	549	197	
13	0	0	0	0	549	197	
14	0	0	0	0	550	197	
15	0	0	0	0	551	197	
0	0	0	0	0	554	197	
1	0	0	0	0	556	197	
2	0	0	0	0	556	196	
3	0	0	0	0	555	196	
4	0	0	0	0	553	196	
5	0	0	0	0	554	196	
6	0	0	0	0	554	196	
7	0	0	0	0	555	196	
8	0	0	0	0	556	196	
9	0	0	0	0	555	196	
10	0	0	0	0	555	196	
11	0	0	0	0	554	196	
12	0	0	0	0	554	196	
13	0	0	0	0	554	196	
14	0	0	0	0	555	196	
15	0	0	0	0	554	196	
0	0	0	0	0	554	196	
1	0	0	0	0	553	196	
2	0	0	0	0	553	197	
3	0	0	0	0	553	197	
4	0	0	0	0	552	197	
5	0	0	0	0	552	197	
6	0	0	0	0	553	197	
7	0	0	0	0	553	197	
8	0	0	0	0	552	197	
9	0	0	0	0	552	197	
10	0	0	0	0	553	197	
11	0	0	0	0	553	197	
12	0	0	0	0	552	196	
13	0	0	0	0	551	196	
14	0	0	0	0	551	196	
15	0	0	0	0	551	196	
0	0	0	0	0	551	196	
1	0	0	0	0	551	196	
2	0	0	0	0	551	196	
3	0	0	0	0	551	196	
4	0	0	0	0	550	196	
5	0	0	0	0	550	196	
6	0	0	0	0	550	196	
7	0	0	0	0	550	196	
8	0	0	0	0	549	197	
9	0	0	0	0	549	197	
10	0	0	0	0	549	197	
11	0	0	0	0	548	197	
12	0	0	0	0	547	197	
13	0	0	0	0	547	197	
14	0	0	0	0	548	197	
15	0	0	0	0	548	197	
0	0	0	0	0	548	197	
1	0	0	0	0	547	197	
2	0	0	0	0	544	197	
3	0	0	0	0	544	197	
4	0	0	0	0	544	197	
5	0	0	0	0	545	197	
6	0	0	0	0	544	197	
7	0	0	0	0	543	197	
8	0	0	0	0	543	197	
9	0	0	0	0	543	197	
10	0	0	0	0	542	197	
11	0	0	0	0	543	197	
12	0	0	0	0	543	197	
13	0	0	0	0	544	197	
14	0	0	0	0	544	197	
15	0	0	0	0	545	197	
0	0	0	0	0	543	197	
1	0	0	0	0	542	197	
2	0	0	0	0	542	197	
3	0	0	0	0	543	197	
4	0	0	0	0	541	197	
5	0	0	0	0	539	197	
6	0	0	0	0	538	197	
7	0	0	0	0	538	197	
8	0	0	0	0	539	197	
9	0	0	0	0	539	197	
10	0	0	0	0	539	197	
11	0	0	0	0	537	197	
12	0	0	0	0	538	197	
13	0	0	0	0	537	197	
14	0	0	0	0	537	197	
15	0	0	0	0	539	197	
0	0	0	0	0	540	197	
1	0	0	0	0	540	197	
2	0	0	0	0	541	197	
3	0	0	0	0	542	197	
4	0	0	0	0	543	197	
5	0	0	0	0	543	196	
6	0	0	0	0	543	196	
7	0	0	0	0	543	196	
8	0	0	0	0	543	196	
9	0	0	0	0	544	196	
10	0	0	0	0	545	196	
11	0	0	0	0	545	196	
12	0	0	0	0	546	196	
13	0	0	0	0	546	197	
14	0	0	0	0	545	197	
15	0	0	0	0	545	197	
0	0	0	0	0	545	197	
1	0	0	0	0	544	197	
2	0	0	0	0	544	197	
3	0	0	0	0	544	197	
4	0	0	0	0	544	197	
5	0	0	0	0	547	197	
6	0	0	0	0	548	197	
7	0	0	0	0	549	197	
8	0	0	0	0	551	197	
9	0	0	0	0	552	197	
10	0	0	0	0	552	197	
11	0	0	0	0	552	196	
12	0	0	0	0	551	196	
13	0	0	0	0	548	197	
14	0	0	0	0	546	197	
15	0	0	0	0	545	197	
0	0	0	0	0	544	197	
1	0	0	0	0	543	196	
2	0	0	0	0	542	196	
3	0	0	0	0	541	196	
4	0	0	0	0	543	196	
5	0	0	0	0	544	196	
6	0	0	0	0	546	196	
7	0	0	0	0	548	196	
8	0	0	0	0	550	196	
9	0	0	0	0	553	196	
10	0	0	0	0	555	196	
11	0	0	0	0	555	196	
12	0	0	0	0	553	196	
13	0	0	0	0	551	196	
14	0	0	0	0	553	196	
15	0	0	0	0	552	196	
0	0	0	0	0	550	196	
1	0	0	0	0	548	196	
2	0	0	0	0	546	196	
3	0	0	0	0	547	196	
4	0	0	0	0	548	196	
5	0	0	0	0	549	196	
6	0	0	0	0	550	197	
7	0	0	0	0	550	197	
8	0	0	0	0	549	197	
9	0	0	0	0	547	197	
10	0	0	0	0	545	197	
11	0	0	0	0	544	197	
12	0	0	0	0	543	197	
13	0	0	0	0	543	197	
14	0	0	0	0	542	197	
15	0	0	0	0	540	197	
0	0	0	0	0	540	197	
1	0	0	0	0	540	197	
2	0	0	0	0	539	197	
3	0	0	0	0	537	197	
4	0	0	0	0	536	197	
5	0	0	0	0	534	197	
6	0	0	0	0	533	197	
7	0	0	0	0	533	197	
8	0	0	0	0	531	197	
9	0	0	0	0	528	197	
10	0	0	0	0	527	196	
11	0	0	0	0	525	196	
12	0	0	0	0	523	196	
13	0	0	0	0	521	196	
14	0	0	0	0	519	196	
15	0	0	0	0	518	196	
0	0	0	0	0	515	196	
1	0	0	0	0	515	196	
2	0	0	0	0	515	196	
3	0	0	0	0	514	196	
4	0	0	0	0	512	196	
5	0	0	0	0	510	196	
6	0	0	0	0	508	197	
7	0	0	0	0	505	197	
8	0	0	0	0	502	197	
9	0	0	0	0	500	197	
10	0	0	0	0	498	197	
11	0	0	0	0	495	197	
12	0	0	0	0	494	197	
13	0	0	0	0	493	197	
14	0	0	0	0	492	197	
15	0	0	0	0	491	197	
0	0	0	0	0	489	197	
1	0	0	0	0	489	197	
2	0	0	0	0	488	197	
3	0	0	0	0	487	197	
4	0	0	0	0	486	197	
5	0	0	0	0	483	197	
6	0	0	0	0	481	197	
7	0	0	0	0	481	196	
8	0	0	0	0	480	196	
9	0	0	0	0	481	196	
10	0	0	0	0	481	197	
11	0	0	0	0	480	197	
12	0	0	0	0	478	197	
13	0	0	0	0	478	197	
14	0	0	0	0	479	197	
15	0	0	0	0	480	197	
0	0	0	0	0	480	197	
1	0	0	0	0	480	197	
2	0	0	0	0	479	198	
3	0	0	0	0	478	197	
4	0	0	0	0	478	197	
5	0	0	0	0	478	197	
6	0	0	0	0	478	197	
7	0	0	0	0	478	197	
8	0	0	0	0	477	197	
9	0	0	0	0	477	198	
10	0	0	0	0	478	197	
11	0	0	0	0	479	198	
12	0	0	0	0	479	197	
13	0	0	0	0	480	197	
14	0	0	0	0	480	196	
15	0	0	0	0	479	196	
0	0	0	0	0	479	196	
1	0	0	0	0	479	196	
2	0	0	0	0	480	196	
3	0	0	0	0	482	197	
4	0	0	0	0	482	197	
5	0	0	0	0	481	197	
6	0	0	0	0	482	197	
7	0	0	0	0	483	197	
8	0	0	0	0	484	197	
9	0	0	0	0	485	197	
10	0	0	0	0	486	197	
11	0	0	0	0	486	197	
12	0	0	0	0	487	197	
13	0	0	0	0	488	197	
14	0	0	0	0	489	197	
15	0	0	0	0	490	197	
0	0	0	0	0	490	197	
1	0	0	0	0	491	197	
2	0	0	0	0	492	197	
3	0	0	0	0	492	198	
4	0	0	0	0	492	197	
5	0	0	0	0	491	196	
6	0	0	0	0	491	196	
7	0	0	0	0	492	196	
8	0	0	0	0	493	196	
9	0	0	0	0	494	197	
10	0	0	0	0	495	196	
11	0	0	0	0	495	197	
12	0	0	0	0	495	197	
13	0	0	0	0	494	197	
14	0	0	0	0	495	197	
15	0	0	0	0	497	197	
0	0	0	0	0	498	197	
1	0	0	0	0	499	197	
2	0	0	0	0	500	197	
3	0	0	0	0	501	197	
4	0	0	0	0	502	196	
5	0	0	0	0	502	196	
6	0	0	0	0	502	197	
7	0	0	0	0	504	196	
8	0	0	0	0	505	197	
9	0	0	0	0	507	196	
10	0	0	0	0	509	196	
11	0	0	0	0	511	197	
12	0	0	0	0	512	196	
13	0	0	0	0	512	196	
14	0	0	0	0	512	197	
15	0	0	0	0	513	197	
0	0	0	0	0	513	197	
1	0	0	0	0	512	197	
2	0	0	0	0	513	197	
3	0	0	0	0	513	197	
4	0	0	0	0	512	197	
5	0	0	0	0	512	197	
6	0	0	0	0	512	197	
7	0	0	0	0	513	197	
8	0	0	0	0	514	197	
9	0	0	0	0	514	197	
10	0	0	0	0	515	197	
11	0	0	0	0	516	197	
12	0	0	0	0	517	197	
13	0	0	0	0	519	198	
14	0	0	0	0	519	197	
15	0	0	0	0	521	197	
0	0	0	0	0	522	197	
1	0	0	0	0	524	198	
2	0	0	0	0	524	197	
3	0	0	0	0	525	198	
4	0	0	0	0	526	198	
5	0	0	0	0	527	197	
6	0	0	0	0	527	197	
7	0	0	0	0	528	197	
8	0	0	0	0	526	197	
9	0	0	0	0	525	197	
10	0	0	0	0	524	197	
11	0	0	0	0	525	197	
12	0	0	0	0	527	197	
13	0	0	0	0	527	197	
14	0	0	0	0	527	197	
15	0	0	0	0	527	197	
0	0	0	0	0	528	197	
1	0	0	0	0	529	197	
2	0	0	0	0	529	197	
3	0	0	0	0	529	198	
4	0	0	0	0	529	197	
5	0	0	0	0	528	197	
6	0	0	0	0	528	197	
7	0	0	0	0	528	197	
8	0	0	0	0	528	197	
9	0	0	0	0	528	197	
10	0	0	0	0	529	197	
11	0	0	0	0	530	197	
12	0	0	0	0	531	197	
13	0	0	0	0	531	197	
14	0	0	0	0	531	197	
15	0	0	0	0	533	197	
0	0	0	0	0	535	197	
1	0	0	0	0	536	197	
2	0	0	0	0	536	198	
3	0	0	0	0	536	197	
4	0	0	0	0	536	197	
5	0	0	0	0	537	197	
6	0	0	0	0	537	197	
7	0	0	0	0	536	198	
8	0	0	0	0	534	197	
9	0	0	0	0	534	197	
10	0	0	0	0	534	198	
11	0	0	0	0	534	197	
12	0	0	0	0	533	197	
13	0	0	0	0	533	197	
14	0	0	0	0	534	197	
15	0	0	0	0	535	197	
0	0	0	0	0	535	197	
1	0	0	0	0	537	197	
2	0	0	0	0	537	197	
3	0	0	0	0	536	197	
4	0	0	0	0	538	197	
5	0	0	0	0	540	197	
6	0	0	0	0	540	198	
7	0	0	0	0	541	197	
8	0	0	0	0	542	197	
9	0	0	0	0	543	196	
10	0	0	0	0	542	196	
11	0	0	0	0	544	197	
12	0	0	0	0	545	196	
13	0	0	0	0	545	196	
14	0	0	0	0	545	197	
15	0	0	0	0	545	197	
0	0	0	0	0	544	197	
1	0	0	0	0	544	197	
2	0	0	0	0	545	198	
3	0	0	0	0	544	197	
4	0	0	0	0	544	197	
5	0	0	0	0	544	198	
6	0	0	0	0	543	197	
7	0	0	0	0	543	198	
8	0	0	0	0	543	197	
9	0	0	0	0	542	197	
10	0	0	0	0	542	198	
11	0	0	0	0	542	197	
12	0	0	0	0	543	197	
13	0	0	0	0	543	197	
14	0	0	0	0	543	196	
15	0	0	0	0	543	196	
0	0	0	0	0	543	196	
1	0	0	0	0	542	196	
2	0	0	0	0	542	196	
3	0	0	0	0	543	196	
4	0	0	0	0	543	196	
5	0	0	0	0	544	196	
6	0	0	0	0	544	196	
7	0	0	0	0	544	196	
8	0	0	0	0	544	196	
9	0	0	0	0	544	196	
10	0	0	0	0	544	196	
11	0	0	0	0	543	196	
12	0	0	0	0	542	196	
13	0	0	0	0	541	196	
14	0	0	0	0	541	196	
15	0	0	0	0	540	196	
0	0	0	0	0	539	196	
1	0	0	0	0	539	196	
2	0	0	0	0	539	196	
3	0	0	0	0	539	196	
4	0	0	0	0	539	196	
5	0	0	0	0	539	196	
6	0	0	0	0	538	196	
7	0	0	0	0	538	196	
8	0	0	0	0	537	196	
9	0	0	0	0	536	196	
10	0	0	0	0	538	196	
11	0	0	0	0	539	196	
12	0	0	0	0	540	196	
13	0	0	0	0	539	196	
14	0	0	0	0	540	196	
15	0	0	0	0	541	196	
0	0	0	0	0	541	196	
1	0	0	0	0	540	197	
2	0	0	0	0	540	197	
3	0	0	0	0	539	197	
4	0	0	0	0	537	197	
5	0	0	0	0	536	198	
6	0	0	0	0	536	198	
7	0	0	0	0	537	198	
8	0	0	0	0	538	198	
9	0	0	0	0	539	198	
10	0	0	0	0	539	197	
11	0	0	0	0	540	197	
12	0	0	0	0	540	198	
13	0	0	0	0	540	198	
14	0	0	0	0	540	198	
15	0	0	0	0	542	198	
0	0	0	0	0	541	197	
1	0	0	0	0	542	198	
2	0	0	0	0	541	197	
3	0	0	0	0	541	197	
4	0	0	0	0	542	198	
5	0	0	0	0	542	197	
6	0	0	0	0	542	198	
7	0	0	0	0	541	198	
8	0	0	0	0	540	198	
9	0	0	0	0	539	197	
10	0	0	0	0	540	197	
11	0	0	0	0	541	197	
12	0	0	0	0	541	197	
13	0	0	0	0	540	198	
14	0	0	0	0	540	197	
15	0	0	0	0	540	197	
0	0	0	0	0	540	197	
1	0	0	0	0	540	197	
2	0	0	0	0	541	198	
3	0	0	0	0	541	197	
4	0	0	0	0	541	197	
5	0	0	0	0	542	197	
6	0	0	0	0	543	198	
7	0	0	0	0	543	197	
8	0	0	0	0	543	197	
9	0	0	0	0	543	198	
10	0	0	0	0	543	198	
11	0	0	0	0	544	198	
12	0	0	0	0	544	198	
13	0	0	0	0	544	198	
14	0	0	0	0	544	198	
15	0	0	0	0	543	198	
0	0	0	0	0	543	198	
1	0	0	0	0	543	197	
2	0	0	0	0	543	198	
3	0	0	0	0	543	197	
4	0	0	0	0	545	197	
5	0	0	0	0	546	197	
6	0	0	0	0	546	198	
7	0	0	0	0	546	198	
8	0	0	0	0	546	198	
9	0	0	0	0	545	198	
10	0	0	0	0	544	197	
11	0	0	0	0	543	198	
12	0	0	0	0	543	198	
13	0	0	0	0	543	197	
14	0	0	0	0	544	198	
15	0	0	0	0	543	198	
0	0	0	0	0	542	198	
1	0	0	0	0	542	198	
2	0	0	0	0	541	197	
3	0	0	0	0	540	198	
4	0	0	0	0	537	198	
5	0	0	0	0	537	197	
6	0	0	0	0	537	197	
7	0	0	0	0	537	197	
8	0	0	0	0	538	198	
9	0	0	0	0	539	198	
10	0	0	0	0	540	198	
11	0	0	0	0	539	197	
12	0	0	0	0	539	197	
13	0	0	0	0	539	197	
14	0	0	0	0	539	198	
15	0	0	0	0	539	197	
0	0	0	0	0	539	197	
1	0	0	0	0	540	198	
2	0	0	0	0	542	197	
3	0	0	0	0	543	197	
4	0	0	0	0	544	198	
5	0	0	0	0	544	198	
6	0	0	0	0	544	197	
7	0	0	0	0	544	197	
8	0	0	0	0	543	198	
9	0	0	0	0	543	197	
10	0	0	0	0	543	198	
11	0	0	0	0	542	197	
12	0	0	0	0	541	198	
13	0	0	0	0	540	198	
14	0	0	0	0	540	197	
15	0	0	0	0	537	197	
0	0	0	0	0	537	197	
1	0	0	0	0	537	198	
2	0	0	0	0	537	198	
3	0	0	0	0	537	198	
4	0	0	0	0	537	198	
5	0	0	0	0	538	197	
6	0	0	0	0	539	197	
7	0	0	0	0	539	197	
8	0	0	0	0	539	198	
9	0	0	0	0	540	198	
10	0	0	0	0	540	198	
11	0	0	0	0	541	198	
12	0	0	0	0	542	198	
13	0	0	0	0	542	198	
14	0	0	0	0	542	198	
15	0	0	0	0	543	198	
0	0	0	0	0	543	198	
1	0	0	0	0	544	198	
2	0	0	0	0	544	198	
3	0	0	0	0	544	198	
4	0	0	0	0	542	198	
5	0	0	0	0	541	198	
6	0	0	0	0	541	198	
7	0	0	0	0	541	198	
8	0	0	0	0	540	198	
9	0	0	0	0	539	198	
10	0	0	0	0	538	197	
11	0	0	0	0	537	197	
12	0	0	0	0	536	197	
13	0	0	0	0	536	196	
14	0	0	0	0	536	197	
15	0	0	0	0	537	197	
0	0	0	0	0	537	196	
1	0	0	0	0	537	197	
2	0	0	0	0	538	196	
3	0	0	0	0	540	196	
4	0	0	0	0	542	196	
5	0	0	0	0	542	196	
6	0	0	0	0	543	196	
7	0	0	0	0	544	196	
8	0	0	0	0	544	196	
9	0	0	0	0	544	196	
10	0	0	0	0	545	196	
11	0	0	0	0	547	196	
12	0	0	0	0	547	196	
13	0	0	0	0	548	196	
14	0	0	0	0	548	196	
15	0	0	0	0	548	196	
0	0	0	0	0	547	196	
1	0	0	0	0	545	197	
2	0	0	0	0	543	197	
3	0	0	0	0	542	197	
4	0	0	0	0	541	197	
5	0	0	0	0	540	197	
6	0	0	0	0	539	196	
7	0	0	0	0	539	197	
8	0	0	0	0	539	197	
9	0	0	0	0	540	197	
10	0	0	0	0	542	197	
11	0	0	0	0	544	197	
12	0	0	0	0	545	197	
13	0	0	0	0	545	197	
14	0	0	0	0	545	197	
15	0	0	0	0	546	197	
0	0	0	0	0	547	197	
1	0	0	0	0	548	197	
2	0	0	0	0	548	198	
3	0	0	0	0	547	198	
4	0	0	0	0	545	198	
5	0	0	0	0	545	198	
6	0	0	0	0	544	198	
7	0	0	0	0	546	198	
8	0	0	0	0	546	198	
9	0	0	0	0	546	198	
10	0	0	0	0	545	198	
11	0	0	0	0	545	198	
12	0	0	0	0	545	198	
13	0	0	0	0	544	198	
14	0	0	0	0	544	198	
15	0	0	0	0	545	198	
0	0	0	0	0	544	197	
1	0	0	0	0	544	197	
2	0	0	0	0	544	196	
3	0	0	0	0	544	196	
4	0	0	0	0	545	196	
5	0	0	0	0	546	196	
6	0	0	0	0	547	196	
7	0	0	0	0	546	196	
8	0	0	0	0	545	196	
9	0	0	0	0	546	197	
10	0	0	0	0	547	197	
11	0	0	0	0	548	197	
12	0	0	0	0	547	197	
13	0	0	0	0	547	197	
14	0	0	0	0	547	197	
15	0	0	0	0	546	198	
0	0	0	0	0	547	198	
1	0	0	0	0	548	198	
2	0	0	0	0	548	198	
3	0	0	0	0	549	198	
4	0	0	0	0	548	198	
5	0	0	0	0	547	198	
6	0	0	0	0	546	198	
7	0	0	0	0	546	198	
8	0	0	0	0	545	198	
9	0	0	0	0	544	197	
10	0	0	0	0	543	196	
11	0	0	0	0	542	196	
12	0	0	0	0	540	196	
13	0	0	0	0	537	197	
14	0	0	0	0	536	197	
15	0	0	0	0	537	197	
0	0	0	0	0	537	197	
1	0	0	0	0	538	198	
2	0	0	0	0	538	198	
3	0	0	0	0	539	198	
4	0	0	0	0	540	198	
5	0	0	0	0	542	198	
6	0	0	0	0	543	198	
7	0	0	0	0	544	198	
8	0	0	0	0	543	198	
9	0	0	0	0	543	198	
10	0	0	0	0	542	197	
11	0	0	0	0	543	196	
12	0	0	0	0	544	196	
13	0	0	0	0	544	196	
14	0	0	0	0	544	197	
15	0	0	0	0	545	197	
0	0	0	0	0	546	197	
1	0	0	0	0	545	197	
2	0	0	0	0	543	197	
3	0	0	0	0	543	198	
4	0	0	0	0	543	198	
5	0	0	0	0	542	198	
6	0	0	0	0	542	198	
7	0	0	0	0	542	198	
8	0	0	0	0	541	198	
9	0	0	0	0	541	198	
10	0	0	0	0	540	198	
11	0	0	0	0	540	198	
12	0	0	0	0	540	197	
13	0	0	0	0	540	196	
14	0	0	0	0	539	197	
15	0	0	0	0	537	196	
0	0	0	0	0	535	197	
1	0	0	0	0	535	197	
2	0	0	0	0	535	197	
3	0	0	0	0	534	197	
4	0	0	0	0	534	197	
5	0	0	0	0	535	197	
6	0	0	0	0	537	197	
7	0	0	0	0	539	197	
8	0	0	0	0	539	197	
9	0	0	0	0	539	198	
10	0	0	0	0	540	198	
11	0	0	0	0	541	198	
12	0	0	0	0	542	198	
13	0	0	0	0	541	198	
14	0	0	0	0	541	198	
15	0	0	0	0	541	198	
0	0	0	0	0	541	198	
1	0	0	0	0	542	198	
2	0	0	0	0	541	198	
3	0	0	0	0	541	197	
4	0	0	0	0	542	197	
5	0	0	0	0	542	197	
6	0	0	0	0	541	197	
7	0	0	0	0	540	197	
8	0	0	0	0	540	196	
9	0	0	0	0	538	197	
10	0	0	0	0	536	197	
11	0	0	0	0	536	197	
12	0	0	0	0	536	197	
13	0	0	0	0	537	197	
14	0	0	0	0	537	198	
15	0	0	0	0	536	198	
0	0	0	0	0	536	198	
1	0	0	0	0	536	198	
2	0	0	0	0	536	198	
3	0	0	0	0	536	198	
4	0	0	0	0	537	198	
5	0	0	0	0	539	198	
6	0	0	0	0	539	198	
7	0	0	0	0	539	198	
8	0	0	0	0	538	198	
9	0	0	0	0	538	198	
10	0	0	0	0	539	198	
11	0	0	0	0	538	198	
12	0	0	0	0	537	198	
13	0	0	0	0	537	198	
14	0	0	0	0	537	197	
15	0	0	0	0	538	197	
0	0	0	0	0	537	197	
1	0	0	0	0	537	197	
2	0	0	0	0	537	196	
3	0	0	0	0	536	197	
4	0	0	0	0	536	197	
5	0	0	0	0	536	197	
6	0	0	0	0	536	197	
7	0	0	0	0	537	197	
8	0	0	0	0	536	197	
9	0	0	0	0	536	197	
10	0	0	0	0	537	197	
11	0	0	0	0	536	197	
12	0	0	0	0	535	197	
13	0	0	0	0	535	197	
14	0	0	0	0	536	197	
15	0	0	0	0	537	197	
0	0	0	0	0	538	197	
1	0	0	0	0	538	197	
2	0	0	0	0	538	197	
3	0	0	0	0	539	198	
4	0	0	0	0	539	198	
5	0	0	0	0	540	198	
6	0	0	0	0	540	198	
7	0	0	0	0	541	198	
8	0	0	0	0	540	198	
9	0	0	0	0	540	198	
10	0	0	0	0	539	198	
11	0	0	0	0	538	198	
12	0	0	0	0	538	198	
13	0	0	0	0	539	198	
14	0	0	0	0	538	198	
15	0	0	0	0	538	198	
0	0	0	0	0	538	198	
1	0	0	0	0	537	198	
2	0	0	0	0	538	198	
3	0	0	0	0	538	197	
4	0	0	0	0	539	197	
5	0	0	0	0	539	197	
6	0	0	0	0	539	197	
7	0	0	0	0	538	197	
8	0	0	0	0	538	198	
9	0	0	0	0	537	198	
10	0	0	0	0	537	198	
11	0	0	0	0	537	198	
12	0	0	0	0	538	198	
13	0	0	0	0	538	198	
14	0	0	0	0	538	198	
15	0	0	0	0	537	198	
0	0	0	0	0	536	198	
1	0	0	0	0	536	198	
2	0	0	0	0	537	198	
3	0	0	0	0	537	198	
4	0	0	0	0	538	198	
5	0	0	0	0	538	198	
6	0	0	0	0	538	198	
7	0	0	0	0	539	198	
8	0	0	0	0	539	198	
9	0	0	0	0	537	198	
10	0	0	0	0	537	198	
11	0	0	0	0	538	198	
12	0	0	0	0	538	198	
13	0	0	0	0	538	198	
14	0	0	0	0	538	198	
15	0	0	0	0	538	198	
0	0	0	0	0	537	198	
1	0	0	0	0	537	198	
2	0	0	0	0	539	198	
3	0	0	0	0	540	198	
4	0	0	0	0	542	198	
5	0	0	0	0	543	198	
6	0	0	0	0	543	198	
7	0	0	0	0	543	198	
8	0	0	0	0	543	198	
9	0	0	0	0	541	198	
10	0	0	0	0	541	198	
11	0	0	0	0	541	198	
12	0	0	0	0	540	198	
13	0	0	0	0	539	198	
14	0	0	0	0	541	197	
15	0	0	0	0	542	197	
0	0	0	0	0	542	197	
1	0	0	0	0	542	197	
2	0	0	0	0	543	197	
3	0	0	0	0	543	197	
4	0	0	0	0	545	197	
5	0	0	0	0	546	198	
6	0	0	0	0	546	198	
7	0	0	0	0	546	198	
8	0	0	0	0	546	198	
9	0	0	0	0	544	198	
10	0	0	0	0	542	198	
11	0	0	0	0	540	198	
12	0	0	0	0	540	198	
13	0	0	0	0	539	198	
14	0	0	0	0	540	198	
15	0	0	0	0	541	198	
0	0	0	0	0	542	198	
1	0	0	0	0	543	198	
2	0	0	0	0	543	198	
3	0	0	0	0	544	198	
4	0	0	0	0	544	198	
5	0	0	0	0	545	198	
6	0	0	0	0	543	198	
7	0	0	0	0	543	198	
8	0	0	0	0	542	198	
9	0	0	0	0	541	198	
10	0	0	0	0	541	198	
11	0	0	0	0	540	198	
12	0	0	0	0	540	197	
13	0	0	0	0	540	197	
14	0	0	0	0	540	197	
15	0	0	0	0	540	197	
0	0	0	0	0	540	197	
1	0	0	0	0	539	197	
2	0	0	0	0	538	197	
3	0	0	0	0	537	197	
4	0	0	0	0	536	197	
5	0	0	0	0	535	197	
6	0	0	0	0	533	197	
7	0	0	0	0	532	197	
8	0	0	0	0	532	197	
9	0	0	0	0	532	197	
10	0	0	0	0	533	197	
11	0	0	0	0	532	197	
12	0	0	0	0	532	197	
13	0	0	0	0	531	197	
14	0	0	0	0	531	197	
15	0	0	0	0	531	197	
0	0	0	0	0	531	197	
1	0	0	0	0	529	198	
2	0	0	0	0	528	198	
3	0	0	0	0	527	198	
4	0	0	0	0	526	198	
5	0	0	0	0	525	198	
6	0	0	0	0	524	198	
7	0	0	0	0	523	198	
8	0	0	0	0	522	198	
9	0	0	0	0	521	198	
10	0	0	0	0	520	198	
11	0	0	0	0	520	198	
12	0	0	0	0	519	198	
13	0	0	0	0	518	198	
14	0	0	0	0	518	198	
15	0	0	0	0	518	198	
0	0	0	0	0	519	198	
1	0	0	0	0	521	198	
2	0	0	0	0	522	198	
3	0	0	0	0	524	198	
4	0	0	0	0	524	198	
5	0	0	0	0	525	198	
6	0	0	0	0	523	198	
7	0	0	0	0	523	198	
8	0	0	0	0	523	198	
9	0	0	0	0	522	198	
10	0	0	0	0	523	198	
11	0	0	0	0	520	198	
12	0	0	0	0	519	198	
13	0	0	0	0	517	198	
14	0	0	0	0	516	198	
15	0	0	0	0	519	198	
0	0	0	0	0	520	198	
1	0	0	0	0	521	198	
2	0	0	0	0	523	198	
3	0	0	0	0	523	198	
4	0	0	0	0	521	197	
5	0	0	0	0	521	197	
6	0	0	0	0	523	197	
7	0	0	0	0	524	197	
8	0	0	0	0	524	197	
9	0	0	0	0	524	197	
10	0	0	0	0	523	197	
11	0	0	0	0	524	197	
12	0	0	0	0	524	197	
13	0	0	0	0	524	197	
14	0	0	0	0	522	197	
15	0	0	0	0	520	197	
0	0	0	0	0	518	197	
1	0	0	0	0	515	197	
2	0	0	0	0	512	197	
3	0	0	0	0	511	197	
4	0	0	0	0	512	197	
5	0	0	0	0	512	197	
6	0	0	0	0	514	198	
7	0	0	0	0	516	198	
8	0	0	0	0	517	198	
9	0	0	0	0	519	198	
10	0	0	0	0	523	198	
11	0	0	0	0	526	198	
12	0	0	0	0	530	198	
13	0	0	0	0	537	198	
14	0	0	0	0	546	197	
15	0	0	0	0	556	197	
0	0	0	0	0	565	196	
1	0	0	0	0	575	196	
2	0	0	0	0	585	196	
3	0	0	0	0	596	196	
4	0	0	0	0	607	196	
5	0	0	0	0	616	196	
6	0	0	0	0	625	196	
7	0	0	0	0	632	197	
8	0	0	0	0	637	197	
9	0	0	0	0	642	198	
10	0	0	0	0	644	197	
11	0	0	0	0	647	198	
12	0	0	0	0	649	198	
13	0	0	0	0	649	198	
14	0	0	0	0	649	198	
15	0	0	0	0	650	198	
0	0	0	0	0	650	198	
1	0	0	0	0	650	198	
2	0	0	0	0	647	198	
3	0	0	0	0	643	197	
4	0	0	0	0	638	197	
5	0	0	0	0	631	196	
6	0	0	0	0	622	196	
7	0	0	0	0	615	196	
8	0	0	0	0	610	196	
9	0	0	0	0	604	196	
10	0	0	0	0	597	197	
11	0	0	0	0	588	197	
12	0	0	0	0	579	197	
13	0	0	0	0	569	197	
14	0	0	0	0	558	197	
15	0	0	0	0	546	197	
0	0	0	0	0	535	198	
1	0	0	0	0	524	198	
2	0	0	0	0	514	198	
3	0	0	0	0	506	198	
4	0	0	0	0	499	198	
5	0	0	0	0	493	198	
6	0	0	0	0	489	198	
7	0	0	0	0	484	198	
8	0	0	0	0	480	198	
9	0	0	0	0	477	198	
10	0	0	0	0	475	198	
11	0	0	0	0	473	198	
12	0	0	0	0	472	198	
13	0	0	0	0	472	198	
14	0	0	0	0	471	198	
15	0	0	0	0	472	198	
0	0	0	0	0	474	198	
1	0	0	0	0	476	198	
2	0	0	0	0	479	198	
3	0	0	0	0	481	198	
4	0	0	0	0	484	198	
5	0	0	0	0	487	198	
6	0	0	0	0	488	198	
7	0	0	0	0	491	198	
8	0	0	0	0	492	198	
9	0	0	0	0	493	198	
10	0	0	0	0	493	198	
11	0	0	0	0	492	198	
12	0	0	0	0	490	198	
13	0	0	0	0	488	198	
14	0	0	0	0	488	198	
15	0	0	0	0	487	198	
0	0	0	0	0	486	198	
1	0	0	0	0	487	198	
2	0	0	0	0	488	198	
3	0	0	0	0	489	198	
4	0	0	0	0	488	198	
5	0	0	0	0	488	198	
6	0	0	0	0	487	198	
7	0	0	0	0	487	197	
8	0	0	0	0	488	197	
9	0	0	0	0	487	198	
10	0	0	0	0	487	197	
11	0	0	0	0	488	197	
12	0	0	0	0	489	197	
13	0	0	0	0	491	198	
14	0	0	0	0	492	198	
15	0	0	0	0	493	198	
0	0	0	0	0	493	198	
1	0	0	0	0	494	198	
2	0	0	0	0	494	198	
3	0	0	0	0	494	198	
4	0	0	0	0	493	198	
5	0	0	0	0	492	198	
6	0	0	0	0	492	198	
7	0	0	0	0	492	198	
8	0	0	0	0	492	198	
9	0	0	0	0	493	198	
10	0	0	0	0	495	198	
11	0	0	0	0	495	198	
12	0	0	0	0	496	198	
13	0	0	0	0	496	198	
14	0	0	0	0	497	198	
15	0	0	0	0	497	198	
0	0	0	0	0	497	198	
1	0	0	0	0	497	198	
2	0	0	0	0	497	198	
3	0	0	0	0	498	198	
4	0	0	0	0	498	198	
5	0	0	0	0	499	198	
6	0	0	0	0	499	198	
7	0	0	0	0	501	198	
8	0	0	0	0	502	198	
9	0	0	0	0	503	198	
10	0	0	0	0	504	198	
11	0	0	0	0	504	198	
12	0	0	0	0	504	199	
13	0	0	0	0	504	198	
14	0	0	0	0	504	198	
15	0	0	0	0	505	198	
0	0	0	0	0	505	199	
1	0	0	0	0	506	198	
2	0	0	0	0	507	199	
3	0	0	0	0	507	199	
4	0	0	0	0	505	198	
5	0	0	0	0	506	198	
6	0	0	0	0	505	198	
7	0	0	0	0	505	197	
8	0	0	0	0	505	198	
9	0	0	0	0	506	197	
10	0	0	0	0	507	198	
11	0	0	0	0	507	198	
12	0	0	0	0	508	198	
13	0	0	0	0	509	198	
14	0	0	0	0	509	198	
15	0	0	0	0	507	198	
0	0	0	0	0	506	198	
1	0	0	0	0	506	198	
2	0	0	0	0	507	198	
3	0	0	0	0	506	198	
4	0	0	0	0	505	198	
5	0	0	0	0	504	198	
6	0	0	0	0	505	198	
7	0	0	0	0	504	198	
8	0	0	0	0	504	198	
9	0	0	0	0	504	198	
10	0	0	0	0	504	198	
11	0	0	0	0	504	199	
12	0	0	0	0	504	199	
13	0	0	0	0	504	198	
14	0	0	0	0	504	199	
15	0	0	0	0	504	199	
0	0	0	0	0	504	199	
1	0	0	0	0	504	199	
2	0	0	0	0	503	198	
3	0	0	0	0	504	199	
4	0	0	0	0	504	199	
5	0	0	0	0	502	198	
6	0	0	0	0	500	198	
7	0	0	0	0	500	198	
8	0	0	0	0	501	198	
9	0	0	0	0	502	199	
10	0	0	0	0	505	198	
11	0	0	0	0	508	198	
12	0	0	0	0	510	198	
13	0	0	0	0	512	198	
14	0	0	0	0	512	198	
15	0	0	0	0	512	198	
0	0	0	0	0	512	198	
1	0	0	0	0	511	198	
2	0	0	0	0	510	198	
3	0	0	0	0	510	198	
4	0	0	0	0	510	198	
5	0	0	0	0	510	198	
6	0	0	0	0	510	198	
7	0	0	0	0	511	198	
8	0	0	0	0	511	198	
9	0	0	0	0	512	198	
10	0	0	0	0	512	199	
11	0	0	0	0	512	199	
12	0	0	0	0	513	199	
13	0	0	0	0	514	199	
14	0	0	0	0	515	199	
15	0	0	0	0	516	199	
0	0	0	0	0	515	198	
1	0	0	0	0	515	199	
2	0	0	0	0	514	199	
3	0	0	0	0	513	199	
4	0	0	0	0	513	199	
5	0	0	0	0	512	199	
6	0	0	0	0	513	199	
7	0	0	0	0	514	199	
8	0	0	0	0	514	198	
9	0	0	0	0	514	199	
10	0	0	0	0	515	198	
11	0	0	0	0	515	198	
12	0	0	0	0	515	198	
13	0	0	0	0	516	198	
14	0	0	0	0	517	198	
15	0	0	0	0	517	198	
0	0	0	0	0	517	198	
1	0	0	0	0	517	198	
2	0	0	0	0	516	198	
3	0	0	0	0	516	199	
4	0	0	0	0	515	199	
5	0	0	0	0	516	199	
6	0	0	0	0	515	199	
7	0	0	0	0	515	199	
8	0	0	0	0	515	199	
9	0	0	0	0	515	199	
10	0	0	0	0	515	199	
11	0	0	0	0	515	199	
12	0	0	0	0	515	199	
13	0	0	0	0	516	199	
14	0	0	0	0	516	199	
15	0	0	0	0	517	199	
0	0	0	0	0	518	198	
1	0	0	0	0	518	198	
2	0	0	0	0	519	198	
3	0	0	0	0	519	198	
4	0	0	0	0	519	198	
5	0	0	0	0	519	198	
6	0	0	0	0	519	198	
7	0	0	0	0	518	198	
8	0	0	0	0	518	198	
9	0	0	0	0	518	198	
10	0	0	0	0	518	198	
11	0	0	0	0	518	198	
12	0	0	0	0	518	198	
13	0	0	0	0	518	198	
14	0	0	0	0	519	198	
15	0	0	0	0	519	198	
0	0	0	0	0	521	198	
1	0	0	0	0	522	198	
2	0	0	0	0	523	198	
3	0	0	0	0	524	198	
4	0	0	0	0	525	198	
5	0	0	0	0	526	198	
6	0	0	0	0	526	198	
7	0	0	0	0	527	198	
8	0	0	0	0	528	198	
9	0	0	0	0	528	198	
10	0	0	0	0	527	198	
11	0	0	0	0	528	198	
12	0	0	0	0	528	198	
13	0	0	0	0	529	198	
14	0	0	0	0	531	198	
15	0	0	0	0	532	198	
0	0	0	0	0	534	198	
1	0	0	0	0	535	198	
2	0	0	0	0	536	198	
3	0	0	0	0	535	198	
4	0	0	0	0	534	198	
5	0	0	0	0	535	198	
6	0	0	0	0	535	198	
7	0	0	0	0	536	198	
8	0	0	0	0	535	198	
9	0	0	0	0	534	198	
10	0	0	0	0	535	199	
11	0	0	0	0	536	199	
12	0	0	0	0	537	199	
13	0	0	0	0	540	199	
14	0	0	0	0	541	199	
15	0	0	0	0	541	199	
0	0	0	0	0	541	199	
1	0	0	0	0	542	199	
2	0	0	0	0	543	199	
3	0	0	0	0	543	199	
4	0	0	0	0	543	199	
5	0	0	0	0	543	199	
6	0	0	0	0	543	199	
7	0	0	0	0	542	199	
8	0	0	0	0	541	199	
9	0	0	0	0	541	199	
10	0	0	0	0	542	199	
11	0	0	0	0	542	199	
12	0	0	0	0	542	199	
13	0	0	0	0	542	199	
14	0	0	0	0	542	199	
15	0	0	0	0	542	199	
0	0	0	0	0	543	199	
1	0	0	0	0	543	199	
2	0	0	0	0	543	199	
3	0	0	0	0	542	199	
4	0	0	0	0	541	199	
5	0	0	0	0	541	199	
6	0	0	0	0	540	198	
7	0	0	0	0	540	198	
8	0	0	0	0	542	198	
9	0	0	0	0	543	198	
10	0	0	0	0	544	198	
11	0	0	0	0	544	198	
12	0	0	0	0	543	198	
13	0	0	0	0	542	198	
14	0	0	0	0	540	198	
15	0	0	0	0	540	198	
0	0	0	0	0	538	198	
1	0	0	0	0	536	198	
2	0	0	0	0	534	199	
3	0	0	0	0	531	199	
4	0	0	0	0	529	199	
5	0	0	0	0	527	199	
6	0	0	0	0	525	199	
7	0	0	0	0	524	199	
8	0	0	0	0	522	199	
9	0	0	0	0	522	199	
10	0	0	0	0	521	199	
11	0	0	0	0	519	199	
12	0	0	0	0	517	199	
13	0	0	0	0	515	199	
14	0	0	0	0	512	199	
15	0	0	0	0	511	199	
0	0	0	0	0	509	199	
1	0	0	0	0	508	199	
2	0	0	0	0	506	199	
3	0	0	0	0	505	199	
4	0	0	0	0	504	199	
5	0	0	0	0	502	199	
6	0	0	0	0	499	199	
7	0	0	0	0	498	199	
8	0	0	0	0	496	199	
9	0	0	0	0	495	199	
10	0	0	0	0	493	199	
11	0	0	0	0	491	199	
12	0	0	0	0	489	199	
13	0	0	0	0	486	199	
14	0	0	0	0	484	199	
15	0	0	0	0	483	199	
0	0	0	0	0	482	199	
1	0	0	0	0	480	199	
2	0	0	0	0	479	199	
3	0	0	0	0	479	199	
4	0	0	0	0	478	199	
5	0	0	0	0	477	199	
6	0	0	0	0	476	199	
7	0	0	0	0	475	199	
8	0	0	0	0	473	198	
9	0	0	0	0	472	199	
10	0	0	0	0	472	199	
11	0	0	0	0	472	199	
12	0	0	0	0	472	199	
13	0	0	0	0	471	199	
14	0	0	0	0	470	199	
15	0	0	0	0	470	199	
0	0	0	0	0	469	199	
1	0	0	0	0	469	199	
2	0	0	0	0	469	199	
3	0	0	0	0	469	199	
4	0	0	0	0	469	199	
5	0	0	0	0	469	199	
6	0	0	0	0	469	199	
7	0	0	0	0	469	199	
8	0	0	0	0	469	199	
9	0	0	0	0	469	199	
10	0	0	0	0	469	199	
11	0	0	0	0	468	199	
12	0	0	0	0	467	199	
13	0	0	0	0	467	199	
14	0	0	0	0	467	199	
15	0	0	0	0	466	199	
0	0	0	0	0	467	199	
1	0	0	0	0	468	199	
2	0	0	0	0	469	199	
3	0	0	0	0	470	199	
4	0	0	0	0	469	199	
5	0	0	0	0	470	199	
6	0	0	0	0	470	199	
7	0	0	0	0	471	199	
8	0	0	0	0	471	199	
9	0	0	0	0	471	199	
10	0	0	0	0	471	199	
11	0	0	0	0	472	199	
12	0	0	0	0	472	199	
13	0	0	0	0	472	199	
14	0	0	0	0	473	199	
15	0	0	0	0	475	199	
0	0	0	0	0	475	199	
1	0	0	0	0	475	199	
2	0	0	0	0	474	199	
3	0	0	0	0	473	199	
4	0	0	0	0	473	199	
5	0	0	0	0	473	199	
6	0	0	0	0	472	199	
7	0	0	0	0	472	199	
8	0	0	0	0	472	199	
9	0	0	0	0	472	199	
10	0	0	0	0	473	199	
11	0	0	0	0	474	199	
12	0	0	0	0	476	199	
13	0	0	0	0	475	199	
14	0	0	0	0	474	199	
15	0	0	0	0	474	199	
0	0	0	0	0	475	199	
1	0	0	0	0	475	199	
2	0	0	0	0	476	199	
3	0	0	0	0	476	199	
4	0	0	0	0	477	199	
5	0	0	0	0	476	199	
6	0	0	0	0	476	199	
7	0	0	0	0	477	199	
8	0	0	0	0	479	199	
9	0	0	0	0	480	199	
10	0	0	0	0	483	199	
11	0	0	0	0	484	199	
12	0	0	0	0	484	199	
13	0	0	0	0	485	199	
14	0	0	0	0	486	199	
15	0	0	0	0	488	199	
0	0	0	0	0	489	199	
1	0	0	0	0	490	199	
2	0	0	0	0	490	199	
3	0	0	0	0	488	199	
4	0	0	0	0	488	199	
5	0	0	0	0	487	199	
6	0	0	0	0	484	199	
7	0	0	0	0	485	199	
8	0	0	0	0	485	199	
9	0	0	0	0	486	199	
10	0	0	0	0	486	199	
11	0	0	0	0	487	199	
12	0	0	0	0	489	199	
13	0	0	0	0	490	199	
14	0	0	0	0	490	199	
15	0	0	0	0	491	199	
0	0	0	0	0	492	199	
1	0	0	0	0	494	199	
2	0	0	0	0	494	199	
3	0	0	0	0	496	199	
4	0	0	0	0	496	199	
5	0	0	0	0	495	199	
6	0	0	0	0	494	199	
7	0	0	0	0	495	199	
8	0	0	0	0	496	199	
9	0	0	0	0	497	199	
10	0	0	0	0	497	199	
11	0	0	0	0	497	199	
12	0	0	0	0	496	199	
13	0	0	0	0	495	199	
14	0	0	0	0	494	200	
15	0	0	0	0	494	199	
0	0	0	0	0	494	200	
1	0	0	0	0	493	200	
2	0	0	0	0	493	199	
3	0	0	0	0	493	199	
4	0	0	0	0	494	199	
5	0	0	0	0	495	199	
6	0	0	0	0	495	199	
7	0	0	0	0	495	199	
8	0	0	0	0	495	199	
9	0	0	0	0	495	199	
10	0	0	0	0	494	199	
11	0	0	0	0	493	199	
12	0	0	0	0	494	199	
13	0	0	0	0	493	200	
14	0	0	0	0	492	200	
15	0	0	0	0	492	200	
0	0	0	0	0	492	199	
1	0	0	0	0	493	200	
2	0	0	0	0	494	200	
3	0	0	0	0	495	199	
4	0	0	0	0	496	199	
5	0	0	0	0	496	199	
6	0	0	0	0	496	200	
7	0	0	0	0	497	200	
8	0	0	0	0	497	199	
9	0	0	0	0	498	199	
10	0	0	0	0	498	199	
11	0	0	0	0	499	199	
12	0	0	0	0	500	199	
13	0	0	0	0	501	199	
14	0	0	0	0	503	199	
15	0	0	0	0	504	199	
0	0	0	0	0	505	199	
1	0	0	0	0	505	199	
2	0	0	0	0	505	199	
3	0	0	0	0	505	199	
4	0	0	0	0	505	199	
5	0	0	0	0	506	199	
6	0	0	0	0	506	199	
7	0	0	0	0	505	199	
8	0	0	0	0	504	199	
9	0	0	0	0	505	199	
10	0	0	0	0	507	199	
11	0	0	0	0	509	200	
12	0	0	0	0	511	200	
13	0	0	0	0	512	200	
14	0	0	0	0	511	200	
15	0	0	0	0	512	200	
0	0	0	0	0	514	200	
1	0	0	0	0	514	200	
2	0	0	0	0	515	199	
3	0	0	0	0	516	200	
4	0	0	0	0	516	200	
5	0	0	0	0	516	200	
6	0	0	0	0	515	199	
7	0	0	0	0	515	200	
8	0	0	0	0	515	200	
9	0	0	0	0	515	200	
10	0	0	0	0	515	200	
11	0	0	0	0	513	200	
12	0	0	0	0	512	200	
13	0	0	0	0	511	200	
14	0	0	0	0	511	200	
15	0	0	0	0	512	200	
0	0	0	0	0	512	200	
1	0	0	0	0	513	199	
2	0	0	0	0	513	199	
3	0	0	0	0	513	199	
4	0	0	0	0	514	199	
5	0	0	0	0	515	199	
6	0	0	0	0	517	199	
7	0	0	0	0	517	199	
8	0	0	0	0	518	199	
9	0	0	0	0	520	199	
10	0	0	0	0	520	199	
11	0	0	0	0	519	199	
12	0	0	0	0	519	199	
13	0	0	0	0	519	199	
14	0	0	0	0	521	199	
15	0	0	0	0	522	199	
0	0	0	0	0	524	199	
1	0	0	0	0	525	199	
2	0	0	0	0	525	199	
3	0	0	0	0	524	199	
4	0	0	0	0	524	199	
5	0	0	0	0	524	199	
6	0	0	0	0	524	199	
7	0	0	0	0	524	199	
8	0	0	0	0	524	199	
9	0	0	0	0	523	199	
10	0	0	0	0	523	199	
11	0	0	0	0	522	199	
12	0	0	0	0	522	199	
13	0	0	0	0	521	199	
14	0	0	0	0	520	199	
15	0	0	0	0	520	199	
0	0	0	0	0	520	199	
1	0	0	0	0	521	199	
2	0	0	0	0	521	199	
3	0	0	0	0	521	199	
4	0	0	0	0	521	199	
5	0	0	0	0	523	199	
6	0	0	0	0	523	199	
7	0	0	0	0	524	200	
8	0	0	0	0	524	200	
9	0	0	0	0	524	200	
10	0	0	0	0	524	200	
11	0	0	0	0	524	200	
12	0	0	0	0	524	200	
13	0	0	0	0	524	200	
14	0	0	0	0	524	200	
15	0	0	0	0	523	200	
0	0	0	0	0	522	200	
1	0	0	0	0	522	200	
2	0	0	0	0	521	200	
3	0	0	0	0	523	200	
4	0	0	0	0	524	200	
5	0	0	0	0	525	200	
6	0	0	0	0	524	200	
7	0	0	0	0	524	200	
8	0	0	0	0	524	200	
9	0	0	0	0	524	199	
10	0	0	0	0	525	199	
11	0	0	0	0	526	199	
12	0	0	0	0	526	199	
13	0	0	0	0	526	199	
14	0	0	0	0	525	199	
15	0	0	0	0	526	199	
0	0	0	0	0	524	199	
1	0	0	0	0	525	199	
2	0	0	0	0	525	199	
3	0	0	0	0	526	199	
4	0	0	0	0	526	199	
5	0	0	0	0	526	199	
6	0	0	0	0	526	199	
7	0	0	0	0	525	199	
8	0	0	0	0	524	199	
9	0	0	0	0	524	199	
10	0	0	0	0	523	199	
11	0	0	0	0	521	200	
12	0	0	0	0	521	200	
13	0	0	0	0	521	200	
14	0	0	0	0	521	200	
15	0	0	0	0	521	200	
0	0	0	0	0	521	200	
1	0	0	0	0	521	200	
2	0	0	0	0	521	200	
3	0	0	0	0	519	200	
4	0	0	0	0	519	200	
5	0	0	0	0	518	200	
6	0	0	0	0	520	200	
7	0	0	0	0	522	200	
8	0	0	0	0	523	199	
9	0	0	0	0	523	199	
10	0	0	0	0	524	199	
11	0	0	0	0	525	199	
12	0	0	0	0	526	199	
13	0	0	0	0	525	199	
14	0	0	0	0	524	199	
15	0	0	0	0	522	199	
0	0	0	0	0	521	200	
1	0	0	0	0	521	200	
2	0	0	0	0	520	200	
3	0	0	0	0	521	200	
4	0	0	0	0	524	200	
5	0	0	0	0	524	200	
6	0	0	0	0	525	200	
7	0	0	0	0	527	200	
8	0	0	0	0	527	200	
9	0	0	0	0	526	200	
10	0	0	0	0	525	200	
11	0	0	0	0	524	200	
12	0	0	0	0	523	200	
13	0	0	0	0	524	200	
14	0	0	0	0	524	200	
15	0	0	0	0	523	199	
0	0	0	0	0	522	199	
1	0	0	0	0	523	199	
2	0	0	0	0	524	199	
3	0	0	0	0	524	199	
4	0	0	0	0	525	199	
5	0	0	0	0	525	200	
6	0	0	0	0	524	200	
7	0	0	0	0	524	200	
8	0	0	0	0	523	200	
9	0	0	0	0	524	200	
10	0	0	0	0	524	200	
11	0	0	0	0	523	200	
12	0	0	0	0	522	200	
13	0	0	0	0	523	200	
14	0	0	0	0	524	201	
15	0	0	0	0	524	200	
0	0	0	0	0	524	200	
1	0	0	0	0	525	200	
2	0	0	0	0	526	200	
3	0	0	0	0	527	200	
4	0	0	0	0	527	200	
5	0	0	0	0	527	200	
6	0	0	0	0	528	200	
7	0	0	0	0	528	200	
8	0	0	0	0	527	199	
9	0	0	0	0	528	199	
10	0	0	0	0	527	199	
11	0	0	0	0	527	199	
12	0	0	0	0	527	199	
13	0	0	0	0	528	199	
14	0	0	0	0	527	199	
15	0	0	0	0	526	199	
0	0	0	0	0	525	200	
1	0	0	0	0	524	199	
2	0	0	0	0	525	200	
3	0	0	0	0	524	200	
4	0	0	0	0	525	200	
5	0	0	0	0	526	200	
6	0	0	0	0	526	200	
7	0	0	0	0	526	200	
8	0	0	0	0	527	200	
9	0	0	0	0	527	200	
10	0	0	0	0	526	201	
11	0	0	0	0	525	200	
12	0	0	0	0	524	201	
13	0	0	0	0	525	201	
14	0	0	0	0	526	201	
15	0	0	0	0	525	201	
0	0	0	0	0	525	201	
1	0	0	0	0	525	201	
2	0	0	0	0	526	201	
3	0	0	0	0	527	201	
4	0	0	0	0	526	200	
5	0	0	0	0	526	200	
6	0	0	0	0	525	200	
7	0	0	0	0	524	200	
8	0	0	0	0	524	200	
9	0	0	0	0	523	200	
10	0	0	0	0	523	200	
11	0	0	0	0	522	200	
12	0	0	0	0	520	201	
13	0	0	0	0	519	201	
14	0	0	0	0	519	201	
15	0	0	0	0	519	201	
0	0	0	0	0	519	201	
1	0	0	0	0	519	201	
2	0	0	0	0	519	201	
3	0	0	0	0	520	201	
4	0	0	0	0	521	201	
5	0	0	0	0	521	201	
6	0	0	0	0	522	201	
7	0	0	0	0	523	200	
8	0	0	0	0	523	200	
9	0	0	0	0	523	199	
10	0	0	0	0	521	200	
11	0	0	0	0	521	200	
12	0	0	0	0	520	200	
13	0	0	0	0	521	200	
14	0	0	0	0	522	200	
15	0	0	0	0	522	200	
0	0	0	0	0	521	200	
1	0	0	0	0	521	200	
2	0	0	0	0	523	200	
3	0	0	0	0	524	200	
4	0	0	0	0	523	200	
5	0	0	0	0	523	200	
6	0	0	0	0	523	201	
7	0	0	0	0	523	201	
8	0	0	0	0	522	201	
9	0	0	0	0	521	201	
10	0	0	0	0	519	201	
11	0	0	0	0	518	201	
12	0	0	0	0	517	201	
13	0	0	0	0	516	201	
14	0	0	0	0	515	201	
15	0	0	0	0	515	200	
0	0	0	0	0	515	200	
1	0	0	0	0	517	201	
2	0	0	0	0	518	200	
3	0	0	0	0	518	200	
4	0	0	0	0	518	200	
5	0	0	0	0	517	200	
6	0	0	0	0	516	200	
7	0	0	0	0	515	200	
8	0	0	0	0	515	200	
9	0	0	0	0	516	200	
10	0	0	0	0	517	200	
11	0	0	0	0	518	200	
12	0	0	0	0	519	201	
13	0	0	0	0	520	201	
14	0	0	0	0	521	201	
15	0	0	0	0	523	201	
0	0	0	0	0	523	201	
1	0	0	0	0	523	201	
2	0	0	0	0	523	201	
3	0	0	0	0	523	201	
4	0	0	0	0	523	201	
5	0	0	0	0	522	201	
6	0	0	0	0	521	201	
7	0	0	0	0	521	201	
8	0	0	0	0	521	201	
9	0	0	0	0	522	201	
10	0	0	0	0	521	201	
11	0	0	0	0	521	201	
12	0	0	0	0	521	201	
13	0	0	0	0	520	201	
14	0	0	0	0	519	201	
15	0	0	0	0	520	201	
0	0	0	0	0	520	201	
1	0	0	0	0	521	201	
2	0	0	0	0	522	200	
3	0	0	0	0	524	200	
4	0	0	0	0	524	200	
5	0	0	0	0	524	200	
6	0	0	0	0	523	200	
7	0	0	0	0	523	200	
8	0	0	0	0	521	200	
9	0	0	0	0	521	201	
10	0	0	0	0	521	200	
11	0	0	0	0	521	201	
12	0	0	0	0	520	200	
13	0	0	0	0	520	200	
14	0	0	0	0	520	200	
15	0	0	0	0	520	200	
0	0	0	0	0	519	201	
1	0	0	0	0	519	201	
2	0	0	0	0	519	201	
3	0	0	0	0	519	201	
4	0	0	0	0	519	201	
5	0	0	0	0	521	201	
6	0	0	0	0	521	201	
7	0	0	0	0	521	201	
8	0	0	0	0	521	201	
9	0	0	0	0	521	201	
10	0	0	0	0	521	201	
11	0	0	0	0	521	201	
12	0	0	0	0	522	201	
13	0	0	0	0	521	201	
14	0	0	0	0	520	201	
15	0	0	0	0	521	201	
0	0	0	0	0	521	201	
1	0	0	0	0	521	201	
2	0	0	0	0	523	201	
3	0	0	0	0	522	200	
4	0	0	0	0	521	201	
5	0	0	0	0	521	200	
6	0	0	0	0	522	200	
7	0	0	0	0	523	200	
8	0	0	0	0	524	200	
9	0	0	0	0	526	200	
10	0	0	0	0	526	200	
11	0	0	0	0	526	200	
12	0	0	0	0	524	200	
13	0	0	0	0	523	200	
14	0	0	0	0	522	201	
15	0	0	0	0	521	201	
0	0	0	0	0	519	201	
1	0	0	0	0	519	201	
2	0	0	0	0	519	201	
3	0	0	0	0	519	201	
4	0	0	0	0	519	201	
5	0	0	0	0	519	201	
6	0	0	0	0	520	201	
7	0	0	0	0	521	201	
8	0	0	0	0	521	201	
9	0	0	0	0	521	201	
10	0	0	0	0	520	201	
11	0	0	0	0	520	201	
12	0	0	0	0	519	201	
13	0	0	0	0	519	201	
14	0	0	0	0	519	201	
15	0	0	0	0	521	201	
0	0	0	0	0	522	201	
1	0	0	0	0	524	200	
2	0	0	0	0	525	200	
3	0	0	0	0	526	200	
4	0	0	0	0	526	200	
5	0	0	0	0	524	200	
6	0	0	0	0	523	201	
7	0	0	0	0	522	201	
8	0	0	0	0	521	201	
9	0	0	0	0	519	201	
10	0	0	0	0	519	201	
11	0	0	0	0	519	201	
12	0	0	0	0	519	201	
13	0	0	0	0	519	201	
14	0	0	0	0	518	201	
15	0	0	0	0	516	201	
0	0	0	0	0	515	201	
1	0	0	0	0	515	201	
2	0	0	0	0	515	201	
3	0	0	0	0	515	201	
4	0	0	0	0	515	201	
5	0	0	0	0	515	201	
6	0	0	0	0	516	201	
7	0	0	0	0	516	200	
8	0	0	0	0	517	200	
9	0	0	0	0	518	200	
10	0	0	0	0	518	200	
11	0	0	0	0	519	201	
12	0	0	0	0	519	201	
13	0	0	0	0	520	201	
14	0	0	0	0	521	201	
15	0	0	0	0	521	201	
0	0	0	0	0	520	201	
1	0	0	0	0	520	201	
2	0	0	0	0	519	201	
3	0	0	0	0	519	201	
4	0	0	0	0	519	201	
5	0	0	0	0	518	201	
6	0	0	0	0	516	201	
7	0	0	0	0	517	201	
8	0	0	0	0	516	201	
9	0	0	0	0	517	201	
10	0	0	0	0	517	201	
11	0	0	0	0	518	202	
12	0	0	0	0	517	201	
13	0	0	0	0	518	201	
14	0	0	0	0	518	201	
15	0	0	0	0	519	201	
0	0	0	0	0	519	201	
1	0	0	0	0	518	201	
2	0	0	0	0	518	202	
3	0	0	0	0	517	201	
4	0	0	0	0	517	201	
5	0	0	0	0	517	202	
6	0	0	0	0	517	202	
7	0	0	0	0	518	201	
8	0	0	0	0	517	201	
9	0	0	0	0	518	201	
10	0	0	0	0	517	200	
11	0	0	0	0	517	201	
12	0	0	0	0	517	201	
13	0	0	0	0	517	201	
14	0	0	0	0	516	201	
15	0	0	0	0	516	201	
0	0	0	0	0	516	202	
1	0	0	0	0	515	202	
2	0	0	0	0	515	201	
3	0	0	0	0	515	201	
4	0	0	0	0	515	202	
5	0	0	0	0	514	201	
6	0	0	0	0	513	202	
7	0	0	0	0	513	202	
8	0	0	0	0	513	201	
9	0	0	0	0	511	200	
10	0	0	0	0	510	201	
11	0	0	0	0	509	201	
12	0	0	0	0	509	201	
13	0	0	0	0	510	201	
14	0	0	0	0	511	201	
15	0	0	0	0	513	201	
0	0	0	0	0	514	201	
1	0	0	0	0	515	201	
2	0	0	0	0	516	201	
3	0	0	0	0	516	201	
4	0	0	0	0	516	201	
5	0	0	0	0	516	201	
6	0	0	0	0	517	201	
7	0	0	0	0	518	201	
8	0	0	0	0	519	201	
9	0	0	0	0	520	201	
10	0	0	0	0	520	201	
11	0	0	0	0	519	201	
12	0	0	0	0	519	201	
13	0	0	0	0	519	202	
14	0	0	0	0	519	202	
15	0	0	0	0	518	202	
0	0	0	0	0	515	202	
1	0	0	0	0	515	202	
2	0	0	0	0	514	202	
3	0	0	0	0	514	202	
4	0	0	0	0	515	202	
5	0	0	0	0	515	202	
6	0	0	0	0	516	202	
7	0	0	0	0	515	202	
8	0	0	0	0	515	202	
9	0	0	0	0	513	202	
10	0	0	0	0	512	201	
11	0	0	0	0	512	201	
12	0	0	0	0	512	201	
13	0	0	0	0	512	201	
14	0	0	0	0	513	201	
15	0	0	0	0	513	201	
0	0	0	0	0	514	201	
1	0	0	0	0	513	201	
2	0	0	0	0	513	201	
3	0	0	0	0	513	201	
4	0	0	0	0	512	202	
5	0	0	0	0	512	202	
6	0	0	0	0	512	202	
7	0	0	0	0	511	202	
8	0	0	0	0	511	202	
9	0	0	0	0	512	202	
10	0	0	0	0	513	202	
11	0	0	0	0	513	202	
12	0	0	0	0	515	202	
13	0	0	0	0	517	202	
14	0	0	0	0	517	202	
15	0	0	0	0	516	202	
0	0	0	0	0	516	201	
1	0	0	0	0	517	202	
2	0	0	0	0	517	201	
3	0	0	0	0	517	201	
4	0	0	0	0	518	201	
5	0	0	0	0	517	201	
6	0	0	0	0	517	201	
7	0	0	0	0	516	201	
8	0	0	0	0	515	201	
9	0	0	0	0	515	201	
10	0	0	0	0	514	201	
11	0	0	0	0	513	201	
12	0	0	0	0	512	201	
13	0	0	0	0	512	201	
14	0	0	0	0	512	201	
15	0	0	0	0	512	201	
0	0	0	0	0	513	201	
1	0	0	0	0	512	202	
2	0	0	0	0	513	202	
3	0	0	0	0	515	202	
4	0	0	0	0	515	202	
5	0	0	0	0	516	202	
6	0	0	0	0	516	202	
7	0	0	0	0	516	202	
8	0	0	0	0	516	202	
9	0	0	0	0	517	202	
10	0	0	0	0	517	202	
11	0	0	0	0	517	201	
12	0	0	0	0	517	201	
13	0	0	0	0	518	201	
14	0	0	0	0	518	201	
15	0	0	0	0	519	201	
0	0	0	0	0	518	201	
1	0	0	0	0	519	201	
2	0	0	0	0	519	201	
3	0	0	0	0	519	201	
4	0	0	0	0	520	201	
5	0	0	0	0	521	201	
6	0	0	0	0	520	201	
7	0	0	0	0	521	202	
8	0	0	0	0	520	202	
9	0	0	0	0	521	202	
10	0	0	0	0	521	202	
11	0	0	0	0	521	202	
12	0	0	0	0	523	202	
13	0	0	0	0	523	202	
14	0	0	0	0	523	202	
15	0	0	0	0	523	201	
0	0	0	0	0	522	201	
1	0	0	0	0	522	201	
2	0	0	0	0	521	201	
3	0	0	0	0	521	201	
4	0	0	0	0	522	201	
5	0	0	0	0	521	201	
6	0	0	0	0	522	202	
7	0	0	0	0	522	202	
8	0	0	0	0	522	202	
9	0	0	0	0	523	202	
10	0	0	0	0	522	202	
11	0	0	0	0	524	202	
12	0	0	0	0	524	202	
13	0	0	0	0	525	202	
14	0	0	0	0	527	202	
15	0	0	0	0	528	202	
0	0	0	0	0	529	202	
1	0	0	0	0	530	202	
2	0	0	0	0	531	202	
3	0	0	0	0	531	202	
4	0	0	0	0	530	201	
5	0	0	0	0	529	201	
6	0	0	0	0	529	201	
7	0	0	0	0	530	201	
8	0	0	0	0	530	201	
9	0	0	0	0	530	201	
10	0	0	0	0	530	201	
11	0	0	0	0	531	201	
12	0	0	0	0	532	202	
13	0	0	0	0	532	201	
14	0	0	0	0	533	202	
15	0	0	0	0	535	202	
0	0	0	0	0	535	202	
1	0	0	0	0	536	202	
2	0	0	0	0	537	202	
3	0	0	0	0	537	202	
4	0	0	0	0	536	202	
5	0	0	0	0	536	202	
6	0	0	0	0	536	202	
7	0	0	0	0	536	202	
8	0	0	0	0	537	202	
9	0	0	0	0	538	202	
10	0	0	0	0	538	201	
11	0	0	0	0	537	201	
12	0	0	0	0	536	201	
13	0	0	0	0	536	201	
14	0	0	0	0	536	201	
15	0	0	0	0	537	201	
0	0	0	0	0	536	201	
1	0	0	0	0	536	201	
2	0	0	0	0	535	201	
3	0	0	0	0	534	202	
4	0	0	0	0	533	201	
5	0	0	0	0	531	202	
6	0	0	0	0	530	202	
7	0	0	0	0	528	202	
8	0	0	0	0	526	202	
9	0	0	0	0	526	202	
10	0	0	0	0	526	202	
11	0	0	0	0	524	202	
12	0	0	0	0	523	202	
13	0	0	0	0	524	202	
14	0	0	0	0	526	202	
15	0	0	0	0	525	202	
0	0	0	0	0	523	202	
1	0	0	0	0	524	202	
2	0	0	0	0	525	202	
3	0	0	0	0	525	202	
4	0	0	0	0	526	203	
5	0	0	0	0	527	202	
6	0	0	0	0	527	202	
7	0	0	0	0	529	202	
8	0	0	0	0	530	201	
9	0	0	0	0	528	201	
10	0	0	0	0	528	201	
11	0	0	0	0	527	201	
12	0	0	0	0	526	201	
13	0	0	0	0	525	201	
14	0	0	0	0	525	201	
15	0	0	0	0	525	202	
0	0	0	0	0	524	202	
1	0	0	0	0	523	202	
2	0	0	0	0	521	202	
3	0	0	0	0	521	202	
4	0	0	0	0	520	202	
5	0	0	0	0	519	202	
6	0	0	0	0	517	202	
7	0	0	0	0	515	202	
8	0	0	0	0	514	203	
9	0	0	0	0	513	202	
10	0	0	0	0	511	203	
11	0	0	0	0	512	202	
12	0	0	0	0	510	203	
13	0	0	0	0	509	203	
14	0	0	0	0	508	202	
15	0	0	0	0	507	203	
0	0	0	0	0	506	203	
1	0	0	0	0	505	202	
2	0	0	0	0	505	201	
3	0	0	0	0	506	201	
4	0	0	0	0	507	201	
5	0	0	0	0	508	201	
6	0	0	0	0	509	202	
7	0	0	0	0	509	202	
8	0	0	0	0	509	202	
9	0	0	0	0	509	202	
10	0	0	0	0	510	202	
11	0	0	0	0	509	202	
12	0	0	0	0	508	202	
13	0	0	0	0	509	202	
14	0	0	0	0	508	202	
15	0	0	0	0	509	202	
0	0	0	0	0	510	203	
1	0	0	0	0	511	203	
2	0	0	0	0	511	203	
3	0	0	0	0	512	203	
4	0	0	0	0	512	203	
5	0	0	0	0	512	203	
6	0	0	0	0	512	203	
7	0	0	0	0	512	202	
8	0	0	0	0	511	203	
9	0	0	0	0	512	203	
10	0	0	0	0	512	203	
11	0	0	0	0	512	203	
12	0	0	0	0	512	202	
13	0	0	0	0	512	203	
14	0	0	0	0	512	203	
15	0	0	0	0	511	203	
0	0	0	0	0	510	203	
1	0	0	0	0	510	203	
2	0	0	0	0	510	202	
3	0	0	0	0	509	203	
4	0	0	0	0	508	203	
5	0	0	0	0	507	202	
6	0	0	0	0	505	202	
7	0	0	0	0	504	201	
8	0	0	0	0	501	202	
9	0	0	0	0	499	202	
10	0	0	0	0	498	202	
11	0	0	0	0	500	202	
12	0	0	0	0	501	202	
13	0	0	0	0	502	203	
14	0	0	0	0	503	203	
15	0	0	0	0	504	203	
0	0	0	0	0	507	203	
1	0	0	0	0	510	203	
2	0	0	0	0	512	202	
3	0	0	0	0	520	201	
4	0	0	0	0	529	201	
5	0	0	0	0	540	201	
6	0	0	0	0	551	201	
7	0	0	0	0	562	202	
8	0	0	0	0	573	202	
9	0	0	0	0	586	202	
10	0	0	0	0	598	202	
11	0	0	0	0	608	202	
12	0	0	0	0	617	202	
13	0	0	0	0	625	202	
14	0	0	0	0	632	203	
15	0	0	0	0	636	202	
0	0	0	0	0	641	202	
1	0	0	0	0	645	202	
2	0	0	0	0	649	201	
3	0	0	0	0	652	201	
4	0	0	0	0	653	200	
5	0	0	0	0	655	201	
6	0	0	0	0	656	201	
7	0	0	0	0	656	201	
8	0	0	0	0	656	201	
9	0	0	0	0	654	201	
10	0	0	0	0	647	201	
11	0	0	0	0	640	202	
12	0	0	0	0	632	202	
13	0	0	0	0	625	202	
14	0	0	0	0	618	202	
15	0	0	0	0	609	202	
0	0	0	0	0	602	203	
1	0	0	0	0	593	203	
2	0	0	0	0	583	203	
3	0	0	0	0	572	203	
4	0	0	0	0	560	203	
5	0	0	0	0	548	203	
6	0	0	0	0	535	203	
7	0	0	0	0	521	203	
8	0	0	0	0	510	203	
9	0	0	0	0	498	203	
10	0	0	0	0	489	203	
11	0	0	0	0	481	202	
12	0	0	0	0	475	202	
13	0	0	0	0	468	202	
14	0	0	0	0	462	202	
15	0	0	0	0	458	202	
0	0	0	0	0	455	202	
1	0	0	0	0	453	202	
2	0	0	0	0	451	202	
3	0	0	0	0	451	202	
4	0	0	0	0	452	202	
5	0	0	0	0	454	203	
6	0	0	0	0	455	203	
7	0	0	0	0	457	203	
8	0	0	0	0	460	203	
9	0	0	0	0	461	203	
10	0	0	0	0	462	203	
11	0	0	0	0	464	203	
12	0	0	0	0	466	203	
13	0	0	0	0	469	203	
14	0	0	0	0	472	203	
15	0	0	0	0	473	203	
0	0	0	0	0	475	203	
1	0	0	0	0	476	203	
2	0	0	0	0	476	202	
3	0	0	0	0	478	202	
4	0	0	0	0	478	202	
5	0	0	0	0	476	202	
6	0	0	0	0	474	202	
7	0	0	0	0	471	202	
8	0	0	0	0	470	202	
9	0	0	0	0	470	202	
10	0	0	0	0	471	202	
11	0	0	0	0	471	202	
12	0	0	0	0	472	202	
13	0	0	0	0	473	202	
14	0	0	0	0	473	202	
15	0	0	0	0	473	202	
0	0	0	0	0	474	202	
1	0	0	0	0	474	202	
2	0	0	0	0	475	203	
3	0	0	0	0	474	203	
4	0	0	0	0	474	203	
5	0	0	0	0	475	203	
6	0	0	0	0	476	203	
7	0	0	0	0	476	203	
8	0	0	0	0	477	203	
9	0	0	0	0	477	203	
10	0	0	0	0	477	203	
11	0	0	0	0	477	203	
12	0	0	0	0	477	203	
13	0	0	0	0	477	203	
14	0	0	0	0	476	203	
15	0	0	0	0	476	202	
0	0	0	0	0	478	202	
1	0	0	0	0	479	203	
2	0	0	0	0	480	202	
3	0	0	0	0	480	202	
4	0	0	0	0	480	202	
5	0	0	0	0	480	202	
6	0	0	0	0	480	202	
7	0	0	0	0	479	202	
8	0	0	0	0	480	203	
9	0	0	0	0	481	203	
10	0	0	0	0	482	202	
11	0	0	0	0	482	203	
12	0	0	0	0	482	203	
13	0	0	0	0	482	203	
14	0	0	0	0	483	203	
15	0	0	0	0	482	203	
0	0	0	0	0	483	203	
1	0	0	0	0	483	203	
2	0	0	0	0	484	203	
3	0	0	0	0	485	203	
4	0	0	0	0	486	203	
5	0	0	0	0	488	203	
6	0	0	0	0	489	203	
7	0	0	0	0	489	203	
8	0	0	0	0	489	203	
9	0	0	0	0	489	203	
10	0	0	0	0	490	203	
11	0	0	0	0	489	203	
12	0	0	0	0	489	203	
13	0	0	0	0	489	202	
14	0	0	0	0	488	202	
15	0	0	0	0	488	202	
0	0	0	0	0	488	202	
1	0	0	0	0	488	202	
2	0	0	0	0	489	202	
3	0	0	0	0	490	202	
4	0	0	0	0	491	202	
5	0	0	0	0	492	202	
6	0	0	0	0	493	203	
7	0	0	0	0	495	202	
8	0	0	0	0	495	202	
9	0	0	0	0	496	203	
10	0	0	0	0	496	202	
11	0	0	0	0	496	203	
12	0	0	0	0	496	203	
13	0	0	0	0	496	203	
14	0	0	0	0	497	203	
15	0	0	0	0	495	203	
0	0	0	0	0	494	203	
1	0	0	0	0	495	203	
2	0	0	0	0	495	203	
3	0	0	0	0	495	203	
4	0	0	0	0	495	203	
5	0	0	0	0	494	203	
6	0	0	0	0	494	202	
7	0	0	0	0	495	202	
8	0	0	0	0	496	202	
9	0	0	0	0	495	202	
10	0	0	0	0	495	202	
11	0	0	0	0	495	202	
12	0	0	0	0	496	202	
13	0	0	0	0	496	202	
14	0	0	0	0	496	202	
15	0	0	0	0	495	202	
0	0	0	0	0	496	202	
1	0	0	0	0	495	202	
2	0	0	0	0	496	202	
3	0	0	0	0	496	202	
4	0	0	0	0	496	202	
5	0	0	0	0	496	203	
6	0	0	0	0	497	203	
7	0	0	0	0	498	203	
8	0	0	0	0	498	203	
9	0	0	0	0	499	203	
10	0	0	0	0	499	203	
11	0	0	0	0	497	203	
12	0	0	0	0	496	203	
13	0	0	0	0	495	203	
14	0	0	0	0	495	203	
15	0	0	0	0	495	202	
0	0	0	0	0	496	202	
1	0	0	0	0	496	202	
2	0	0	0	0	497	203	
3	0	0	0	0	497	203	
4	0	0	0	0	498	203	
5	0	0	0	0	497	203	
6	0	0	0	0	498	203	
7	0	0	0	0	499	203	
8	0	0	0	0	497	203	
9	0	0	0	0	497	202	
10	0	0	0	0	498	202	
11	0	0	0	0	497	202	
12	0	0	0	0	497	202	
13	0	0	0	0	499	202	
14	0	0	0	0	499	202	
15	0	0	0	0	498	202	
0	0	0	0	0	498	202	
1	0	0	0	0	499	202	
2	0	0	0	0	499	203	
3	0	0	0	0	499	203	
4	0	0	0	0	500	203	
5	0	0	0	0	500	203	
6	0	0	0	0	500	203	
7	0	0	0	0	500	203	
8	0	0	0	0	499	203	
9	0	0	0	0	498	203	
10	0	0	0	0	498	203	
11	0	0	0	0	498	203	
12	0	0	0	0	499	203	
13	0	0	0	0	498	203	
14	0	0	0	0	498	203	
15	0	0	0	0	498	203	
0	0	0	0	0	499	203	
1	0	0	0	0	497	203	
2	0	0	0	0	496	203	
3	0	0	0	0	496	203	
4	0	0	0	0	496	202	
5	0	0	0	0	496	202	
6	0	0	0	0	497	202	
7	0	0	0	0	497	202	
8	0	0	0	0	496	202	
9	0	0	0	0	495	202	
10	0	0	0	0	494	202	
11	0	0	0	0	497	202	
12	0	0	0	0	499	202	
13	0	0	0	0	499	202	
14	0	0	0	0	500	202	
15	0	0	0	0	501	203	
0	0	0	0	0	501	203	
1	0	0	0	0	500	203	
2	0	0	0	0	499	203	
3	0	0	0	0	498	203	
4	0	0	0	0	498	203	
5	0	0	0	0	497	203	
6	0	0	0	0	498	203	
7	0	0	0	0	500	203	
8	0	0	0	0	499	203	
9	0	0	0	0	499	203	
10	0	0	0	0	499	203	
11	0	0	0	0	498	203	
12	0	0	0	0	497	203	
13	0	0	0	0	498	203	
14	0	0	0	0	499	203	
15	0	0	0	0	499	203	
0	0	0	0	0	497	202	
1	0	0	0	0	497	202	
2	0	0	0	0	499	202	
3	0	0	0	0	499	202	
4	0	0	0	0	499	202	
5	0	0	0	0	499	202	
6	0	0	0	0	499	202	
7	0	0	0	0	499	202	
8	0	0	0	0	499	202	
9	0	0	0	0	500	202	
10	0	0	0	0	499	203	
11	0	0	0	0	499	203	
12	0	0	0	0	499	203	
13	0	0	0	0	499	203	
14	0	0	0	0	498	203	
15	0	0	0	0	497	203	
0	0	0	0	0	498	203	
1	0	0	0	0	499	203	
2	0	0	0	0	499	203	
3	0	0	0	0	500	203	
4	0	0	0	0	502	203	
5	0	0	0	0	502	203	
6	0	0	0	0	502	203	
7	0	0	0	0	501	203	
8	0	0	0	0	500	203	
9	0	0	0	0	500	203	
10	0	0	0	0	499	203	
11	0	0	0	0	500	203	
12	0	0	0	0	501	202	
13	0	0	0	0	502	202	
14	0	0	0	0	503	202	
15	0	0	0	0	502	202	
0	0	0	0	0	502	202	
1	0	0	0	0	502	202	
2	0	0	0	0	501	202	
3	0	0	0	0	502	202	
4	0	0	0	0	502	202	
5	0	0	0	0	500	202	
6	0	0	0	0	500	202	
7	0	0	0	0	501	202	
8	0	0	0	0	499	202	
9	0	0	0	0	498	202	
10	0	0	0	0	498	203	
11	0	0	0	0	496	203	
12	0	0	0	0	496	203	
13	0	0	0	0	496	203	
14	0	0	0	0	495	203	
15	0	0	0	0	496	203	
0	0	0	0	0	495	203	
1	0	0	0	0	494	203	
2	0	0	0	0	493	203	
3	0	0	0	0	491	203	
4	0	0	0	0	489	203	
5	0	0	0	0	487	203	
6	0	0	0	0	486	202	
7	0	0	0	0	486	202	
8	0	0	0	0	486	202	
9	0	0	0	0	486	202	
10	0	0	0	0	486	202	
11	0	0	0	0	486	202	
12	0	0	0	0	486	202	
13	0	0	0	0	486	202	
14	0	0	0	0	486	203	
15	0	0	0	0	484	203	
0	0	0	0	0	481	203	
1	0	0	0	0	477	203	
2	0	0	0	0	475	203	
3	0	0	0	0	474	203	
4	0	0	0	0	473	203	
5	0	0	0	0	472	203	
6	0	0	0	0	469	202	
7	0	0	0	0	468	202	
8	0	0	0	0	467	202	
9	0	0	0	0	463	202	
10	0	0	0	0	460	202	
11	0	0	0	0	457	202	
12	0	0	0	0	455	202	
13	0	0	0	0	454	203	
14	0	0	0	0	452	203	
15	0	0	0	0	451	203	
0	0	0	0	0	451	203	
1	0	0	0	0	450	203	
2	0	0	0	0	448	203	
3	0	0	0	0	447	203	
4	0	0	0	0	446	203	
5	0	0	0	0	444	203	
6	0	0	0	0	443	203	
7	0	0	0	0	443	203	
8	0	0	0	0	441	203	
9	0	0	0	0	439	202	
10	0	0	0	0	438	202	
11	0	0	0	0	436	202	
12	0	0	0	0	435	202	
13	0	0	0	0	435	203	
14	0	0	0	0	434	203	
15	0	0	0	0	433	203	
0	0	0	0	0	430	203	
1	0	0	0	0	431	203	
2	0	0	0	0	431	203	
3	0	0	0	0	430	203	
4	0	0	0	0	428	203	
5	0	0	0	0	426	203	
6	0	0	0	0	424	203	
7	0	0	0	0	425	202	
8	0	0	0	0	425	202	
9	0	0	0	0	424	202	
10	0	0	0	0	423	203	
11	0	0	0	0	422	203	
12	0	0	0	0	422	203	
13	0	0	0	0	420	203	
14	0	0	0	0	419	203	
15	0	0	0	0	420	203	
0	0	0	0	0	420	203	
1	0	0	0	0	422	203	
2	0	0	0	0	423	203	
3	0	0	0	0	425	203	
4	0	0	0	0	426	203	
5	0	0	0	0	426	203	
6	0	0	0	0	427	203	
7	0	0	0	0	429	203	
8	0	0	0	0	428	203	
9	0	0	0	0	428	203	
10	0	0	0	0	427	203	
11	0	0	0	0	427	203	
12	0	0	0	0	428	203	
13	0	0	0	0	429	202	
14	0	0	0	0	430	202	
15	0	0	0	0	431	202	
0	0	0	0	0	432	202	
1	0	0	0	0	434	202	
2	0	0	0	0	434	202	
3	0	0	0	0	435	202	
4	0	0	0	0	435	202	
5	0	0	0	0	436	203	
6	0	0	0	0	437	203	
7	0	0	0	0	438	203	
8	0	0	0	0	438	203	
9	0	0	0	0	439	203	
10	0	0	0	0	440	203	
11	0	0	0	0	441	203	
12	0	0	0	0	441	203	
13	0	0	0	0	442	203	
14	0	0	0	0	443	203	
15	0	0	0	0	444	203	
0	0	0	0	0	444	203	
1	0	0	0	0	444	203	
2	0	0	0	0	443	203	
3	0	0	0	0	443	203	
4	0	0	0	0	444	203	
5	0	0	0	0	445	203	
6	0	0	0	0	447	203	
7	0	0	0	0	449	203	
8	0	0	0	0	449	203	
9	0	0	0	0	448	203	
10	0	0	0	0	449	202	
11	0	0	0	0	450	202	
12	0	0	0	0	451	202	
13	0	0	0	0	451	202	
14	0	0	0	0	453	202	
15	0	0	0	0	453	202	
0	0	0	0	0	453	202	
1	0	0	0	0	454	203	
2	0	0	0	0	454	203	
3	0	0	0	0	455	203	
4	0	0	0	0	454	203	
5	0	0	0	0	456	203	
6	0	0	0	0	456	203	
7	0	0	0	0	456	203	
8	0	0	0	0	455	203	
9	0	0	0	0	455	203	
10	0	0	0	0	456	203	
11	0	0	0	0	456	203	
12	0	0	0	0	456	203	
13	0	0	0	0	456	203	
14	0	0	0	0	457	203	
15	0	0	0	0	457	203	
0	0	0	0	0	457	203	
1	0	0	0	0	457	202	
2	0	0	0	0	459	202	
3	0	0	0	0	460	202	
4	0	0	0	0	460	202	
5	0	0	0	0	460	202	
6	0	0	0	0	461	202	
7	0	0	0	0	461	202	
8	0	0	0	0	463	202	
9	0	0	0	0	464	202	
10	0	0	0	0	465	202	
11	0	0	0	0	465	202	
12	0	0	0	0	465	202	
13	0	0	0	0	464	202	
14	0	0	0	0	464	202	
15	0	0	0	0	466	202	
0	0	0	0	0	467	202	
1	0	0	0	0	469	202	
2	0	0	0	0	469	202	
3	0	0	0	0	467	202	
4	0	0	0	0	466	202	
5	0	0	0	0	466	202	
6	0	0	0	0	467	203	
7	0	0	0	0	468	202	
8	0	0	0	0	469	202	
9	0	0	0	0	470	202	
10	0	0	0	0	470	203	
11	0	0	0	0	470	203	
12	0	0	0	0	470	203	
13	0	0	0	0	471	203	
14	0	0	0	0	470	203	
15	0	0	0	0	471	203	
0	0	0	0	0	472	203	
1	0	0	0	0	472	203	
2	0	0	0	0	472	203	
3	0	0	0	0	472	203	
4	0	0	0	0	471	203	
5	0	0	0	0	472	202	
6	0	0	0	0	472	203	
7	0	0	0	0	472	203	
8	0	0	0	0	472	203	
9	0	0	0	0	473	203	
10	0	0	0	0	474	203	
11	0	0	0	0	475	203	
12	0	0	0	0	475	203	
13	0	0	0	0	476	203	
14	0	0	0	0	476	203	
15	0	0	0	0	477	203	
0	0	0	0	0	477	203	
1	0	0	0	0	477	203	
2	0	0	0	0	478	203	
3	0	0	0	0	479	203	
4	0	0	0	0	480	203	
5	0	0	0	0	480	203	
6	0	0	0	0	480	203	
7	0	0	0	0	480	203	
8	0	0	0	0	481	203	
9	0	0	0	0	483	203	
10	0	0	0	0	483	203	
11	0	0	0	0	484	203	
12	0	0	0	0	484	203	
13	0	0	0	0	484	203	
14	0	0	0	0	485	203	
15	0	0	0	0	486	202	
0	0	0	0	0	486	203	
1	0	0	0	0	488	202	
2	0	0	0	0	490	202	
3	0	0	0	0	489	202	
4	0	0	0	0	490	202	
5	0	0	0	0	491	202	
6	0	0	0	0	491	202	
7	0	0	0	0	491	203	
8	0	0	0	0	493	203	
9	0	0	0	0	494	203	
10	0	0	0	0	493	203	
11	0	0	0	0	494	203	
12	0	0	0	0	494	203	
13	0	0	0	0	495	203	
14	0	0	0	0	495	203	
15	0	0	0	0	495	203	
0	0	0	0	0	495	203	
1	0	0	0	0	496	203	
2	0	0	0	0	496	203	
3	0	0	0	0	497	203	
4	0	0	0	0	497	203	
5	0	0	0	0	497	203	
6	0	0	0	0	498	203	
7	0	0	0	0	496	203	
8	0	0	0	0	495	203	
9	0	0	0	0	496	202	
10	0	0	0	0	495	202	
11	0	0	0	0	495	202	
12	0	0	0	0	496	202	
13	0	0	0	0	497	202	
14	0	0	0	0	498	202	
15	0	0	0	0	499	202	
0	0	0	0	0	498	202	
1	0	0	0	0	497	202	
2	0	0	0	0	496	203	
3	0	0	0	0	497	203	
4	0	0	0	0	498	203	
5	0	0	0	0	498	203	
6	0	0	0	0	497	203	
7	0	0	0	0	496	203	
8	0	0	0	0	495	203	
9	0	0	0	0	495	203	
10	0	0	0	0	495	203	
11	0	0	0	0	495	203	
12	0	0	0	0	496	203	
13	0	0	0	0	497	203	
14	0	0	0	0	497	203	
15	0	0	0	0	498	203	
0	0	0	0	0	497	203	
1	0	0	0	0	498	203	
2	0	0	0	0	498	203	
3	0	0	0	0	498	203	
4	0	0	0	0	496	203	
5	0	0	0	0	496	203	
6	0	0	0	0	497	203	
7	0	0	0	0	496	203	
8	0	0	0	0	497	202	
9	0	0	0	0	498	202	
10	0	0	0	0	499	202	
11	0	0	0	0	499	202	
12	0	0	0	0	500	202	
13	0	0	0	0	500	202	
14	0	0	0	0	501	202	
15	0	0	0	0	502	202	
0	0	0	0	0	504	202	
1	0	0	0	0	504	202	
2	0	0	0	0	505	203	
3	0	0	0	0	505	203	
4	0	0	0	0	504	203	
5	0	0	0	0	503	203	
6	0	0	0	0	503	203	
7	0	0	0	0	502	203	
8	0	0	0	0	501	203	
9	0	0	0	0	502	203	
10	0	0	0	0	501	203	
11	0	0	0	0	501	203	
12	0	0	0	0	502	203	
13	0	0	0	0	502	203	
14	0	0	0	0	502	202	
15	0	0	0	0	502	202	
0	0	0	0	0	502	202	
1	0	0	0	0	503	202	
2	0	0	0	0	504	202	
3	0	0	0	0	504	202	
4	0	0	0	0	505	202	
5	0	0	0	0	506	202	
6	0	0	0	0	506	202	
7	0	0	0	0	505	202	
8	0	0	0	0	506	202	
9	0	0	0	0	506	202	
10	0	0	0	0	504	202	
11	0	0	0	0	503	202	
12	0	0	0	0	504	202	
13	0	0	0	0	504	202	
14	0	0	0	0	504	202	
15	0	0	0	0	505	202	
0	0	0	0	0	504	202	
1	0	0	0	0	504	203	
2	0	0	0	0	505	203	
3	0	0	0	0	504	203	
4	0	0	0	0	504	203	
5	0	0	0	0	503	203	
6	0	0	0	0	502	203	
7	0	0	0	0	502	202	
8	0	0	0	0	502	202	
9	0	0	0	0	501	202	
10	0	0	0	0	499	202	
11	0	0	0	0	499	202	
12	0	0	0	0	499	202	
13	0	0	0	0	500	202	
14	0	0	0	0	501	202	
15	0	0	0	0	500	203	
0	0	0	0	0	500	203	
1	0	0	0	0	500	203	
2	0	0	0	0	500	203	
3	0	0	0	0	499	203	
4	0	0	0	0	498	203	
5	0	0	0	0	497	203	
6	0	0	0	0	498	203	
7	0	0	0	0	500	203	
8	0	0	0	0	501	203	
9	0	0	0	0	503	203	
10	0	0	0	0	504	202	
11	0	0	0	0	504	202	
12	0	0	0	0	501	202	
13	0	0	0	0	500	202	
14	0	0	0	0	500	203	
15	0	0	0	0	501	203	
0	0	0	0	0	500	203	
1	0	0	0	0	501	203	
2	0	0	0	0	502	203	
3	0	0	0	0	502	203	
4	0	0	0	0	501	203	
5	0	0	0	0	500	203	
6	0	0	0	0	501	202	
7	0	0	0	0	503	202	
8	0	0	0	0	504	202	
9	0	0	0	0	503	202	
10	0	0	0	0	502	202	
11	0	0	0	0	502	202	
12	0	0	0	0	501	202	
13	0	0	0	0	502	203	
14	0	0	0	0	503	203	
15	0	0	0	0	505	203	
0	0	0	0	0	504	203	
1	0	0	0	0	504	203	
2	0	0	0	0	504	203	
3	0	0	0	0	504	203	
4	0	0	0	0	504	203	
5	0	0	0	0	504	203	
6	0	0	0	0	503	203	
7	0	0	0	0	504	203	
8	0	0	0	0	504	203	
9	0	0	0	0	504	202	
10	0	0	0	0	504	202	
11	0	0	0	0	504	202	
12	0	0	0	0	504	202	
13	0	0	0	0	504	202	
14	0	0	0	0	504	202	
15	0	0	0	0	505	202	
0	0	0	0	0	504	202	
1	0	0	0	0	505	202	
2	0	0	0	0	505	203	
3	0	0	0	0	505	203	
4	0	0	0	0	507	203	
5	0	0	0	0	508	203	
6	0	0	0	0	508	203	
7	0	0	0	0	508	203	
8	0	0	0	0	507	203	
9	0	0	0	0	507	203	
10	0	0	0	0	507	203	
11	0	0	0	0	504	203	
12	0	0	0	0	503	203	
13	0	0	0	0	502	203	
14	0	0	0	0	501	203	
15	0	0	0	0	501	203	
0	0	0	0	0	500	203	
1	0	0	0	0	501	203	
2	0	0	0	0	501	203	
3	0	0	0	0	502	202	
4	0	0	0	0	504	202	
5	0	0	0	0	505	202	
6	0	0	0	0	504	202	
7	0	0	0	0	503	202	
8	0	0	0	0	504	202	
9	0	0	0	0	505	202	
10	0	0	0	0	506	202	
11	0	0	0	0	507	202	
12	0	0	0	0	509	203	
13	0	0	0	0	509	202	
14	0	0	0	0	509	202	
15	0	0	0	0	508	203	
0	0	0	0	0	509	203	
1	0	0	0	0	508	203	
2	0	0	0	0	507	203	
3	0	0	0	0	507	203	
4	0	0	0	0	507	203	
5	0	0	0	0	508	203	
6	0	0	0	0	508	203	
7	0	0	0	0	508	203	
8	0	0	0	0	509	203	
9	0	0	0	0	508	203	
10	0	0	0	0	508	203	
11	0	0	0	0	505	202	
12	0	0	0	0	504	201	
13	0	0	0	0	504	202	
14	0	0	0	0	504	202	
15	0	0	0	0	504	202	
0	0	0	0	0	505	202	
1	0	0	0	0	507	202	
2	0	0	0	0	509	202	
3	0	0	0	0	511	202	
4	0	0	0	0	510	202	
5	0	0	0	0	510	203	
6	0	0	0	0	510	203	
7	0	0	0	0	511	203	
8	0	0	0	0	510	203	
9	0	0	0	0	511	203	
10	0	0	0	0	512	203	
11	0	0	0	0	513	203	
12	0	0	0	0	513	203	
13	0	0	0	0	514	203	
14	0	0	0	0	515	203	
15	0	0	0	0	516	202	
0	0	0	0	0	515	202	
1	0	0	0	0	515	202	
2	0	0	0	0	515	202	
3	0	0	0	0	516	202	
4	0	0	0	0	516	202	
5	0	0	0	0	516	202	
6	0	0	0	0	515	202	
7	0	0	0	0	515	202	
8	0	0	0	0	514	202	
9	0	0	0	0	514	202	
10	0	0	0	0	515	202	
11	0	0	0	0	515	202	
12	0	0	0	0	515	202	
13	0	0	0	0	515	202	
14	0	0	0	0	515	202	
15	0	0	0	0	516	203	
0	0	0	0	0	515	203	
1	0	0	0	0	515	203	
2	0	0	0	0	514	203	
3	0	0	0	0	513	203	
4	0	0	0	0	512	203	
5	0	0	0	0	511	203	
6	0	0	0	0	510	203	
7	0	0	0	0	511	203	
8	0	0	0	0	512	203	
9	0	0	0	0	512	203	
10	0	0	0	0	512	203	
11	0	0	0	0	513	203	
12	0	0	0	0	514	203	
13	0	0	0	0	515	203	
14	0	0	0	0	515	203	
15	0	0	0	0	514	203	
0	0	0	0	0	512	203	
1	0	0	0	0	512	202	
2	0	0	0	0	514	202	
3	0	0	0	0	515	201	
4	0	0	0	0	514	201	
5	0	0	0	0	513	202	
6	0	0	0	0	514	202	
7	0	0	0	0	514	202	
8	0	0	0	0	514	202	
9	0	0	0	0	513	202	
10	0	0	0	0	514	202	
11	0	0	0	0	514	202	
12	0	0	0	0	514	202	
13	0	0	0	0	514	202	
14	0	0	0	0	513	202	
15	0	0	0	0	514	202	
0	0	0	0	0	515	202	
1	0	0	0	0	515	202	
2	0	0	0	0	512	202	
3	0	0	0	0	511	203	
4	0	0	0	0	510	203	
5	0	0	0	0	509	203	
6	0	0	0	0	509	203	
7	0	0	0	0	508	203	
8	0	0	0	0	508	203	
9	0	0	0	0	509	203	
10	0	0	0	0	512	203	
11	0	0	0	0	514	203	
12	0	0	0	0	514	203	
13	0	0	0	0	513	203	
14	0	0	0	0	513	203	
15	0	0	0	0	512	203	
0	0	0	0	0	511	203	
1	0	0	0	0	510	203	
2	0	0	0	0	510	203	
3	0	0	0	0	510	203	
4	0	0	0	0	510	203	
5	0	0	0	0	509	203	
6	0	0	0	0	510	203	
7	0	0	0	0	510	203	
8	0	0	0	0	510	203	
9	0	0	0	0	510	203	
10	0	0	0	0	511	203	
11	0	0	0	0	512	202	
12	0	0	0	0	513	202	
13	0	0	0	0	513	202	
14	0	0	0	0	513	202	
15	0	0	0	0	513	202	
0	0	0	0	0	513	202	
1	0	0	0	0	512	201	
2	0	0	0	0	512	201	
3	0	0	0	0	512	201	
4	0	0	0	0	512	202	
5	0	0	0	0	512	202	
6	0	0	0	0	513	202	
7	0	0	0	0	514	201	
8	0	0	0	0	514	202	
9	0	0	0	0	514	202	
10	0	0	0	0	513	201	
11	0	0	0	0	512	201	
12	0	0	0	0	511	202	
13	0	0	0	0	512	202	
14	0	0	0	0	512	202	
15	0	0	0	0	512	202	
0	0	0	0	0	512	202	
1	0	0	0	0	512	202	
2	0	0	0	0	514	202	
3	0	0	0	0	515	202	
4	0	0	0	0	516	202	
5	0	0	0	0	517	202	
6	0	0	0	0	517	202	
7	0	0	0	0	518	202	
8	0	0	0	0	517	202	
9	0	0	0	0	516	202	
10	0	0	0	0	515	201	
11	0	0	0	0	514	202	
12	0	0	0	0	514	202	
13	0	0	0	0	514	202	
14	0	0	0	0	513	202	
15	0	0	0	0	514	202	
0	0	0	0	0	514	202	
1	0	0	0	0	512	202	
2	0	0	0	0	513	202	
3	0	0	0	0	513	202	
4	0	0	0	0	513	202	
5	0	0	0	0	512	202	
6	0	0	0	0	512	202	
7	0	0	0	0	514	203	
8	0	0	0	0	515	203	
9	0	0	0	0	515	203	
10	0	0	0	0	516	203	
11	0	0	0	0	515	203	
12	0	0	0	0	515	203	
13	0	0	0	0	515	203	
14	0	0	0	0	515	203	
15	0	0	0	0	518	203	
0	0	0	0	0	518	203	
1	0	0	0	0	518	203	
2	0	0	0	0	519	203	
3	0	0	0	0	518	203	
4	0	0	0	0	518	203	
5	0	0	0	0	520	203	
6	0	0	0	0	521	203	
7	0	0	0	0	523	203	
8	0	0	0	0	524	203	
9	0	0	0	0	522	203	
10	0	0	0	0	521	203	
11	0	0	0	0	523	203	
12	0	0	0	0	521	203	
13	0	0	0	0	520	203	
14	0	0	0	0	519	203	
15	0	0	0	0	519	203	
0	0	0	0	0	520	203	
1	0	0	0	0	521	203	
2	0	0	0	0	521	203	
3	0	0	0	0	520	203	
4	0	0	0	0	520	203	
5	0	0	0	0	519	203	
6	0	0	0	0	518	203	
7	0	0	0	0	516	202	
8	0	0	0	0	517	201	
9	0	0	0	0	519	201	
10	0	0	0	0	519	201	
11	0	0	0	0	521	202	
12	0	0	0	0	523	202	
13	0	0	0	0	524	202	
14	0	0	0	0	525	202	
15	0	0	0	0	526	202	
0	0	0	0	0	527	202	
1	0	0	0	0	526	202	
2	0	0	0	0	524	202	
3	0	0	0	0	522	202	
4	0	0	0	0	521	203	
5	0	0	0	0	520	203	
6	0	0	0	0	520	203	
7	0	0	0	0	520	202	
8	0	0	0	0	520	203	
9	0	0	0	0	520	203	
10	0	0	0	0	520	203	
11	0	0	0	0	521	203	
12	0	0	0	0	522	203	
13	0	0	0	0	523	203	
14	0	0	0	0	523	203	
15	0	0	0	0	523	203	
0	0	0	0	0	523	203	
1	0	0	0	0	523	203	
2	0	0	0	0	523	203	
3	0	0	0	0	522	203	
4	0	0	0	0	521	202	
5	0	0	0	0	520	202	
6	0	0	0	0	519	201	
7	0	0	0	0	519	201	
8	0	0	0	0	518	201	
9	0	0	0	0	517	201	
10	0	0	0	0	518	202	
11	0	0	0	0	517	201	
12	0	0	0	0	516	202	
13	0	0	0	0	515	202	
14	0	0	0	0	515	202	
15	0	0	0	0	514	202	
0	0	0	0	0	513	202	
1	0	0	0	0	512	202	
2	0	0	0	0	511	203	
3	0	0	0	0	510	203	
4	0	0	0	0	508	203	
5	0	0	0	0	507	203	
6	0	0	0	0	505	203	
7	0	0	0	0	504	203	
8	0	0	0	0	502	203	
9	0	0	0	0	502	203	
10	0	0	0	0	501	202	
11	0	0	0	0	500	203	
12	0	0	0	0	499	203	
13	0	0	0	0	498	202	
14	0	0	0	0	497	202	
15	0	0	0	0	495	202	
0	0	0	0	0	494	203	
1	0	0	0	0	494	203	
2	0	0	0	0	495	203	
3	0	0	0	0	495	203	
4	0	0	0	0	495	203	
5	0	0	0	0	496	203	
6	0	0	0	0	495	203	
7	0	0	0	0	496	203	
8	0	0	0	0	495	203	
9	0	0	0	0	495	202	
10	0	0	0	0	494	202	
11	0	0	0	0	493	202	
12	0	0	0	0	492	202	
13	0	0	0	0	492	203	
14	0	0	0	0	493	203	
15	0	0	0	0	496	203	
0	0	0	0	0	498	202	
1	0	0	0	0	500	202	
2	0	0	0	0	501	202	
3	0	0	0	0	502	202	
4	0	0	0	0	502	201	
5	0	0	0	0	501	201	
6	0	0	0	0	500	201	
7	0	0	0	0	500	201	
8	0	0	0	0	500	201	
9	0	0	0	0	502	202	
10	0	0	0	0	502	201	
11	0	0	0	0	503	201	
12	0	0	0	0	503	201	
13	0	0	0	0	503	201	
14	0	0	0	0	504	201	
15	0	0	0	0	503	201	
0	0	0	0	0	501	201	
1	0	0	0	0	500	202	
2	0	0	0	0	498	201	
3	0	0	0	0	497	201	
4	0	0	0	0	495	201	
5	0	0	0	0	494	201	
6	0	0	0	0	494	202	
7	0	0	0	0	496	202	
8	0	0	0	0	496	202	
9	0	0	0	0	496	202	
10	0	0	0	0	496	202	
11	0	0	0	0	496	202	
12	0	0	0	0	496	203	
13	0	0	0	0	496	202	
14	0	0	0	0	496	203	
15	0	0	0	0	497	203	
0	0	0	0	0	497	203	
1	0	0	0	0	496	203	
2	0	0	0	0	496	203	
3	0	0	0	0	498	203	
4	0	0	0	0	501	203	
5	0	0	0	0	506	202	
6	0	0	0	0	512	202	
7	0	0	0	0	520	202	
8	0	0	0	0	528	202	
9	0	0	0	0	536	202	
10	0	0	0	0	545	202	
11	0	0	0	0	554	202	
12	0	0	0	0	565	202	
13	0	0	0	0	577	202	
14	0	0	0	0	587	202	
15	0	0	0	0	595	202	
0	0	0	0	0	604	202	
1	0	0	0	0	611	202	
2	0	0	0	0	616	202	
3	0	0	0	0	620	202	
4	0	0	0	0	624	202	
5	0	0	0	0	627	202	
6	0	0	0	0	628	202	
7	0	0	0	0	627	202	
8	0	0	0	0	627	202	
9	0	0	0	0	627	202	
10	0	0	0	0	625	202	
11	0	0	0	0	623	202	
12	0	0	0	0	620	202	
13	0	0	0	0	615	202	
14	0	0	0	0	611	202	
15	0	0	0	0	605	201	
0	0	0	0	0	598	201	
1	0	0	0	0	591	201	
2	0	0	0	0	586	201	
3	0	0	0	0	579	201	
4	0	0	0	0	570	201	
5	0	0	0	0	560	201	
6	0	0	0	0	550	201	
7	0	0	0	0	541	201	
8	0	0	0	0	530	202	
9	0	0	0	0	518	201	
10	0	0	0	0	509	202	
11	0	0	0	0	499	202	
12	0	0	0	0	492	202	
13	0	0	0	0	485	202	
14	0	0	0	0	479	202	
15	0	0	0	0	474	202	
0	0	0	0	0	470	202	
1	0	0	0	0	465	202	
2	0	0	0	0	462	202	
3	0	0	0	0	457	202	
4	0	0	0	0	455	202	
5	0	0	0	0	454	202	
6	0	0	0	0	453	203	
7	0	0	0	0	454	203	
8	0	0	0	0	455	203	
9	0	0	0	0	457	203	
10	0	0	0	0	461	203	
11	0	0	0	0	464	202	
12	0	0	0	0	468	202	
13	0	0	0	0	471	202	
14	0	0	0	0	474	203	
15	0	0	0	0	476	203	
0	0	0	0	0	477	203	
1	0	0	0	0	479	203	
2	0	0	0	0	480	203	
3	0	0	0	0	481	203	
4	0	0	0	0	481	202	
5	0	0	0	0	481	202	
6	0	0	0	0	482	202	
7	0	0	0	0	483	202	
8	0	0	0	0	483	202	
9	0	0	0	0	483	202	
10	0	0	0	0	483	202	
11	0	0	0	0	483	201	
12	0	0	0	0	483	201	
13	0	0	0	0	483	202	
14	0	0	0	0	485	202	
15	0	0	0	0	486	201	
0	0	0	0	0	487	201	
1	0	0	0	0	487	201	
2	0	0	0	0	487	201	
3	0	0	0	0	486	201	
4	0	0	0	0	485	201	
5	0	0	0	0	485	202	
6	0	0	0	0	484	202	
7	0	0	0	0	483	202	
8	0	0	0	0	483	202	
9	0	0	0	0	483	202	
10	0	0	0	0	483	202	
11	0	0	0	0	484	202	
12	0	0	0	0	486	202	
13	0	0	0	0	487	202	
14	0	0	0	0	488	201	
15	0	0	0	0	490	201	
0	0	0	0	0	491	201	
1	0	0	0	0	490	202	
2	0	0	0	0	490	201	
3	0	0	0	0	490	202	
4	0	0	0	0	491	202	
5	0	0	0	0	492	202	
6	0	0	0	0	493	202	
7	0	0	0	0	492	202	
8	0	0	0	0	491	202	
9	0	0	0	0	491	202	
10	0	0	0	0	491	202	
11	0	0	0	0	491	202	
12	0	0	0	0	491	202	
13	0	0	0	0	491	202	
14	0	0	0	0	492	202	
15	0	0	0	0	492	202	
0	0	0	0	0	493	202	
1	0	0	0	0	494	202	
2	0	0	0	0	493	202	
3	0	0	0	0	494	202	
4	0	0	0	0	493	202	
5	0	0	0	0	495	202	
6	0	0	0	0	496	202	
7	0	0	0	0	497	202	
8	0	0	0	0	498	202	
9	0	0	0	0	497	202	
10	0	0	0	0	497	202	
11	0	0	0	0	496	202	
12	0	0	0	0	496	202	
13	0	0	0	0	497	202	
14	0	0	0	0	499	202	
15	0	0	0	0	501	202	
0	0	0	0	0	502	202	
1	0	0	0	0	503	202	
2	0	0	0	0	503	202	
3	0	0	0	0	502	202	
4	0	0	0	0	502	202	
5	0	0	0	0	499	202	
6	0	0	0	0	498	202	
7	0	0	0	0	499	202	
8	0	0	0	0	502	202	
9	0	0	0	0	504	202	
10	0	0	0	0	505	202	
11	0	0	0	0	507	202	
12	0	0	0	0	506	202	
13	0	0	0	0	506	202	
14	0	0	0	0	507	202	
15	0	0	0	0	508	202	
0	0	0	0	0	508	202	
1	0	0	0	0	508	202	
2	0	0	0	0	506	202	
3	0	0	0	0	505	202	
4	0	0	0	0	506	201	
5	0	0	0	0	507	201	
6	0	0	0	0	508	201	
7	0	0	0	0	510	201	
8	0	0	0	0	509	201	
9	0	0	0	0	508	201	
10	0	0	0	0	508	201	
11	0	0	0	0	509	201	
12	0	0	0	0	511	201	
13	0	0	0	0	511	201	
14	0	0	0	0	512	201	
15	0	0	0	0	513	201	
0	0	0	0	0	515	202	
1	0	0	0	0	515	201	
2	0	0	0	0	515	202	
3	0	0	0	0	516	202	
4	0	0	0	0	516	202	
5	0	0	0	0	515	202	
6	0	0	0	0	515	202	
7	0	0	0	0	515	202	
8	0	0	0	0	514	202	
9	0	0	0	0	514	202	
10	0	0	0	0	512	202	
11	0	0	0	0	512	202	
12	0	0	0	0	513	202	
13	0	0	0	0	513	202	
14	0	0	0	0	513	202	
15	0	0	0	0	515	202	
0	0	0	0	0	516	202	
1	0	0	0	0	517	202	
2	0	0	0	0	516	202	
3	0	0	0	0	515	202	
4	0	0	0	0	515	202	
5	0	0	0	0	515	202	
6	0	0	0	0	515	202	
7	0	0	0	0	513	202	
8	0	0	0	0	512	202	
9	0	0	0	0	512	202	
10	0	0	0	0	512	202	
11	0	0	0	0	512	202	
12	0	0	0	0	512	202	
13	0	0	0	0	511	202	
14	0	0	0	0	511	202	
15	0	0	0	0	511	202	
0	0	0	0	0	511	202	
1	0	0	0	0	510	202	
2	0	0	0	0	511	202	
3	0	0	0	0	512	202	
4	0	0	0	0	512	202	
5	0	0	0	0	513	202	
6	0	0	0	0	513	202	
7	0	0	0	0	514	202	
8	0	0	0	0	514	202	
9	0	0	0	0	513	202	
10	0	0	0	0	514	202	
11	0	0	0	0	515	202	
12	0	0	0	0	516	202	
13	0	0	0	0	517	202	
14	0	0	0	0	518	202	
15	0	0	0	0	519	202	
0	0	0	0	0	521	201	
1	0	0	0	0	524	201	
2	0	0	0	0	524	201	
3	0	0	0	0	524	201	
4	0	0	0	0	524	201	
5	0	0	0	0	523	201	
6	0	0	0	0	522	201	
7	0	0	0	0	521	201	
8	0	0	0	0	519	201	
9	0	0	0	0	519	202	
10	0	0	0	0	517	202	
11	0	0	0	0	517	202	
12	0	0	0	0	518	202	
13	0	0	0	0	518	202	
14	0	0	0	0	519	202	
15	0	0	0	0	520	202	
0	0	0	0	0	521	202	
1	0	0	0	0	522	202	
2	0	0	0	0	523	202	
3	0	0	0	0	524	202	
4	0	0	0	0	524	202	
5	0	0	0	0	525	202	
6	0	0	0	0	526	202	
7	0	0	0	0	526	201	
8	0	0	0	0	526	201	
9	0	0	0	0	526	201	
10	0	0	0	0	527	201	
11	0	0	0	0	527	201	
12	0	0	0	0	527	201	
13	0	0	0	0	528	201	
14	0	0	0	0	529	201	
15	0	0	0	0	529	201	
0	0	0	0	0	529	201	
1	0	0	0	0	529	201	
2	0	0	0	0	530	201	
3	0	0	0	0	530	201	
4	0	0	0	0	530	201	
5	0	0	0	0	531	201	
6	0	0	0	0	532	201	
7	0	0	0	0	532	201	
8	0	0	0	0	532	201	
9	0	0	0	0	531	201	
10	0	0	0	0	532	201	
11	0	0	0	0	532	201	
12	0	0	0	0	535	201	
13	0	0	0	0	536	201	
14	0	0	0	0	536	201	
15	0	0	0	0	536	201	
0	0	0	0	0	536	201	
1	0	0	0	0	537	201	
2	0	0	0	0	537	201	
3	0	0	0	0	539	201	
4	0	0	0	0	539	201	
5	0	0	0	0	539	201	
6	0	0	0	0	539	201	
7	0	0	0	0	539	201	
8	0	0	0	0	540	201	
9	0	0	0	0	540	201	
10	0	0	0	0	540	201	
11	0	0	0	0	542	201	
12	0	0	0	0	543	201	
13	0	0	0	0	544	201	
14	0	0	0	0	544	201	
15	0	0	0	0	544	201	
0	0	0	0	0	544	201	
1	0	0	0	0	545	201	
2	0	0	0	0	545	201	
3	0	0	0	0	544	201	
4	0	0	0	0	543	201	
5	0	0	0	0	543	201	
6	0	0	0	0	542	201	
7	0	0	0	0	542	201	
8	0	0	0	0	542	201	
9	0	0	0	0	540	201	
10	0	0	0	0	540	201	
11	0	0	0	0	540	201	
12	0	0	0	0	540	201	
13	0	0	0	0	540	201	
14	0	0	0	0	540	202	
15	0	0	0	0	541	202	
0	0	0	0	0	541	202	
1	0	0	0	0	540	202	
2	0	0	0	0	539	202	
3	0	0	0	0	539	201	
4	0	0	0	0	538	201	
5	0	0	0	0	536	201	
6	0	0	0	0	535	201	
7	0	0	0	0	534	201	
8	0	0	0	0	532	201	
9	0	0	0	0	532	201	
10	0	0	0	0	530	201	
11	0	0	0	0	528	201	
12	0	0	0	0	526	201	
13	0	0	0	0	524	201	
14	0	0	0	0	523	201	
15	0	0	0	0	521	201	
0	0	0	0	0	519	201	
1	0	0	0	0	517	202	
2	0	0	0	0	515	202	
3	0	0	0	0	513	202	
4	0	0	0	0	512	202	
5	0	0	0	0	511	202	
6	0	0	0	0	509	202	
7	0	0	0	0	508	202	
8	0	0	0	0	507	202	
9	0	0	0	0	505	202	
10	0	0	0	0	504	202	
11	0	0	0	0	503	202	
12	0	0	0	0	501	202	
13	0	0	0	0	500	202	
14	0	0	0	0	499	202	
15	0	0	0	0	499	201	
0	0	0	0	0	497	201	
1	0	0	0	0	495	201	
2	0	0	0	0	494	201	
3	0	0	0	0	493	201	
4	0	0	0	0	491	201	
5	0	0	0	0	488	202	
6	0	0	0	0	487	202	
7	0	0	0	0	486	201	
8	0	0	0	0	483	201	
9	0	0	0	0	482	201	
10	0	0	0	0	480	201	
11	0	0	0	0	479	201	
12	0	0	0	0	478	201	
13	0	0	0	0	477	202	
14	0	0	0	0	476	202	
15	0	0	0	0	475	202	
0	0	0	0	0	475	202	
1	0	0	0	0	474	202	
2	0	0	0	0	473	202	
3	0	0	0	0	472	202	
4	0	0	0	0	471	202	
5	0	0	0	0	471	202	
6	0	0	0	0	470	202	
7	0	0	0	0	470	201	
8	0	0	0	0	469	201	
9	0	0	0	0	467	201	
10	0	0	0	0	467	201	
11	0	0	0	0	468	202	
12	0	0	0	0	469	202	
13	0	0	0	0	469	201	
14	0	0	0	0	468	202	
15	0	0	0	0	468	202	
0	0	0	0	0	467	202	
1	0	0	0	0	466	202	
2	0	0	0	0	466	202	
3	0	0	0	0	465	202	
4	0	0	0	0	467	202	
5	0	0	0	0	468	202	
6	0	0	0	0	468	202	
7	0	0	0	0	468	202	
8	0	0	0	0	469	201	
9	0	0	0	0	469	201	
10	0	0	0	0	471	201	
11	0	0	0	0	472	201	
12	0	0	0	0	472	201	
13	0	0	0	0	472	201	
14	0	0	0	0	470	202	
15	0	0	0	0	469	202	
0	0	0	0	0	470	202	
1	0	0	0	0	471	202	
2	0	0	0	0	472	202	
3	0	0	0	0	471	202	
4	0	0	0	0	472	202	
5	0	0	0	0	472	202	
6	0	0	0	0	472	202	
7	0	0	0	0	472	202	
8	0	0	0	0	473	202	
9	0	0	0	0	475	202	
10	0	0	0	0	476	202	
11	0	0	0	0	477	201	
12	0	0	0	0	478	201	
13	0	0	0	0	478	201	
14	0	0	0	0	478	201	
15	0	0	0	0	478	201	
0	0	0	0	0	478	202	
1	0	0	0	0	477	202	
2	0	0	0	0	477	202	
3	0	0	0	0	478	202	
4	0	0	0	0	478	201	
5	0	0	0	0	478	201	
6	0	0	0	0	479	201	
7	0	0	0	0	480	201	
8	0	0	0	0	480	201	
9	0	0	0	0	479	201	
10	0	0	0	0	479	201	
11	0	0	0	0	479	201	
12	0	0	0	0	479	201	
13	0	0	0	0	480	201	
14	0	0	0	0	481	201	
15	0	0	0	0	483	201	
0	0	0	0	0	483	201	
1	0	0	0	0	485	201	
2	0	0	0	0	486	201	
3	0	0	0	0	486	201	
4	0	0	0	0	486	201	
5	0	0	0	0	486	201	
6	0	0	0	0	485	201	
7	0	0	0	0	486	201	
8	0	0	0	0	486	201	
9	0	0	0	0	486	201	
10	0	0	0	0	487	201	
11	0	0	0	0	488	201	
12	0	0	0	0	488	201	
13	0	0	0	0	488	201	
14	0	0	0	0	488	201	
15	0	0	0	0	488	201	
0	0	0	0	0	488	201	
1	0	0	0	0	487	201	
2	0	0	0	0	487	201	
3	0	0	0	0	488	201	
4	0	0	0	0	489	201	
5	0	0	0	0	489	201	
6	0	0	0	0	489	201	
7	0	0	0	0	489	202	
8	0	0	0	0	489	202	
9	0	0	0	0	489	202	
10	0	0	0	0	490	202	
11	0	0	0	0	491	202	
12	0	0	0	0	489	202	
13	0	0	0	0	488	202	
14	0	0	0	0	488	202	
15	0	0	0	0	490	202	
0	0	0	0	0	490	202	
1	0	0	0	0	491	202	
2	0	0	0	0	490	201	
3	0	0	0	0	490	201	
4	0	0	0	0	492	201	
5	0	0	0	0	493	201	
6	0	0	0	0	494	201	
7	0	0	0	0	495	201	
8	0	0	0	0	495	201	
9	0	0	0	0	494	201	
10	0	0	0	0	494	201	
11	0	0	0	0	492	201	
12	0	0	0	0	491	201	
13	0	0	0	0	491	201	
14	0	0	0	0	490	201	
15	0	0	0	0	491	201	
0	0	0	0	0	491	201	
1	0	0	0	0	491	201	
2	0	0	0	0	492	201	
3	0	0	0	0	494	202	
4	0	0	0	0	495	202	
5	0	0	0	0	497	202	
6	0	0	0	0	499	202	
7	0	0	0	0	500	202	
8	0	0	0	0	499	202	
9	0	0	0	0	501	202	
10	0	0	0	0	501	202	
11	0	0	0	0	502	201	
12	0	0	0	0	501	202	
13	0	0	0	0	501	202	
14	0	0	0	0	501	201	
15	0	0	0	0	502	201	
0	0	0	0	0	502	201	
1	0	0	0	0	502	201	
2	0	0	0	0	501	201	
3	0	0	0	0	500	201	
4	0	0	0	0	499	201	
5	0	0	0	0	500	201	
6	0	0	0	0	501	201	
7	0	0	0	0	503	202	
8	0	0	0	0	504	202	
9	0	0	0	0	504	202	
10	0	0	0	0	505	202	
11	0	0	0	0	507	202	
12	0	0	0	0	507	202	
13	0	0	0	0	508	202	
14	0	0	0	0	509	202	
15	0	0	0	0	508	202	
0	0	0	0	0	506	202	
1	0	0	0	0	505	201	
2	0	0	0	0	504	201	
3	0	0	0	0	503	201	
4	0	0	0	0	504	201	
5	0	0	0	0	504	201	
6	0	0	0	0	504	201	
7	0	0	0	0	505	201	
8	0	0	0	0	505	201	
9	0	0	0	0	505	201	
10	0	0	0	0	506	201	
11	0	0	0	0	506	201	
12	0	0	0	0	507	201	
13	0	0	0	0	506	201	
14	0	0	0	0	506	201	
15	0	0	0	0	507	201	
0	0	0	0	0	508	201	
1	0	0	0	0	509	202	
2	0	0	0	0	509	202	
3	0	0	0	0	508	202	
4	0	0	0	0	508	202	
5	0	0	0	0	508	202	
6	0	0	0	0	508	202	
7	0	0	0	0	507	202	
8	0	0	0	0	507	202	
9	0	0	0	0	508	202	
10	0	0	0	0	508	202	
11	0	0	0	0	508	202	
12	0	0	0	0	507	202	
13	0	0	0	0	507	202	
14	0	0	0	0	508	202	
15	0	0	0	0	508	202	
0	0	0	0	0	509	202	
1	0	0	0	0	508	202	
2	0	0	0	0	508	202	
3	0	0	0	0	508	201	
4	0	0	0	0	508	201	
5	0	0	0	0	508	201	
6	0	0	0	0	508	201	
7	0	0	0	0	509	201	
8	0	0	0	0	509	201	
9	0	0	0	0	509	201	
10	0	0	0	0	510	201	
11	0	0	0	0	510	201	
12	0	0	0	0	510	201	
13	0	0	0	0	508	201	
14	0	0	0	0	507	201	
15	0	0	0	0	507	201	
0	0	0	0	0	506	201	
1	0	0	0	0	507	201	
2	0	0	0	0	508	202	
3	0	0	0	0	508	202	
4	0	0	0	0	509	202	
5	0	0	0	0	509	201	
6	0	0	0	0	510	202	
7	0	0	0	0	511	202	
8	0	0	0	0	512	202	
9	0	0	0	0	513	202	
10	0	0	0	0	513	202	
11	0	0	0	0	513	202	
12	0	0	0	0	514	201	
13	0	0	0	0	514	201	
14	0	0	0	0	513	201	
15	0	0	0	0	513	201	
0	0	0	0	0	513	201	
1	0	0	0	0	512	201	
2	0	0	0	0	512	201	
3	0	0	0	0	512	201	
4	0	0	0	0	512	201	
5	0	0	0	0	513	201	
6	0	0	0	0	513	201	
7	0	0	0	0	513	201	
8	0	0	0	0	514	201	
9	0	0	0	0	514	201	
10	0	0	0	0	515	201	
11	0	0	0	0	514	201	
12	0	0	0	0	514	201	
13	0	0	0	0	514	202	
14	0	0	0	0	514	202	
15	0	0	0	0	514	202	
0	0	0	0	0	514	201	
1	0	0	0	0	514	202	
2	0	0	0	0	515	201	
3	0	0	0	0	513	201	
4	0	0	0	0	513	202	
5	0	0	0	0	513	201	
6	0	0	0	0	513	201	
7	0	0	0	0	513	202	
8	0	0	0	0	515	202	
9	0	0	0	0	515	202	
10	0	0	0	0	515	202	
11	0	0	0	0	514	202	
12	0	0	0	0	515	202	
13	0	0	0	0	515	201	
14	0	0	0	0	515	201	
15	0	0	0	0	516	201	
0	0	0	0	0	517	201	
1	0	0	0	0	518	202	
2	0	0	0	0	518	202	
3	0	0	0	0	519	202	
4	0	0	0	0	519	201	
5	0	0	0	0	519	201	
6	0	0	0	0	519	201	
7	0	0	0	0	519	201	
8	0	0	0	0	518	201	
9	0	0	0	0	518	201	
10	0	0	0	0	517	201	
11	0	0	0	0	516	201	
12	0	0	0	0	514	201	
13	0	0	0	0	514	201	
14	0	0	0	0	515	201	
15	0	0	0	0	515	201	
0	0	0	0	0	515	201	
1	0	0	0	0	516	201	
2	0	0	0	0	516	201	
3	0	0	0	0	516	201	
4	0	0	0	0	516	201	
5	0	0	0	0	515	201	
6	0	0	0	0	515	201	
7	0	0	0	0	516	202	
8	0	0	0	0	517	202	
9	0	0	0	0	517	201	
10	0	0	0	0	518	202	
11	0	0	0	0	518	201	
12	0	0	0	0	518	201	
13	0	0	0	0	518	201	
14	0	0	0	0	518	201	
15	0	0	0	0	518	202	
0	0	0	0	0	518	202	
1	0	0	0	0	516	202	
2	0	0	0	0	515	202	
