# OpenSignals Text File Format. Version 1
# {"98:D3:B1:FD:3D:90": {"position": 0, "device": "bitalino_rev", "device name": "98:D3:B1:FD:3D:90", "device connection": "BTH98:D3:B1:FD:3D:90", "sampling rate": 1000, "resolution": [4, 1, 1, 1, 1, 10, 10], "firmware version": 1281, "comments": "918pm", "keywords": "", "mode": 0, "sync interval": 2, "date": "2022-3-22", "time": "21:15:49.394", "channels": [2, 3], "sensor": ["ECGBIT", "EDABITREV"], "label": ["A2", "A3"], "column": ["nSeq", "I1", "I2", "O1", "O2", "A2", "A3"], "special": [{}, {}], "digital IO": [0, 0, 1, 1]}}
# EndOfHeader
0	0	0	0	0	469	245	
1	0	0	0	0	469	244	
2	0	0	0	0	469	245	
3	0	0	0	0	468	244	
4	0	0	0	0	465	245	
5	0	0	0	0	462	245	
6	0	0	0	0	458	245	
7	0	0	0	0	455	244	
8	0	0	0	0	451	245	
9	0	0	0	0	449	244	
10	0	0	0	0	447	245	
11	0	0	0	0	446	244	
12	0	0	0	0	446	245	
13	0	0	0	0	446	244	
14	0	0	0	0	444	245	
15	0	0	0	0	445	244	
0	0	0	0	0	445	245	
1	0	0	0	0	445	244	
2	0	0	0	0	446	245	
3	0	0	0	0	445	244	
4	0	0	0	0	445	245	
5	0	0	0	0	445	245	
6	0	0	0	0	447	245	
7	0	0	0	0	450	244	
8	0	0	0	0	455	245	
9	0	0	0	0	461	245	
10	0	0	0	0	467	245	
11	0	0	0	0	476	245	
12	0	0	0	0	487	244	
13	0	0	0	0	500	245	
14	0	0	0	0	514	244	
15	0	0	0	0	527	245	
0	0	0	0	0	539	244	
1	0	0	0	0	547	245	
2	0	0	0	0	554	245	
3	0	0	0	0	559	244	
4	0	0	0	0	563	245	
5	0	0	0	0	566	244	
6	0	0	0	0	566	244	
7	0	0	0	0	565	244	
8	0	0	0	0	562	244	
9	0	0	0	0	560	244	
10	0	0	0	0	557	245	
11	0	0	0	0	556	244	
12	0	0	0	0	554	245	
13	0	0	0	0	551	244	
14	0	0	0	0	547	245	
15	0	0	0	0	543	244	
0	0	0	0	0	540	244	
1	0	0	0	0	536	245	
2	0	0	0	0	531	245	
3	0	0	0	0	526	245	
4	0	0	0	0	519	244	
5	0	0	0	0	511	245	
6	0	0	0	0	501	244	
7	0	0	0	0	490	245	
8	0	0	0	0	477	244	
9	0	0	0	0	463	245	
10	0	0	0	0	450	244	
11	0	0	0	0	438	245	
12	0	0	0	0	428	244	
13	0	0	0	0	420	245	
14	0	0	0	0	415	245	
15	0	0	0	0	410	245	
0	0	0	0	0	407	244	
1	0	0	0	0	404	245	
2	0	0	0	0	402	244	
3	0	0	0	0	400	245	
4	0	0	0	0	399	244	
5	0	0	0	0	398	245	
6	0	0	0	0	395	245	
7	0	0	0	0	392	245	
8	0	0	0	0	389	245	
9	0	0	0	0	387	244	
10	0	0	0	0	387	245	
11	0	0	0	0	387	244	
12	0	0	0	0	390	245	
13	0	0	0	0	393	245	
14	0	0	0	0	396	245	
15	0	0	0	0	400	245	
0	0	0	0	0	404	245	
1	0	0	0	0	408	245	
2	0	0	0	0	412	245	
3	0	0	0	0	415	244	
4	0	0	0	0	418	245	
5	0	0	0	0	420	244	
6	0	0	0	0	420	244	
7	0	0	0	0	420	244	
8	0	0	0	0	419	245	
9	0	0	0	0	419	245	
10	0	0	0	0	418	245	
11	0	0	0	0	418	245	
12	0	0	0	0	416	245	
13	0	0	0	0	415	245	
14	0	0	0	0	415	245	
15	0	0	0	0	416	245	
0	0	0	0	0	419	244	
1	0	0	0	0	422	245	
2	0	0	0	0	424	244	
3	0	0	0	0	426	245	
4	0	0	0	0	428	244	
5	0	0	0	0	430	245	
6	0	0	0	0	432	244	
7	0	0	0	0	433	244	
8	0	0	0	0	433	244	
9	0	0	0	0	432	245	
10	0	0	0	0	432	245	
11	0	0	0	0	433	244	
12	0	0	0	0	433	244	
13	0	0	0	0	434	245	
14	0	0	0	0	435	244	
15	0	0	0	0	437	245	
0	0	0	0	0	441	244	
1	0	0	0	0	444	244	
2	0	0	0	0	447	244	
3	0	0	0	0	449	244	
4	0	0	0	0	453	245	
5	0	0	0	0	455	244	
6	0	0	0	0	456	244	
7	0	0	0	0	458	245	
8	0	0	0	0	459	244	
9	0	0	0	0	460	244	
10	0	0	0	0	459	244	
11	0	0	0	0	458	245	
12	0	0	0	0	456	244	
13	0	0	0	0	454	245	
14	0	0	0	0	451	244	
15	0	0	0	0	449	244	
0	0	0	0	0	448	244	
1	0	0	0	0	449	245	
2	0	0	0	0	451	244	
3	0	0	0	0	451	245	
4	0	0	0	0	453	244	
5	0	0	0	0	455	245	
6	0	0	0	0	456	244	
7	0	0	0	0	457	245	
8	0	0	0	0	457	244	
9	0	0	0	0	457	244	
10	0	0	0	0	456	244	
11	0	0	0	0	455	245	
12	0	0	0	0	452	244	
13	0	0	0	0	450	244	
14	0	0	0	0	448	244	
15	0	0	0	0	446	245	
0	0	0	0	0	446	244	
1	0	0	0	0	448	244	
2	0	0	0	0	451	244	
3	0	0	0	0	454	245	
4	0	0	0	0	457	245	
5	0	0	0	0	461	244	
6	0	0	0	0	465	245	
7	0	0	0	0	468	244	
8	0	0	0	0	469	245	
9	0	0	0	0	469	244	
10	0	0	0	0	469	244	
11	0	0	0	0	468	244	
12	0	0	0	0	467	245	
13	0	0	0	0	468	244	
14	0	0	0	0	469	244	
15	0	0	0	0	470	244	
0	0	0	0	0	472	245	
1	0	0	0	0	476	244	
2	0	0	0	0	479	244	
3	0	0	0	0	482	244	
4	0	0	0	0	484	245	
5	0	0	0	0	488	245	
6	0	0	0	0	491	245	
7	0	0	0	0	492	245	
8	0	0	0	0	494	244	
9	0	0	0	0	496	245	
10	0	0	0	0	496	244	
11	0	0	0	0	495	245	
12	0	0	0	0	491	244	
13	0	0	0	0	488	244	
14	0	0	0	0	486	244	
15	0	0	0	0	484	244	
0	0	0	0	0	483	244	
1	0	0	0	0	483	245	
2	0	0	0	0	483	244	
3	0	0	0	0	484	244	
4	0	0	0	0	486	244	
5	0	0	0	0	489	245	
6	0	0	0	0	492	244	
7	0	0	0	0	492	244	
8	0	0	0	0	494	244	
9	0	0	0	0	495	245	
10	0	0	0	0	495	244	
11	0	0	0	0	496	244	
12	0	0	0	0	495	244	
13	0	0	0	0	494	244	
14	0	0	0	0	494	244	
15	0	0	0	0	495	245	
0	0	0	0	0	494	244	
1	0	0	0	0	494	244	
2	0	0	0	0	495	244	
3	0	0	0	0	496	245	
4	0	0	0	0	496	244	
5	0	0	0	0	498	244	
6	0	0	0	0	500	244	
7	0	0	0	0	501	245	
8	0	0	0	0	503	244	
9	0	0	0	0	505	245	
10	0	0	0	0	506	244	
11	0	0	0	0	506	245	
12	0	0	0	0	506	244	
13	0	0	0	0	505	245	
14	0	0	0	0	504	245	
15	0	0	0	0	502	244	
0	0	0	0	0	500	244	
1	0	0	0	0	500	245	
2	0	0	0	0	500	244	
3	0	0	0	0	500	244	
4	0	0	0	0	502	244	
5	0	0	0	0	504	244	
6	0	0	0	0	508	244	
7	0	0	0	0	512	244	
8	0	0	0	0	515	244	
9	0	0	0	0	519	244	
10	0	0	0	0	521	244	
11	0	0	0	0	523	244	
12	0	0	0	0	522	244	
13	0	0	0	0	522	245	
14	0	0	0	0	520	244	
15	0	0	0	0	518	244	
0	0	0	0	0	517	244	
1	0	0	0	0	515	244	
2	0	0	0	0	514	245	
3	0	0	0	0	513	244	
4	0	0	0	0	514	244	
5	0	0	0	0	515	244	
6	0	0	0	0	515	244	
7	0	0	0	0	517	244	
8	0	0	0	0	518	244	
9	0	0	0	0	520	244	
10	0	0	0	0	523	244	
11	0	0	0	0	525	244	
12	0	0	0	0	526	244	
13	0	0	0	0	524	245	
14	0	0	0	0	521	244	
15	0	0	0	0	519	245	
0	0	0	0	0	515	244	
1	0	0	0	0	514	244	
2	0	0	0	0	513	244	
3	0	0	0	0	512	244	
4	0	0	0	0	512	244	
5	0	0	0	0	512	244	
6	0	0	0	0	513	244	
7	0	0	0	0	516	244	
8	0	0	0	0	517	244	
9	0	0	0	0	519	244	
10	0	0	0	0	519	244	
11	0	0	0	0	519	244	
12	0	0	0	0	519	244	
13	0	0	0	0	518	244	
14	0	0	0	0	516	244	
15	0	0	0	0	514	244	
0	0	0	0	0	512	244	
1	0	0	0	0	510	244	
2	0	0	0	0	508	244	
3	0	0	0	0	506	244	
4	0	0	0	0	505	244	
5	0	0	0	0	505	244	
6	0	0	0	0	505	244	
7	0	0	0	0	506	244	
8	0	0	0	0	506	244	
9	0	0	0	0	507	244	
10	0	0	0	0	508	244	
11	0	0	0	0	508	244	
12	0	0	0	0	508	244	
13	0	0	0	0	508	244	
14	0	0	0	0	508	244	
15	0	0	0	0	507	244	
0	0	0	0	0	507	245	
1	0	0	0	0	507	244	
2	0	0	0	0	507	244	
3	0	0	0	0	508	245	
4	0	0	0	0	508	244	
5	0	0	0	0	510	245	
6	0	0	0	0	512	244	
7	0	0	0	0	513	245	
8	0	0	0	0	516	244	
9	0	0	0	0	519	245	
10	0	0	0	0	522	244	
11	0	0	0	0	525	245	
12	0	0	0	0	526	244	
13	0	0	0	0	528	244	
14	0	0	0	0	528	244	
15	0	0	0	0	527	244	
0	0	0	0	0	526	244	
1	0	0	0	0	525	244	
2	0	0	0	0	524	244	
3	0	0	0	0	521	245	
4	0	0	0	0	519	244	
5	0	0	0	0	518	244	
6	0	0	0	0	519	245	
7	0	0	0	0	519	244	
8	0	0	0	0	520	245	
9	0	0	0	0	521	244	
10	0	0	0	0	523	244	
11	0	0	0	0	524	244	
12	0	0	0	0	525	244	
13	0	0	0	0	526	244	
14	0	0	0	0	525	244	
15	0	0	0	0	523	244	
0	0	0	0	0	521	245	
1	0	0	0	0	520	244	
2	0	0	0	0	518	244	
3	0	0	0	0	515	245	
4	0	0	0	0	512	244	
5	0	0	0	0	511	244	
6	0	0	0	0	509	244	
7	0	0	0	0	508	244	
8	0	0	0	0	507	244	
9	0	0	0	0	507	244	
10	0	0	0	0	507	244	
11	0	0	0	0	507	244	
12	0	0	0	0	506	244	
13	0	0	0	0	504	244	
14	0	0	0	0	502	244	
15	0	0	0	0	499	245	
0	0	0	0	0	496	245	
1	0	0	0	0	492	244	
2	0	0	0	0	489	244	
3	0	0	0	0	485	244	
4	0	0	0	0	482	244	
5	0	0	0	0	480	244	
6	0	0	0	0	478	244	
7	0	0	0	0	474	244	
8	0	0	0	0	472	244	
9	0	0	0	0	471	245	
10	0	0	0	0	470	244	
11	0	0	0	0	470	245	
12	0	0	0	0	470	244	
13	0	0	0	0	470	244	
14	0	0	0	0	469	244	
15	0	0	0	0	468	244	
0	0	0	0	0	467	244	
1	0	0	0	0	464	244	
2	0	0	0	0	461	244	
3	0	0	0	0	457	244	
4	0	0	0	0	454	244	
5	0	0	0	0	451	244	
6	0	0	0	0	449	244	
7	0	0	0	0	447	244	
8	0	0	0	0	447	244	
9	0	0	0	0	447	244	
10	0	0	0	0	447	244	
11	0	0	0	0	447	244	
12	0	0	0	0	447	244	
13	0	0	0	0	447	244	
14	0	0	0	0	447	244	
15	0	0	0	0	446	244	
0	0	0	0	0	446	244	
1	0	0	0	0	445	244	
2	0	0	0	0	443	244	
3	0	0	0	0	440	244	
4	0	0	0	0	438	244	
5	0	0	0	0	435	244	
6	0	0	0	0	433	245	
7	0	0	0	0	431	244	
8	0	0	0	0	428	244	
9	0	0	0	0	425	244	
10	0	0	0	0	423	244	
11	0	0	0	0	422	244	
12	0	0	0	0	422	244	
13	0	0	0	0	420	244	
14	0	0	0	0	420	244	
15	0	0	0	0	420	244	
0	0	0	0	0	420	244	
1	0	0	0	0	419	244	
2	0	0	0	0	417	244	
3	0	0	0	0	415	244	
4	0	0	0	0	411	244	
5	0	0	0	0	407	244	
6	0	0	0	0	404	244	
7	0	0	0	0	400	244	
8	0	0	0	0	398	244	
9	0	0	0	0	396	244	
10	0	0	0	0	396	244	
11	0	0	0	0	396	244	
12	0	0	0	0	395	244	
13	0	0	0	0	397	244	
14	0	0	0	0	399	244	
15	0	0	0	0	401	244	
0	0	0	0	0	402	244	
1	0	0	0	0	405	244	
2	0	0	0	0	404	244	
3	0	0	0	0	404	244	
4	0	0	0	0	403	244	
5	0	0	0	0	401	244	
6	0	0	0	0	399	244	
7	0	0	0	0	398	244	
8	0	0	0	0	398	244	
9	0	0	0	0	396	244	
10	0	0	0	0	397	244	
11	0	0	0	0	398	244	
12	0	0	0	0	400	244	
13	0	0	0	0	403	244	
14	0	0	0	0	407	244	
15	0	0	0	0	409	244	
0	0	0	0	0	412	244	
1	0	0	0	0	414	244	
2	0	0	0	0	415	244	
3	0	0	0	0	415	244	
4	0	0	0	0	414	244	
5	0	0	0	0	413	244	
6	0	0	0	0	412	244	
7	0	0	0	0	412	244	
8	0	0	0	0	412	244	
9	0	0	0	0	414	244	
10	0	0	0	0	416	244	
11	0	0	0	0	419	244	
12	0	0	0	0	422	244	
13	0	0	0	0	427	244	
14	0	0	0	0	430	244	
15	0	0	0	0	434	244	
0	0	0	0	0	438	244	
1	0	0	0	0	441	244	
2	0	0	0	0	444	244	
3	0	0	0	0	446	244	
4	0	0	0	0	447	244	
5	0	0	0	0	448	244	
6	0	0	0	0	447	244	
7	0	0	0	0	445	244	
8	0	0	0	0	443	244	
9	0	0	0	0	442	244	
10	0	0	0	0	442	244	
11	0	0	0	0	442	244	
12	0	0	0	0	442	244	
13	0	0	0	0	442	244	
14	0	0	0	0	442	244	
15	0	0	0	0	443	244	
0	0	0	0	0	444	244	
1	0	0	0	0	444	244	
2	0	0	0	0	444	244	
3	0	0	0	0	443	244	
4	0	0	0	0	442	244	
5	0	0	0	0	443	244	
6	0	0	0	0	441	244	
7	0	0	0	0	440	244	
8	0	0	0	0	439	244	
9	0	0	0	0	437	244	
10	0	0	0	0	436	244	
11	0	0	0	0	435	244	
12	0	0	0	0	435	244	
13	0	0	0	0	438	244	
14	0	0	0	0	441	244	
15	0	0	0	0	445	244	
0	0	0	0	0	448	244	
1	0	0	0	0	451	244	
2	0	0	0	0	455	244	
3	0	0	0	0	459	244	
4	0	0	0	0	461	244	
5	0	0	0	0	463	244	
6	0	0	0	0	465	244	
7	0	0	0	0	464	244	
8	0	0	0	0	463	244	
9	0	0	0	0	463	244	
10	0	0	0	0	462	244	
11	0	0	0	0	462	244	
12	0	0	0	0	462	244	
13	0	0	0	0	462	244	
14	0	0	0	0	462	244	
15	0	0	0	0	462	244	
0	0	0	0	0	462	244	
1	0	0	0	0	462	244	
2	0	0	0	0	463	244	
3	0	0	0	0	463	244	
4	0	0	0	0	463	244	
5	0	0	0	0	464	244	
6	0	0	0	0	463	244	
7	0	0	0	0	463	244	
8	0	0	0	0	464	244	
9	0	0	0	0	465	244	
10	0	0	0	0	467	244	
11	0	0	0	0	467	244	
12	0	0	0	0	469	244	
13	0	0	0	0	471	244	
14	0	0	0	0	473	244	
15	0	0	0	0	476	244	
0	0	0	0	0	479	244	
1	0	0	0	0	483	244	
2	0	0	0	0	486	244	
3	0	0	0	0	489	244	
4	0	0	0	0	492	244	
5	0	0	0	0	494	244	
6	0	0	0	0	494	244	
7	0	0	0	0	494	244	
8	0	0	0	0	494	244	
9	0	0	0	0	493	244	
10	0	0	0	0	493	244	
11	0	0	0	0	492	244	
12	0	0	0	0	491	244	
13	0	0	0	0	491	244	
14	0	0	0	0	490	244	
15	0	0	0	0	489	244	
0	0	0	0	0	490	243	
1	0	0	0	0	490	244	
2	0	0	0	0	491	244	
3	0	0	0	0	492	244	
4	0	0	0	0	495	244	
5	0	0	0	0	496	244	
6	0	0	0	0	496	244	
7	0	0	0	0	497	244	
8	0	0	0	0	497	244	
9	0	0	0	0	495	244	
10	0	0	0	0	492	244	
11	0	0	0	0	490	244	
12	0	0	0	0	489	244	
13	0	0	0	0	489	244	
14	0	0	0	0	489	244	
15	0	0	0	0	489	244	
0	0	0	0	0	488	244	
1	0	0	0	0	489	244	
2	0	0	0	0	490	244	
3	0	0	0	0	491	244	
4	0	0	0	0	491	244	
5	0	0	0	0	492	244	
6	0	0	0	0	492	244	
7	0	0	0	0	491	244	
8	0	0	0	0	488	244	
9	0	0	0	0	485	244	
10	0	0	0	0	483	244	
11	0	0	0	0	480	244	
12	0	0	0	0	479	244	
13	0	0	0	0	479	244	
14	0	0	0	0	479	244	
15	0	0	0	0	480	244	
0	0	0	0	0	483	244	
1	0	0	0	0	484	244	
2	0	0	0	0	486	244	
3	0	0	0	0	487	244	
4	0	0	0	0	488	244	
5	0	0	0	0	489	244	
6	0	0	0	0	490	243	
7	0	0	0	0	489	244	
8	0	0	0	0	488	244	
9	0	0	0	0	487	244	
10	0	0	0	0	485	244	
11	0	0	0	0	483	244	
12	0	0	0	0	481	244	
13	0	0	0	0	479	244	
14	0	0	0	0	477	244	
15	0	0	0	0	475	243	
0	0	0	0	0	474	244	
1	0	0	0	0	475	244	
2	0	0	0	0	477	244	
3	0	0	0	0	479	244	
4	0	0	0	0	481	244	
5	0	0	0	0	483	244	
6	0	0	0	0	485	244	
7	0	0	0	0	486	244	
8	0	0	0	0	485	244	
9	0	0	0	0	484	244	
10	0	0	0	0	482	244	
11	0	0	0	0	480	244	
12	0	0	0	0	478	244	
13	0	0	0	0	476	244	
14	0	0	0	0	473	244	
15	0	0	0	0	473	244	
0	0	0	0	0	472	244	
1	0	0	0	0	472	244	
2	0	0	0	0	473	244	
3	0	0	0	0	475	243	
4	0	0	0	0	477	244	
5	0	0	0	0	478	244	
6	0	0	0	0	481	244	
7	0	0	0	0	483	244	
8	0	0	0	0	485	244	
9	0	0	0	0	485	244	
10	0	0	0	0	484	244	
11	0	0	0	0	483	244	
12	0	0	0	0	481	244	
13	0	0	0	0	480	244	
14	0	0	0	0	478	244	
15	0	0	0	0	478	244	
0	0	0	0	0	477	244	
1	0	0	0	0	476	244	
2	0	0	0	0	477	244	
3	0	0	0	0	476	244	
4	0	0	0	0	476	244	
5	0	0	0	0	476	244	
6	0	0	0	0	477	244	
7	0	0	0	0	476	244	
8	0	0	0	0	473	244	
9	0	0	0	0	469	244	
10	0	0	0	0	466	243	
11	0	0	0	0	463	244	
12	0	0	0	0	459	243	
13	0	0	0	0	455	244	
14	0	0	0	0	451	243	
15	0	0	0	0	448	244	
0	0	0	0	0	445	244	
1	0	0	0	0	443	244	
2	0	0	0	0	441	244	
3	0	0	0	0	441	244	
4	0	0	0	0	442	244	
5	0	0	0	0	444	244	
6	0	0	0	0	444	244	
7	0	0	0	0	446	244	
8	0	0	0	0	448	244	
9	0	0	0	0	448	244	
10	0	0	0	0	449	244	
11	0	0	0	0	448	244	
12	0	0	0	0	446	244	
13	0	0	0	0	444	244	
14	0	0	0	0	441	244	
15	0	0	0	0	439	244	
0	0	0	0	0	436	244	
1	0	0	0	0	435	244	
2	0	0	0	0	435	244	
3	0	0	0	0	436	244	
4	0	0	0	0	439	244	
5	0	0	0	0	442	244	
6	0	0	0	0	445	244	
7	0	0	0	0	448	244	
8	0	0	0	0	450	244	
9	0	0	0	0	452	244	
10	0	0	0	0	454	244	
11	0	0	0	0	455	244	
12	0	0	0	0	455	244	
13	0	0	0	0	454	244	
14	0	0	0	0	453	244	
15	0	0	0	0	451	244	
0	0	0	0	0	451	244	
1	0	0	0	0	449	244	
2	0	0	0	0	447	244	
3	0	0	0	0	447	244	
4	0	0	0	0	448	244	
5	0	0	0	0	449	244	
6	0	0	0	0	450	244	
7	0	0	0	0	451	244	
8	0	0	0	0	452	244	
9	0	0	0	0	453	243	
10	0	0	0	0	454	244	
11	0	0	0	0	454	243	
12	0	0	0	0	455	244	
13	0	0	0	0	454	243	
14	0	0	0	0	453	244	
15	0	0	0	0	452	244	
0	0	0	0	0	451	244	
1	0	0	0	0	449	244	
2	0	0	0	0	448	244	
3	0	0	0	0	447	244	
4	0	0	0	0	448	244	
5	0	0	0	0	449	244	
6	0	0	0	0	450	244	
7	0	0	0	0	452	244	
8	0	0	0	0	453	244	
9	0	0	0	0	455	244	
10	0	0	0	0	455	243	
11	0	0	0	0	457	244	
12	0	0	0	0	456	243	
13	0	0	0	0	455	244	
14	0	0	0	0	455	243	
15	0	0	0	0	453	244	
0	0	0	0	0	452	243	
1	0	0	0	0	451	244	
2	0	0	0	0	450	244	
3	0	0	0	0	450	244	
4	0	0	0	0	450	244	
5	0	0	0	0	451	244	
6	0	0	0	0	452	244	
7	0	0	0	0	455	244	
8	0	0	0	0	459	244	
9	0	0	0	0	462	244	
10	0	0	0	0	465	244	
11	0	0	0	0	467	244	
12	0	0	0	0	468	243	
13	0	0	0	0	469	244	
14	0	0	0	0	468	243	
15	0	0	0	0	467	244	
0	0	0	0	0	467	244	
1	0	0	0	0	467	244	
2	0	0	0	0	467	244	
3	0	0	0	0	467	244	
4	0	0	0	0	467	244	
5	0	0	0	0	467	243	
6	0	0	0	0	467	244	
7	0	0	0	0	469	244	
8	0	0	0	0	472	244	
9	0	0	0	0	475	243	
10	0	0	0	0	478	244	
11	0	0	0	0	480	243	
12	0	0	0	0	483	244	
13	0	0	0	0	485	244	
14	0	0	0	0	486	244	
15	0	0	0	0	486	244	
0	0	0	0	0	486	244	
1	0	0	0	0	485	244	
2	0	0	0	0	485	244	
3	0	0	0	0	485	243	
4	0	0	0	0	485	244	
5	0	0	0	0	486	243	
6	0	0	0	0	487	244	
7	0	0	0	0	488	244	
8	0	0	0	0	491	244	
9	0	0	0	0	493	244	
10	0	0	0	0	495	243	
11	0	0	0	0	497	244	
12	0	0	0	0	499	243	
13	0	0	0	0	499	244	
14	0	0	0	0	499	244	
15	0	0	0	0	498	244	
0	0	0	0	0	497	244	
1	0	0	0	0	496	244	
2	0	0	0	0	496	244	
3	0	0	0	0	496	244	
4	0	0	0	0	496	244	
5	0	0	0	0	496	244	
6	0	0	0	0	497	244	
7	0	0	0	0	499	243	
8	0	0	0	0	500	244	
9	0	0	0	0	504	243	
10	0	0	0	0	508	244	
11	0	0	0	0	512	243	
12	0	0	0	0	514	244	
13	0	0	0	0	517	244	
14	0	0	0	0	519	243	
15	0	0	0	0	521	244	
0	0	0	0	0	523	243	
1	0	0	0	0	523	244	
2	0	0	0	0	523	243	
3	0	0	0	0	522	244	
4	0	0	0	0	521	244	
5	0	0	0	0	520	244	
6	0	0	0	0	519	244	
7	0	0	0	0	519	244	
8	0	0	0	0	522	244	
9	0	0	0	0	526	243	
10	0	0	0	0	530	244	
11	0	0	0	0	533	243	
12	0	0	0	0	537	244	
13	0	0	0	0	540	243	
14	0	0	0	0	542	244	
15	0	0	0	0	543	243	
0	0	0	0	0	544	244	
1	0	0	0	0	544	244	
2	0	0	0	0	543	244	
3	0	0	0	0	541	243	
4	0	0	0	0	539	244	
5	0	0	0	0	537	244	
6	0	0	0	0	536	244	
7	0	0	0	0	534	244	
8	0	0	0	0	534	243	
9	0	0	0	0	535	244	
10	0	0	0	0	535	243	
11	0	0	0	0	537	244	
12	0	0	0	0	538	243	
13	0	0	0	0	540	244	
14	0	0	0	0	539	243	
15	0	0	0	0	539	244	
0	0	0	0	0	538	244	
1	0	0	0	0	537	244	
2	0	0	0	0	536	243	
3	0	0	0	0	534	244	
4	0	0	0	0	534	244	
5	0	0	0	0	533	243	
6	0	0	0	0	533	244	
7	0	0	0	0	532	243	
8	0	0	0	0	533	244	
9	0	0	0	0	535	243	
10	0	0	0	0	536	244	
11	0	0	0	0	538	243	
12	0	0	0	0	540	244	
13	0	0	0	0	541	243	
14	0	0	0	0	540	244	
15	0	0	0	0	540	244	
0	0	0	0	0	540	244	
1	0	0	0	0	537	244	
2	0	0	0	0	535	244	
3	0	0	0	0	533	243	
4	0	0	0	0	531	244	
5	0	0	0	0	529	243	
6	0	0	0	0	527	244	
7	0	0	0	0	525	244	
8	0	0	0	0	525	243	
9	0	0	0	0	526	244	
10	0	0	0	0	527	243	
11	0	0	0	0	528	244	
12	0	0	0	0	530	243	
13	0	0	0	0	531	244	
14	0	0	0	0	533	243	
15	0	0	0	0	535	244	
0	0	0	0	0	535	243	
1	0	0	0	0	536	244	
2	0	0	0	0	536	243	
3	0	0	0	0	536	244	
4	0	0	0	0	535	244	
5	0	0	0	0	535	243	
6	0	0	0	0	534	244	
7	0	0	0	0	532	243	
8	0	0	0	0	531	244	
9	0	0	0	0	529	243	
10	0	0	0	0	529	244	
11	0	0	0	0	528	243	
12	0	0	0	0	529	244	
13	0	0	0	0	530	243	
14	0	0	0	0	531	244	
15	0	0	0	0	532	243	
0	0	0	0	0	532	244	
1	0	0	0	0	533	244	
2	0	0	0	0	533	243	
3	0	0	0	0	533	244	
4	0	0	0	0	535	243	
5	0	0	0	0	534	243	
6	0	0	0	0	532	243	
7	0	0	0	0	532	243	
8	0	0	0	0	533	243	
9	0	0	0	0	533	244	
10	0	0	0	0	534	243	
11	0	0	0	0	535	244	
12	0	0	0	0	535	244	
13	0	0	0	0	537	243	
14	0	0	0	0	539	244	
15	0	0	0	0	540	243	
0	0	0	0	0	540	244	
1	0	0	0	0	540	243	
2	0	0	0	0	539	244	
3	0	0	0	0	536	243	
4	0	0	0	0	532	244	
5	0	0	0	0	526	244	
6	0	0	0	0	521	243	
7	0	0	0	0	515	243	
8	0	0	0	0	510	243	
9	0	0	0	0	506	244	
10	0	0	0	0	502	244	
11	0	0	0	0	499	244	
12	0	0	0	0	498	243	
13	0	0	0	0	497	244	
14	0	0	0	0	497	244	
15	0	0	0	0	497	244	
0	0	0	0	0	496	243	
1	0	0	0	0	494	244	
2	0	0	0	0	492	244	
3	0	0	0	0	489	243	
4	0	0	0	0	486	244	
5	0	0	0	0	483	243	
6	0	0	0	0	479	244	
7	0	0	0	0	475	243	
8	0	0	0	0	472	243	
9	0	0	0	0	469	243	
10	0	0	0	0	467	244	
11	0	0	0	0	463	243	
12	0	0	0	0	460	244	
13	0	0	0	0	458	243	
14	0	0	0	0	456	244	
15	0	0	0	0	457	243	
0	0	0	0	0	457	244	
1	0	0	0	0	458	243	
2	0	0	0	0	458	244	
3	0	0	0	0	457	243	
4	0	0	0	0	456	244	
5	0	0	0	0	454	244	
6	0	0	0	0	451	243	
7	0	0	0	0	448	244	
8	0	0	0	0	444	243	
9	0	0	0	0	441	244	
10	0	0	0	0	438	243	
11	0	0	0	0	435	244	
12	0	0	0	0	433	243	
13	0	0	0	0	432	244	
14	0	0	0	0	431	243	
15	0	0	0	0	431	243	
0	0	0	0	0	432	243	
1	0	0	0	0	432	244	
2	0	0	0	0	432	244	
3	0	0	0	0	432	244	
4	0	0	0	0	432	244	
5	0	0	0	0	432	243	
6	0	0	0	0	430	244	
7	0	0	0	0	428	244	
8	0	0	0	0	426	244	
9	0	0	0	0	425	243	
10	0	0	0	0	424	243	
11	0	0	0	0	423	244	
12	0	0	0	0	422	243	
13	0	0	0	0	421	243	
14	0	0	0	0	420	243	
15	0	0	0	0	420	244	
0	0	0	0	0	422	244	
1	0	0	0	0	423	244	
2	0	0	0	0	425	244	
3	0	0	0	0	427	243	
4	0	0	0	0	429	244	
5	0	0	0	0	430	243	
6	0	0	0	0	431	244	
7	0	0	0	0	432	243	
8	0	0	0	0	432	244	
9	0	0	0	0	433	243	
10	0	0	0	0	434	244	
11	0	0	0	0	435	243	
12	0	0	0	0	436	244	
13	0	0	0	0	438	243	
14	0	0	0	0	439	244	
15	0	0	0	0	440	243	
0	0	0	0	0	443	244	
1	0	0	0	0	445	244	
2	0	0	0	0	448	244	
3	0	0	0	0	451	244	
4	0	0	0	0	452	243	
5	0	0	0	0	455	244	
6	0	0	0	0	455	243	
7	0	0	0	0	454	243	
8	0	0	0	0	454	243	
9	0	0	0	0	452	244	
10	0	0	0	0	451	244	
11	0	0	0	0	449	244	
12	0	0	0	0	448	243	
13	0	0	0	0	447	244	
14	0	0	0	0	447	243	
15	0	0	0	0	448	244	
0	0	0	0	0	450	244	
1	0	0	0	0	452	243	
2	0	0	0	0	455	244	
3	0	0	0	0	458	243	
4	0	0	0	0	460	244	
5	0	0	0	0	462	243	
6	0	0	0	0	462	244	
7	0	0	0	0	461	244	
8	0	0	0	0	460	243	
9	0	0	0	0	457	243	
10	0	0	0	0	454	243	
11	0	0	0	0	450	244	
12	0	0	0	0	448	244	
13	0	0	0	0	446	244	
14	0	0	0	0	445	244	
15	0	0	0	0	446	243	
0	0	0	0	0	447	243	
1	0	0	0	0	449	243	
2	0	0	0	0	451	243	
3	0	0	0	0	454	243	
4	0	0	0	0	455	244	
5	0	0	0	0	457	243	
6	0	0	0	0	459	244	
7	0	0	0	0	460	243	
8	0	0	0	0	461	243	
9	0	0	0	0	460	244	
10	0	0	0	0	460	243	
11	0	0	0	0	459	244	
12	0	0	0	0	458	243	
13	0	0	0	0	457	243	
14	0	0	0	0	457	243	
15	0	0	0	0	459	243	
0	0	0	0	0	460	243	
1	0	0	0	0	461	243	
2	0	0	0	0	462	244	
3	0	0	0	0	463	243	
4	0	0	0	0	465	244	
5	0	0	0	0	467	243	
6	0	0	0	0	468	243	
7	0	0	0	0	468	243	
8	0	0	0	0	467	244	
9	0	0	0	0	466	243	
10	0	0	0	0	465	244	
11	0	0	0	0	464	244	
12	0	0	0	0	464	243	
13	0	0	0	0	463	244	
14	0	0	0	0	462	243	
15	0	0	0	0	461	244	
0	0	0	0	0	461	243	
1	0	0	0	0	461	243	
2	0	0	0	0	462	243	
3	0	0	0	0	464	243	
4	0	0	0	0	467	243	
5	0	0	0	0	470	243	
6	0	0	0	0	472	243	
7	0	0	0	0	475	243	
8	0	0	0	0	478	244	
9	0	0	0	0	479	243	
10	0	0	0	0	480	243	
11	0	0	0	0	481	243	
12	0	0	0	0	480	244	
13	0	0	0	0	479	243	
14	0	0	0	0	477	243	
15	0	0	0	0	475	243	
0	0	0	0	0	472	243	
1	0	0	0	0	472	243	
2	0	0	0	0	472	243	
3	0	0	0	0	472	243	
4	0	0	0	0	472	244	
5	0	0	0	0	473	243	
6	0	0	0	0	475	244	
7	0	0	0	0	476	243	
8	0	0	0	0	476	243	
9	0	0	0	0	476	243	
10	0	0	0	0	475	244	
11	0	0	0	0	472	244	
12	0	0	0	0	469	244	
13	0	0	0	0	467	244	
14	0	0	0	0	463	243	
15	0	0	0	0	460	243	
0	0	0	0	0	457	243	
1	0	0	0	0	454	243	
2	0	0	0	0	452	243	
3	0	0	0	0	453	244	
4	0	0	0	0	454	243	
5	0	0	0	0	455	243	
6	0	0	0	0	455	243	
7	0	0	0	0	456	244	
8	0	0	0	0	455	243	
9	0	0	0	0	455	243	
10	0	0	0	0	454	243	
11	0	0	0	0	453	243	
12	0	0	0	0	451	243	
13	0	0	0	0	449	244	
14	0	0	0	0	447	244	
15	0	0	0	0	444	243	
0	0	0	0	0	443	243	
1	0	0	0	0	441	243	
2	0	0	0	0	440	243	
3	0	0	0	0	439	243	
4	0	0	0	0	438	244	
5	0	0	0	0	439	243	
6	0	0	0	0	440	243	
7	0	0	0	0	442	243	
8	0	0	0	0	443	243	
9	0	0	0	0	444	243	
10	0	0	0	0	445	243	
11	0	0	0	0	446	243	
12	0	0	0	0	446	243	
13	0	0	0	0	445	243	
14	0	0	0	0	444	243	
15	0	0	0	0	442	243	
0	0	0	0	0	440	243	
1	0	0	0	0	438	243	
2	0	0	0	0	436	243	
3	0	0	0	0	435	243	
4	0	0	0	0	435	243	
5	0	0	0	0	436	244	
6	0	0	0	0	438	243	
7	0	0	0	0	440	243	
8	0	0	0	0	443	243	
9	0	0	0	0	445	243	
10	0	0	0	0	446	243	
11	0	0	0	0	447	244	
12	0	0	0	0	447	243	
13	0	0	0	0	447	243	
14	0	0	0	0	445	243	
15	0	0	0	0	441	244	
0	0	0	0	0	439	243	
1	0	0	0	0	436	244	
2	0	0	0	0	433	243	
3	0	0	0	0	431	243	
4	0	0	0	0	431	243	
5	0	0	0	0	432	244	
6	0	0	0	0	433	243	
7	0	0	0	0	435	243	
8	0	0	0	0	438	243	
9	0	0	0	0	440	243	
10	0	0	0	0	441	243	
11	0	0	0	0	441	243	
12	0	0	0	0	442	243	
13	0	0	0	0	440	243	
14	0	0	0	0	437	243	
15	0	0	0	0	435	243	
0	0	0	0	0	432	243	
1	0	0	0	0	429	243	
2	0	0	0	0	427	243	
3	0	0	0	0	426	243	
4	0	0	0	0	425	243	
5	0	0	0	0	425	243	
6	0	0	0	0	427	244	
7	0	0	0	0	428	243	
8	0	0	0	0	430	243	
9	0	0	0	0	433	243	
10	0	0	0	0	436	243	
11	0	0	0	0	440	243	
12	0	0	0	0	444	243	
13	0	0	0	0	448	243	
14	0	0	0	0	455	243	
15	0	0	0	0	463	243	
0	0	0	0	0	472	243	
1	0	0	0	0	482	243	
2	0	0	0	0	493	243	
3	0	0	0	0	504	243	
4	0	0	0	0	516	243	
5	0	0	0	0	530	243	
6	0	0	0	0	543	243	
7	0	0	0	0	556	243	
8	0	0	0	0	566	243	
9	0	0	0	0	576	243	
10	0	0	0	0	584	243	
11	0	0	0	0	591	243	
12	0	0	0	0	599	243	
13	0	0	0	0	605	243	
14	0	0	0	0	608	243	
15	0	0	0	0	608	243	
0	0	0	0	0	609	244	
1	0	0	0	0	609	243	
2	0	0	0	0	608	243	
3	0	0	0	0	606	243	
4	0	0	0	0	601	243	
5	0	0	0	0	596	243	
6	0	0	0	0	591	243	
7	0	0	0	0	586	243	
8	0	0	0	0	582	243	
9	0	0	0	0	578	244	
10	0	0	0	0	575	243	
11	0	0	0	0	571	243	
12	0	0	0	0	564	243	
13	0	0	0	0	557	243	
14	0	0	0	0	547	243	
15	0	0	0	0	536	243	
0	0	0	0	0	525	243	
1	0	0	0	0	513	243	
2	0	0	0	0	502	243	
3	0	0	0	0	493	243	
4	0	0	0	0	486	243	
5	0	0	0	0	482	243	
6	0	0	0	0	479	243	
7	0	0	0	0	477	243	
8	0	0	0	0	476	243	
9	0	0	0	0	477	243	
10	0	0	0	0	478	243	
11	0	0	0	0	478	243	
12	0	0	0	0	480	243	
13	0	0	0	0	481	243	
14	0	0	0	0	483	244	
15	0	0	0	0	487	243	
0	0	0	0	0	490	243	
1	0	0	0	0	493	243	
2	0	0	0	0	495	243	
3	0	0	0	0	497	243	
4	0	0	0	0	500	243	
5	0	0	0	0	502	243	
6	0	0	0	0	504	243	
7	0	0	0	0	507	243	
8	0	0	0	0	509	243	
9	0	0	0	0	511	244	
10	0	0	0	0	513	243	
11	0	0	0	0	514	244	
12	0	0	0	0	515	243	
13	0	0	0	0	517	243	
14	0	0	0	0	518	243	
15	0	0	0	0	519	243	
0	0	0	0	0	519	243	
1	0	0	0	0	519	243	
2	0	0	0	0	518	243	
3	0	0	0	0	518	243	
4	0	0	0	0	517	243	
5	0	0	0	0	517	243	
6	0	0	0	0	517	243	
7	0	0	0	0	519	243	
8	0	0	0	0	520	243	
9	0	0	0	0	521	243	
10	0	0	0	0	523	243	
11	0	0	0	0	526	243	
12	0	0	0	0	529	244	
13	0	0	0	0	533	243	
14	0	0	0	0	535	243	
15	0	0	0	0	537	243	
0	0	0	0	0	538	243	
1	0	0	0	0	538	243	
2	0	0	0	0	540	243	
3	0	0	0	0	540	243	
4	0	0	0	0	540	243	
5	0	0	0	0	539	243	
6	0	0	0	0	539	243	
7	0	0	0	0	539	244	
8	0	0	0	0	539	243	
9	0	0	0	0	541	243	
10	0	0	0	0	543	243	
11	0	0	0	0	545	243	
12	0	0	0	0	548	243	
13	0	0	0	0	551	243	
14	0	0	0	0	554	243	
15	0	0	0	0	558	243	
0	0	0	0	0	560	244	
1	0	0	0	0	562	243	
2	0	0	0	0	563	244	
3	0	0	0	0	563	243	
4	0	0	0	0	564	244	
5	0	0	0	0	565	243	
6	0	0	0	0	565	243	
7	0	0	0	0	565	243	
8	0	0	0	0	566	243	
9	0	0	0	0	568	243	
10	0	0	0	0	571	243	
11	0	0	0	0	573	243	
12	0	0	0	0	575	244	
13	0	0	0	0	579	243	
14	0	0	0	0	582	243	
15	0	0	0	0	583	243	
0	0	0	0	0	585	243	
1	0	0	0	0	586	243	
2	0	0	0	0	586	243	
3	0	0	0	0	586	243	
4	0	0	0	0	586	243	
5	0	0	0	0	584	243	
6	0	0	0	0	583	243	
7	0	0	0	0	583	243	
8	0	0	0	0	583	243	
9	0	0	0	0	583	243	
10	0	0	0	0	584	243	
11	0	0	0	0	585	243	
12	0	0	0	0	587	243	
13	0	0	0	0	589	243	
14	0	0	0	0	591	243	
15	0	0	0	0	592	243	
0	0	0	0	0	593	244	
1	0	0	0	0	592	243	
2	0	0	0	0	592	243	
3	0	0	0	0	591	243	
4	0	0	0	0	590	243	
5	0	0	0	0	587	243	
6	0	0	0	0	584	244	
7	0	0	0	0	582	243	
8	0	0	0	0	581	243	
9	0	0	0	0	579	243	
10	0	0	0	0	579	243	
11	0	0	0	0	579	243	
12	0	0	0	0	580	243	
13	0	0	0	0	582	243	
14	0	0	0	0	584	243	
15	0	0	0	0	587	243	
0	0	0	0	0	588	243	
1	0	0	0	0	591	243	
2	0	0	0	0	591	243	
3	0	0	0	0	592	243	
4	0	0	0	0	593	243	
5	0	0	0	0	593	243	
6	0	0	0	0	593	243	
7	0	0	0	0	593	243	
8	0	0	0	0	593	243	
9	0	0	0	0	592	244	
10	0	0	0	0	591	243	
11	0	0	0	0	591	243	
12	0	0	0	0	592	243	
13	0	0	0	0	595	243	
14	0	0	0	0	598	243	
15	0	0	0	0	600	244	
0	0	0	0	0	602	244	
1	0	0	0	0	604	243	
2	0	0	0	0	606	243	
3	0	0	0	0	607	243	
4	0	0	0	0	608	243	
5	0	0	0	0	608	243	
6	0	0	0	0	607	243	
7	0	0	0	0	606	243	
8	0	0	0	0	604	243	
9	0	0	0	0	603	243	
10	0	0	0	0	601	243	
11	0	0	0	0	600	243	
12	0	0	0	0	600	243	
13	0	0	0	0	600	243	
14	0	0	0	0	600	243	
15	0	0	0	0	601	243	
0	0	0	0	0	604	243	
1	0	0	0	0	607	243	
2	0	0	0	0	610	243	
3	0	0	0	0	612	243	
4	0	0	0	0	614	243	
5	0	0	0	0	612	243	
6	0	0	0	0	611	243	
7	0	0	0	0	608	243	
8	0	0	0	0	606	244	
9	0	0	0	0	605	243	
10	0	0	0	0	603	243	
11	0	0	0	0	602	243	
12	0	0	0	0	601	243	
13	0	0	0	0	601	243	
14	0	0	0	0	601	243	
15	0	0	0	0	601	243	
0	0	0	0	0	603	243	
1	0	0	0	0	603	243	
2	0	0	0	0	602	243	
3	0	0	0	0	603	244	
4	0	0	0	0	603	243	
5	0	0	0	0	602	243	
6	0	0	0	0	600	243	
7	0	0	0	0	599	244	
8	0	0	0	0	596	242	
9	0	0	0	0	593	243	
10	0	0	0	0	591	243	
11	0	0	0	0	588	244	
12	0	0	0	0	587	243	
13	0	0	0	0	586	243	
14	0	0	0	0	587	243	
15	0	0	0	0	588	243	
0	0	0	0	0	589	243	
1	0	0	0	0	590	243	
2	0	0	0	0	592	243	
3	0	0	0	0	593	243	
4	0	0	0	0	594	243	
5	0	0	0	0	594	243	
6	0	0	0	0	593	243	
7	0	0	0	0	591	243	
8	0	0	0	0	588	243	
9	0	0	0	0	585	243	
10	0	0	0	0	583	244	
11	0	0	0	0	580	243	
12	0	0	0	0	578	244	
13	0	0	0	0	576	243	
14	0	0	0	0	573	244	
15	0	0	0	0	572	243	
0	0	0	0	0	572	243	
1	0	0	0	0	571	243	
2	0	0	0	0	570	243	
3	0	0	0	0	569	243	
4	0	0	0	0	569	243	
5	0	0	0	0	570	243	
6	0	0	0	0	569	243	
7	0	0	0	0	568	243	
8	0	0	0	0	567	243	
9	0	0	0	0	565	243	
10	0	0	0	0	564	243	
11	0	0	0	0	562	243	
12	0	0	0	0	560	243	
13	0	0	0	0	560	243	
14	0	0	0	0	559	243	
15	0	0	0	0	560	243	
0	0	0	0	0	561	243	
1	0	0	0	0	563	243	
2	0	0	0	0	566	243	
3	0	0	0	0	568	243	
4	0	0	0	0	570	243	
5	0	0	0	0	572	243	
6	0	0	0	0	573	243	
7	0	0	0	0	574	243	
8	0	0	0	0	575	243	
9	0	0	0	0	575	243	
10	0	0	0	0	575	243	
11	0	0	0	0	575	243	
12	0	0	0	0	574	243	
13	0	0	0	0	574	243	
14	0	0	0	0	573	243	
15	0	0	0	0	572	243	
0	0	0	0	0	571	243	
1	0	0	0	0	571	244	
2	0	0	0	0	572	243	
3	0	0	0	0	573	243	
4	0	0	0	0	574	243	
5	0	0	0	0	575	243	
6	0	0	0	0	575	243	
7	0	0	0	0	574	243	
8	0	0	0	0	573	243	
9	0	0	0	0	571	244	
10	0	0	0	0	568	243	
11	0	0	0	0	567	243	
12	0	0	0	0	565	243	
13	0	0	0	0	564	243	
14	0	0	0	0	564	243	
15	0	0	0	0	564	243	
0	0	0	0	0	565	243	
1	0	0	0	0	566	243	
2	0	0	0	0	568	243	
3	0	0	0	0	571	243	
4	0	0	0	0	572	244	
5	0	0	0	0	574	243	
6	0	0	0	0	573	244	
7	0	0	0	0	572	243	
8	0	0	0	0	571	244	
9	0	0	0	0	568	243	
10	0	0	0	0	567	244	
11	0	0	0	0	563	243	
12	0	0	0	0	559	243	
13	0	0	0	0	556	243	
14	0	0	0	0	553	243	
15	0	0	0	0	551	243	
0	0	0	0	0	548	243	
1	0	0	0	0	545	243	
2	0	0	0	0	543	243	
3	0	0	0	0	540	243	
4	0	0	0	0	538	244	
5	0	0	0	0	536	243	
6	0	0	0	0	535	243	
7	0	0	0	0	533	243	
8	0	0	0	0	531	243	
9	0	0	0	0	529	243	
10	0	0	0	0	526	243	
11	0	0	0	0	523	243	
12	0	0	0	0	519	243	
13	0	0	0	0	515	243	
14	0	0	0	0	512	244	
15	0	0	0	0	509	243	
0	0	0	0	0	506	244	
1	0	0	0	0	504	243	
2	0	0	0	0	503	244	
3	0	0	0	0	502	243	
4	0	0	0	0	501	244	
5	0	0	0	0	500	243	
6	0	0	0	0	498	243	
7	0	0	0	0	497	243	
8	0	0	0	0	495	243	
9	0	0	0	0	493	243	
10	0	0	0	0	492	244	
11	0	0	0	0	490	244	
12	0	0	0	0	487	243	
13	0	0	0	0	484	244	
14	0	0	0	0	480	243	
15	0	0	0	0	476	243	
0	0	0	0	0	474	243	
1	0	0	0	0	473	243	
2	0	0	0	0	473	243	
3	0	0	0	0	474	243	
4	0	0	0	0	475	244	
5	0	0	0	0	478	243	
6	0	0	0	0	480	244	
7	0	0	0	0	482	243	
8	0	0	0	0	483	243	
9	0	0	0	0	483	243	
10	0	0	0	0	481	243	
11	0	0	0	0	479	244	
12	0	0	0	0	477	243	
13	0	0	0	0	475	243	
14	0	0	0	0	473	243	
15	0	0	0	0	472	244	
0	0	0	0	0	471	243	
1	0	0	0	0	470	244	
2	0	0	0	0	471	243	
3	0	0	0	0	472	244	
4	0	0	0	0	474	244	
5	0	0	0	0	476	243	
6	0	0	0	0	478	244	
7	0	0	0	0	480	243	
8	0	0	0	0	482	243	
9	0	0	0	0	483	243	
10	0	0	0	0	483	243	
11	0	0	0	0	484	243	
12	0	0	0	0	484	244	
13	0	0	0	0	483	243	
14	0	0	0	0	483	244	
15	0	0	0	0	482	243	
0	0	0	0	0	481	244	
1	0	0	0	0	481	243	
2	0	0	0	0	480	244	
3	0	0	0	0	480	244	
4	0	0	0	0	480	243	
5	0	0	0	0	481	243	
6	0	0	0	0	482	243	
7	0	0	0	0	483	244	
8	0	0	0	0	484	243	
9	0	0	0	0	484	244	
10	0	0	0	0	486	244	
11	0	0	0	0	486	243	
12	0	0	0	0	487	244	
13	0	0	0	0	486	243	
14	0	0	0	0	484	243	
15	0	0	0	0	483	243	
0	0	0	0	0	481	244	
1	0	0	0	0	480	243	
2	0	0	0	0	480	243	
3	0	0	0	0	480	244	
4	0	0	0	0	480	243	
5	0	0	0	0	481	244	
6	0	0	0	0	483	243	
7	0	0	0	0	486	244	
8	0	0	0	0	489	243	
9	0	0	0	0	490	244	
10	0	0	0	0	492	243	
11	0	0	0	0	492	244	
12	0	0	0	0	492	244	
13	0	0	0	0	492	244	
14	0	0	0	0	492	244	
15	0	0	0	0	490	243	
0	0	0	0	0	488	244	
1	0	0	0	0	487	243	
2	0	0	0	0	486	244	
3	0	0	0	0	486	243	
4	0	0	0	0	487	244	
5	0	0	0	0	489	243	
6	0	0	0	0	491	243	
7	0	0	0	0	492	244	
8	0	0	0	0	494	243	
9	0	0	0	0	495	243	
10	0	0	0	0	496	243	
11	0	0	0	0	496	244	
12	0	0	0	0	496	243	
13	0	0	0	0	496	244	
14	0	0	0	0	496	244	
15	0	0	0	0	496	244	
0	0	0	0	0	495	244	
1	0	0	0	0	494	243	
2	0	0	0	0	492	244	
3	0	0	0	0	491	243	
4	0	0	0	0	490	244	
5	0	0	0	0	491	243	
6	0	0	0	0	491	244	
7	0	0	0	0	492	243	
8	0	0	0	0	494	244	
9	0	0	0	0	497	244	
10	0	0	0	0	500	244	
11	0	0	0	0	503	244	
12	0	0	0	0	505	243	
13	0	0	0	0	507	244	
14	0	0	0	0	509	243	
15	0	0	0	0	510	244	
0	0	0	0	0	510	243	
1	0	0	0	0	510	244	
2	0	0	0	0	508	243	
3	0	0	0	0	507	244	
4	0	0	0	0	507	243	
5	0	0	0	0	507	244	
6	0	0	0	0	509	243	
7	0	0	0	0	512	244	
8	0	0	0	0	514	243	
9	0	0	0	0	516	244	
10	0	0	0	0	520	244	
11	0	0	0	0	524	244	
12	0	0	0	0	525	244	
13	0	0	0	0	527	244	
14	0	0	0	0	527	244	
15	0	0	0	0	527	243	
0	0	0	0	0	526	244	
1	0	0	0	0	526	243	
2	0	0	0	0	526	244	
3	0	0	0	0	526	243	
4	0	0	0	0	526	244	
5	0	0	0	0	527	243	
6	0	0	0	0	528	244	
7	0	0	0	0	530	244	
8	0	0	0	0	533	244	
9	0	0	0	0	536	244	
10	0	0	0	0	539	243	
11	0	0	0	0	542	244	
12	0	0	0	0	544	243	
13	0	0	0	0	546	244	
14	0	0	0	0	548	243	
15	0	0	0	0	548	244	
0	0	0	0	0	548	243	
1	0	0	0	0	547	244	
2	0	0	0	0	545	243	
3	0	0	0	0	544	244	
4	0	0	0	0	543	244	
5	0	0	0	0	543	243	
6	0	0	0	0	543	244	
7	0	0	0	0	542	243	
8	0	0	0	0	543	244	
9	0	0	0	0	544	244	
10	0	0	0	0	545	243	
11	0	0	0	0	547	244	
12	0	0	0	0	548	243	
13	0	0	0	0	550	244	
14	0	0	0	0	551	243	
15	0	0	0	0	550	244	
0	0	0	0	0	549	243	
1	0	0	0	0	549	244	
2	0	0	0	0	548	244	
3	0	0	0	0	548	244	
4	0	0	0	0	547	244	
5	0	0	0	0	547	244	
6	0	0	0	0	546	244	
7	0	0	0	0	544	244	
8	0	0	0	0	545	244	
9	0	0	0	0	546	243	
10	0	0	0	0	547	244	
11	0	0	0	0	548	243	
12	0	0	0	0	549	244	
13	0	0	0	0	550	243	
14	0	0	0	0	551	244	
15	0	0	0	0	552	243	
0	0	0	0	0	551	244	
1	0	0	0	0	551	243	
2	0	0	0	0	550	244	
3	0	0	0	0	547	244	
4	0	0	0	0	546	244	
5	0	0	0	0	545	243	
6	0	0	0	0	545	244	
7	0	0	0	0	547	243	
8	0	0	0	0	548	244	
9	0	0	0	0	551	243	
10	0	0	0	0	555	244	
11	0	0	0	0	558	243	
12	0	0	0	0	561	244	
13	0	0	0	0	565	243	
14	0	0	0	0	567	244	
15	0	0	0	0	568	243	
0	0	0	0	0	570	244	
1	0	0	0	0	570	244	
2	0	0	0	0	569	244	
3	0	0	0	0	568	244	
4	0	0	0	0	567	244	
5	0	0	0	0	566	244	
6	0	0	0	0	563	244	
7	0	0	0	0	562	244	
8	0	0	0	0	560	244	
9	0	0	0	0	559	244	
10	0	0	0	0	559	244	
11	0	0	0	0	560	244	
12	0	0	0	0	560	244	
13	0	0	0	0	562	244	
14	0	0	0	0	564	243	
15	0	0	0	0	568	244	
0	0	0	0	0	571	243	
1	0	0	0	0	572	244	
2	0	0	0	0	570	243	
3	0	0	0	0	569	244	
4	0	0	0	0	568	243	
5	0	0	0	0	566	244	
6	0	0	0	0	565	243	
7	0	0	0	0	564	244	
8	0	0	0	0	563	243	
9	0	0	0	0	563	244	
10	0	0	0	0	563	243	
11	0	0	0	0	562	244	
12	0	0	0	0	562	243	
13	0	0	0	0	564	244	
14	0	0	0	0	564	244	
15	0	0	0	0	565	244	
0	0	0	0	0	565	243	
1	0	0	0	0	565	244	
2	0	0	0	0	563	243	
3	0	0	0	0	561	244	
4	0	0	0	0	561	244	
5	0	0	0	0	559	244	
6	0	0	0	0	557	244	
7	0	0	0	0	556	243	
8	0	0	0	0	555	244	
9	0	0	0	0	555	243	
10	0	0	0	0	555	244	
11	0	0	0	0	555	243	
12	0	0	0	0	556	244	
13	0	0	0	0	556	244	
14	0	0	0	0	558	244	
15	0	0	0	0	559	244	
0	0	0	0	0	559	244	
1	0	0	0	0	559	244	
2	0	0	0	0	559	243	
3	0	0	0	0	558	244	
4	0	0	0	0	557	243	
5	0	0	0	0	555	244	
6	0	0	0	0	552	243	
7	0	0	0	0	550	244	
8	0	0	0	0	547	244	
9	0	0	0	0	544	244	
10	0	0	0	0	543	244	
11	0	0	0	0	542	243	
12	0	0	0	0	542	244	
13	0	0	0	0	543	243	
14	0	0	0	0	544	244	
15	0	0	0	0	546	244	
0	0	0	0	0	547	244	
1	0	0	0	0	547	244	
2	0	0	0	0	547	244	
3	0	0	0	0	545	244	
4	0	0	0	0	544	243	
5	0	0	0	0	542	244	
6	0	0	0	0	539	243	
7	0	0	0	0	537	244	
8	0	0	0	0	535	243	
9	0	0	0	0	534	244	
10	0	0	0	0	533	244	
11	0	0	0	0	531	244	
12	0	0	0	0	531	244	
13	0	0	0	0	531	243	
14	0	0	0	0	530	244	
15	0	0	0	0	531	243	
0	0	0	0	0	532	244	
1	0	0	0	0	533	244	
2	0	0	0	0	532	244	
3	0	0	0	0	532	244	
4	0	0	0	0	531	244	
5	0	0	0	0	529	244	
6	0	0	0	0	527	244	
7	0	0	0	0	524	244	
8	0	0	0	0	519	244	
9	0	0	0	0	515	244	
10	0	0	0	0	512	244	
11	0	0	0	0	509	244	
12	0	0	0	0	508	244	
13	0	0	0	0	507	244	
14	0	0	0	0	506	244	
15	0	0	0	0	507	244	
0	0	0	0	0	508	244	
1	0	0	0	0	509	244	
2	0	0	0	0	510	244	
3	0	0	0	0	512	243	
4	0	0	0	0	512	244	
5	0	0	0	0	512	244	
6	0	0	0	0	511	244	
7	0	0	0	0	509	244	
8	0	0	0	0	505	244	
9	0	0	0	0	502	244	
10	0	0	0	0	499	244	
11	0	0	0	0	496	244	
12	0	0	0	0	495	244	
13	0	0	0	0	493	244	
14	0	0	0	0	493	244	
15	0	0	0	0	494	244	
0	0	0	0	0	495	244	
1	0	0	0	0	497	244	
2	0	0	0	0	500	244	
3	0	0	0	0	503	244	
4	0	0	0	0	504	244	
5	0	0	0	0	505	244	
6	0	0	0	0	506	244	
7	0	0	0	0	505	244	
8	0	0	0	0	504	244	
9	0	0	0	0	504	244	
10	0	0	0	0	503	244	
11	0	0	0	0	501	244	
12	0	0	0	0	500	244	
13	0	0	0	0	500	244	
14	0	0	0	0	500	244	
15	0	0	0	0	500	244	
0	0	0	0	0	502	244	
1	0	0	0	0	503	244	
2	0	0	0	0	505	243	
3	0	0	0	0	508	244	
4	0	0	0	0	510	244	
5	0	0	0	0	511	244	
6	0	0	0	0	512	244	
7	0	0	0	0	512	244	
8	0	0	0	0	512	244	
9	0	0	0	0	510	244	
10	0	0	0	0	508	244	
11	0	0	0	0	505	244	
12	0	0	0	0	502	244	
13	0	0	0	0	500	244	
14	0	0	0	0	498	244	
15	0	0	0	0	497	244	
0	0	0	0	0	496	244	
1	0	0	0	0	496	244	
2	0	0	0	0	496	244	
3	0	0	0	0	497	244	
4	0	0	0	0	497	244	
5	0	0	0	0	496	244	
6	0	0	0	0	494	244	
7	0	0	0	0	492	244	
8	0	0	0	0	491	244	
9	0	0	0	0	488	245	
10	0	0	0	0	487	244	
11	0	0	0	0	485	244	
12	0	0	0	0	484	244	
13	0	0	0	0	483	244	
14	0	0	0	0	483	244	
15	0	0	0	0	483	244	
0	0	0	0	0	484	244	
1	0	0	0	0	486	244	
2	0	0	0	0	488	244	
3	0	0	0	0	491	244	
4	0	0	0	0	494	244	
5	0	0	0	0	496	244	
6	0	0	0	0	498	244	
7	0	0	0	0	499	244	
8	0	0	0	0	499	244	
9	0	0	0	0	499	244	
10	0	0	0	0	499	244	
11	0	0	0	0	499	245	
12	0	0	0	0	499	244	
13	0	0	0	0	497	244	
14	0	0	0	0	496	244	
15	0	0	0	0	496	244	
0	0	0	0	0	496	244	
1	0	0	0	0	497	244	
2	0	0	0	0	497	244	
3	0	0	0	0	499	244	
4	0	0	0	0	500	244	
5	0	0	0	0	502	244	
6	0	0	0	0	503	244	
7	0	0	0	0	503	244	
8	0	0	0	0	503	244	
9	0	0	0	0	501	244	
10	0	0	0	0	499	245	
11	0	0	0	0	495	244	
12	0	0	0	0	492	244	
13	0	0	0	0	488	244	
14	0	0	0	0	487	244	
15	0	0	0	0	486	244	
0	0	0	0	0	486	244	
1	0	0	0	0	486	244	
2	0	0	0	0	486	244	
3	0	0	0	0	486	245	
4	0	0	0	0	487	244	
5	0	0	0	0	487	244	
6	0	0	0	0	487	244	
7	0	0	0	0	487	245	
8	0	0	0	0	487	244	
9	0	0	0	0	486	244	
10	0	0	0	0	485	244	
11	0	0	0	0	483	244	
12	0	0	0	0	481	244	
13	0	0	0	0	480	244	
14	0	0	0	0	478	244	
15	0	0	0	0	477	244	
0	0	0	0	0	476	244	
1	0	0	0	0	477	244	
2	0	0	0	0	478	244	
3	0	0	0	0	479	245	
4	0	0	0	0	481	244	
5	0	0	0	0	483	245	
6	0	0	0	0	486	245	
7	0	0	0	0	488	244	
8	0	0	0	0	491	244	
9	0	0	0	0	491	244	
10	0	0	0	0	491	244	
11	0	0	0	0	489	244	
12	0	0	0	0	488	245	
13	0	0	0	0	487	244	
14	0	0	0	0	484	244	
15	0	0	0	0	482	244	
0	0	0	0	0	481	244	
1	0	0	0	0	480	244	
2	0	0	0	0	480	244	
3	0	0	0	0	480	244	
4	0	0	0	0	482	245	
5	0	0	0	0	484	244	
6	0	0	0	0	485	244	
7	0	0	0	0	487	245	
8	0	0	0	0	489	244	
9	0	0	0	0	491	245	
10	0	0	0	0	491	244	
11	0	0	0	0	491	244	
12	0	0	0	0	492	244	
13	0	0	0	0	491	245	
14	0	0	0	0	489	244	
15	0	0	0	0	487	244	
0	0	0	0	0	488	244	
1	0	0	0	0	488	244	
2	0	0	0	0	489	244	
3	0	0	0	0	490	245	
4	0	0	0	0	492	245	
5	0	0	0	0	495	245	
6	0	0	0	0	499	245	
7	0	0	0	0	503	244	
8	0	0	0	0	507	245	
9	0	0	0	0	512	244	
10	0	0	0	0	515	244	
11	0	0	0	0	519	244	
12	0	0	0	0	520	245	
13	0	0	0	0	520	245	
14	0	0	0	0	519	244	
15	0	0	0	0	517	245	
0	0	0	0	0	515	244	
1	0	0	0	0	514	245	
2	0	0	0	0	513	244	
3	0	0	0	0	514	244	
4	0	0	0	0	515	245	
5	0	0	0	0	515	244	
6	0	0	0	0	515	245	
7	0	0	0	0	516	244	
8	0	0	0	0	517	245	
9	0	0	0	0	518	244	
10	0	0	0	0	518	245	
11	0	0	0	0	518	244	
12	0	0	0	0	518	245	
13	0	0	0	0	518	244	
14	0	0	0	0	517	245	
15	0	0	0	0	514	244	
0	0	0	0	0	512	245	
1	0	0	0	0	512	245	
2	0	0	0	0	511	244	
3	0	0	0	0	511	245	
4	0	0	0	0	511	244	
5	0	0	0	0	512	245	
6	0	0	0	0	514	244	
7	0	0	0	0	516	245	
8	0	0	0	0	519	244	
9	0	0	0	0	521	245	
10	0	0	0	0	524	244	
11	0	0	0	0	526	245	
12	0	0	0	0	527	245	
13	0	0	0	0	528	245	
14	0	0	0	0	527	245	
15	0	0	0	0	527	245	
0	0	0	0	0	526	245	
1	0	0	0	0	524	244	
2	0	0	0	0	522	245	
3	0	0	0	0	520	244	
4	0	0	0	0	519	245	
5	0	0	0	0	519	244	
6	0	0	0	0	520	245	
7	0	0	0	0	521	244	
8	0	0	0	0	522	245	
9	0	0	0	0	523	245	
10	0	0	0	0	524	244	
11	0	0	0	0	524	245	
12	0	0	0	0	524	244	
13	0	0	0	0	524	245	
14	0	0	0	0	522	244	
15	0	0	0	0	520	245	
0	0	0	0	0	519	245	
1	0	0	0	0	515	245	
2	0	0	0	0	514	245	
3	0	0	0	0	514	244	
4	0	0	0	0	515	245	
5	0	0	0	0	516	245	
6	0	0	0	0	517	245	
7	0	0	0	0	519	245	
8	0	0	0	0	521	244	
9	0	0	0	0	523	245	
10	0	0	0	0	524	244	
11	0	0	0	0	525	245	
12	0	0	0	0	526	245	
13	0	0	0	0	525	245	
14	0	0	0	0	524	244	
15	0	0	0	0	523	245	
0	0	0	0	0	523	244	
1	0	0	0	0	522	245	
2	0	0	0	0	520	245	
3	0	0	0	0	520	245	
4	0	0	0	0	520	245	
5	0	0	0	0	522	244	
6	0	0	0	0	524	245	
7	0	0	0	0	526	244	
8	0	0	0	0	527	245	
9	0	0	0	0	530	244	
10	0	0	0	0	532	245	
11	0	0	0	0	534	244	
12	0	0	0	0	536	245	
13	0	0	0	0	538	244	
14	0	0	0	0	538	245	
15	0	0	0	0	538	245	
0	0	0	0	0	539	245	
1	0	0	0	0	539	245	
2	0	0	0	0	539	244	
3	0	0	0	0	539	245	
4	0	0	0	0	539	244	
5	0	0	0	0	538	245	
6	0	0	0	0	537	244	
7	0	0	0	0	537	245	
8	0	0	0	0	537	245	
9	0	0	0	0	538	245	
10	0	0	0	0	540	245	
11	0	0	0	0	541	245	
12	0	0	0	0	542	245	
13	0	0	0	0	543	245	
14	0	0	0	0	544	244	
15	0	0	0	0	546	245	
0	0	0	0	0	546	244	
1	0	0	0	0	546	245	
2	0	0	0	0	547	245	
3	0	0	0	0	548	245	
4	0	0	0	0	548	245	
5	0	0	0	0	549	245	
6	0	0	0	0	549	244	
7	0	0	0	0	548	245	
8	0	0	0	0	549	244	
9	0	0	0	0	551	245	
10	0	0	0	0	553	244	
11	0	0	0	0	555	245	
12	0	0	0	0	556	245	
13	0	0	0	0	557	245	
14	0	0	0	0	557	245	
15	0	0	0	0	557	245	
0	0	0	0	0	555	245	
1	0	0	0	0	552	244	
2	0	0	0	0	550	245	
3	0	0	0	0	548	244	
4	0	0	0	0	545	245	
5	0	0	0	0	543	245	
6	0	0	0	0	541	245	
7	0	0	0	0	540	245	
8	0	0	0	0	539	245	
9	0	0	0	0	539	245	
10	0	0	0	0	541	244	
11	0	0	0	0	542	245	
12	0	0	0	0	543	244	
13	0	0	0	0	545	245	
14	0	0	0	0	545	245	
15	0	0	0	0	545	245	
0	0	0	0	0	544	245	
1	0	0	0	0	542	245	
2	0	0	0	0	539	245	
3	0	0	0	0	537	245	
4	0	0	0	0	535	245	
5	0	0	0	0	532	245	
6	0	0	0	0	529	245	
7	0	0	0	0	527	245	
8	0	0	0	0	525	245	
9	0	0	0	0	524	245	
10	0	0	0	0	523	245	
11	0	0	0	0	523	244	
12	0	0	0	0	524	245	
13	0	0	0	0	525	245	
14	0	0	0	0	526	245	
15	0	0	0	0	527	245	
0	0	0	0	0	527	245	
1	0	0	0	0	526	245	
2	0	0	0	0	525	245	
3	0	0	0	0	523	245	
4	0	0	0	0	521	245	
5	0	0	0	0	519	245	
6	0	0	0	0	517	245	
7	0	0	0	0	516	245	
8	0	0	0	0	516	245	
9	0	0	0	0	517	245	
10	0	0	0	0	518	245	
11	0	0	0	0	518	245	
12	0	0	0	0	519	245	
13	0	0	0	0	520	245	
14	0	0	0	0	522	245	
15	0	0	0	0	523	245	
0	0	0	0	0	524	245	
1	0	0	0	0	524	245	
2	0	0	0	0	523	245	
3	0	0	0	0	521	245	
4	0	0	0	0	520	245	
5	0	0	0	0	518	245	
6	0	0	0	0	516	245	
7	0	0	0	0	514	245	
8	0	0	0	0	512	245	
9	0	0	0	0	511	245	
10	0	0	0	0	511	245	
11	0	0	0	0	511	245	
12	0	0	0	0	512	246	
13	0	0	0	0	513	245	
14	0	0	0	0	513	246	
15	0	0	0	0	513	245	
0	0	0	0	0	513	245	
1	0	0	0	0	513	245	
2	0	0	0	0	512	245	
3	0	0	0	0	510	246	
4	0	0	0	0	508	245	
5	0	0	0	0	504	245	
6	0	0	0	0	501	246	
7	0	0	0	0	497	245	
8	0	0	0	0	494	245	
9	0	0	0	0	492	245	
10	0	0	0	0	490	246	
11	0	0	0	0	489	245	
12	0	0	0	0	488	245	
13	0	0	0	0	489	245	
14	0	0	0	0	490	245	
15	0	0	0	0	490	245	
0	0	0	0	0	490	245	
1	0	0	0	0	490	245	
2	0	0	0	0	489	245	
3	0	0	0	0	488	245	
4	0	0	0	0	486	245	
5	0	0	0	0	484	245	
6	0	0	0	0	482	246	
7	0	0	0	0	480	245	
8	0	0	0	0	478	245	
9	0	0	0	0	478	246	
10	0	0	0	0	478	245	
11	0	0	0	0	478	246	
12	0	0	0	0	480	245	
13	0	0	0	0	481	246	
14	0	0	0	0	483	245	
15	0	0	0	0	484	245	
0	0	0	0	0	487	245	
1	0	0	0	0	489	245	
2	0	0	0	0	491	245	
3	0	0	0	0	492	245	
4	0	0	0	0	493	246	
5	0	0	0	0	493	245	
6	0	0	0	0	492	245	
7	0	0	0	0	493	245	
8	0	0	0	0	494	245	
9	0	0	0	0	494	245	
10	0	0	0	0	495	245	
11	0	0	0	0	495	245	
12	0	0	0	0	497	246	
13	0	0	0	0	499	245	
14	0	0	0	0	500	245	
15	0	0	0	0	501	246	
0	0	0	0	0	503	244	
1	0	0	0	0	505	246	
2	0	0	0	0	507	245	
3	0	0	0	0	508	245	
4	0	0	0	0	508	245	
5	0	0	0	0	508	245	
6	0	0	0	0	506	245	
7	0	0	0	0	504	246	
8	0	0	0	0	502	246	
9	0	0	0	0	499	245	
10	0	0	0	0	498	246	
11	0	0	0	0	497	245	
12	0	0	0	0	496	245	
13	0	0	0	0	495	245	
14	0	0	0	0	495	246	
15	0	0	0	0	496	245	
0	0	0	0	0	498	246	
1	0	0	0	0	499	245	
2	0	0	0	0	502	246	
3	0	0	0	0	505	246	
4	0	0	0	0	508	246	
5	0	0	0	0	510	246	
6	0	0	0	0	511	246	
7	0	0	0	0	511	246	
8	0	0	0	0	510	245	
9	0	0	0	0	509	246	
10	0	0	0	0	510	245	
11	0	0	0	0	509	246	
12	0	0	0	0	507	245	
13	0	0	0	0	505	246	
14	0	0	0	0	504	246	
15	0	0	0	0	505	245	
0	0	0	0	0	506	246	
1	0	0	0	0	508	245	
2	0	0	0	0	511	246	
3	0	0	0	0	513	245	
4	0	0	0	0	515	246	
5	0	0	0	0	518	246	
6	0	0	0	0	519	245	
7	0	0	0	0	519	246	
8	0	0	0	0	519	245	
9	0	0	0	0	518	246	
10	0	0	0	0	517	245	
11	0	0	0	0	516	246	
12	0	0	0	0	516	245	
13	0	0	0	0	517	245	
14	0	0	0	0	518	245	
15	0	0	0	0	520	246	
0	0	0	0	0	523	246	
1	0	0	0	0	525	245	
2	0	0	0	0	527	246	
3	0	0	0	0	528	245	
4	0	0	0	0	529	246	
5	0	0	0	0	530	245	
6	0	0	0	0	528	245	
7	0	0	0	0	526	245	
8	0	0	0	0	524	246	
9	0	0	0	0	521	245	
10	0	0	0	0	518	246	
11	0	0	0	0	515	245	
12	0	0	0	0	510	246	
13	0	0	0	0	508	246	
14	0	0	0	0	504	245	
15	0	0	0	0	502	246	
0	0	0	0	0	502	245	
1	0	0	0	0	502	245	
2	0	0	0	0	503	245	
3	0	0	0	0	504	246	
4	0	0	0	0	504	246	
5	0	0	0	0	504	246	
6	0	0	0	0	503	246	
7	0	0	0	0	500	245	
8	0	0	0	0	498	245	
9	0	0	0	0	496	246	
10	0	0	0	0	494	245	
11	0	0	0	0	491	245	
12	0	0	0	0	489	245	
13	0	0	0	0	487	246	
14	0	0	0	0	486	245	
15	0	0	0	0	485	246	
0	0	0	0	0	486	245	
1	0	0	0	0	487	246	
2	0	0	0	0	489	245	
3	0	0	0	0	491	246	
4	0	0	0	0	492	245	
5	0	0	0	0	494	246	
6	0	0	0	0	494	246	
7	0	0	0	0	493	245	
8	0	0	0	0	492	246	
9	0	0	0	0	491	245	
10	0	0	0	0	489	246	
11	0	0	0	0	487	245	
12	0	0	0	0	486	245	
13	0	0	0	0	484	245	
14	0	0	0	0	483	246	
15	0	0	0	0	482	246	
0	0	0	0	0	482	246	
1	0	0	0	0	482	245	
2	0	0	0	0	482	246	
3	0	0	0	0	483	245	
4	0	0	0	0	485	246	
5	0	0	0	0	487	246	
6	0	0	0	0	489	245	
7	0	0	0	0	490	246	
8	0	0	0	0	490	245	
9	0	0	0	0	489	246	
10	0	0	0	0	490	245	
11	0	0	0	0	490	246	
12	0	0	0	0	489	245	
13	0	0	0	0	487	246	
14	0	0	0	0	487	245	
15	0	0	0	0	486	246	
0	0	0	0	0	486	245	
1	0	0	0	0	486	246	
2	0	0	0	0	485	246	
3	0	0	0	0	486	246	
4	0	0	0	0	486	246	
5	0	0	0	0	488	245	
6	0	0	0	0	490	246	
7	0	0	0	0	491	245	
8	0	0	0	0	490	246	
9	0	0	0	0	489	245	
10	0	0	0	0	487	246	
11	0	0	0	0	486	246	
12	0	0	0	0	483	245	
13	0	0	0	0	481	246	
14	0	0	0	0	479	245	
15	0	0	0	0	476	246	
0	0	0	0	0	476	246	
1	0	0	0	0	475	246	
2	0	0	0	0	476	246	
3	0	0	0	0	478	245	
4	0	0	0	0	479	246	
5	0	0	0	0	481	246	
6	0	0	0	0	483	246	
7	0	0	0	0	486	245	
8	0	0	0	0	489	246	
9	0	0	0	0	494	245	
10	0	0	0	0	499	246	
11	0	0	0	0	506	246	
12	0	0	0	0	514	246	
13	0	0	0	0	524	246	
14	0	0	0	0	533	246	
15	0	0	0	0	544	246	
0	0	0	0	0	555	245	
1	0	0	0	0	568	246	
2	0	0	0	0	582	245	
3	0	0	0	0	594	246	
4	0	0	0	0	605	245	
5	0	0	0	0	615	246	
6	0	0	0	0	623	245	
7	0	0	0	0	630	246	
8	0	0	0	0	635	245	
9	0	0	0	0	640	246	
10	0	0	0	0	644	245	
11	0	0	0	0	645	246	
12	0	0	0	0	646	245	
13	0	0	0	0	647	246	
14	0	0	0	0	646	246	
15	0	0	0	0	644	246	
0	0	0	0	0	641	245	
1	0	0	0	0	636	246	
2	0	0	0	0	630	245	
3	0	0	0	0	623	246	
4	0	0	0	0	617	246	
5	0	0	0	0	612	245	
6	0	0	0	0	608	246	
7	0	0	0	0	603	244	
8	0	0	0	0	595	246	
9	0	0	0	0	587	245	
10	0	0	0	0	575	246	
11	0	0	0	0	563	246	
12	0	0	0	0	549	246	
13	0	0	0	0	535	246	
14	0	0	0	0	519	245	
15	0	0	0	0	506	246	
0	0	0	0	0	495	245	
1	0	0	0	0	486	246	
2	0	0	0	0	480	245	
3	0	0	0	0	476	246	
4	0	0	0	0	472	246	
5	0	0	0	0	468	246	
6	0	0	0	0	465	246	
7	0	0	0	0	464	246	
8	0	0	0	0	464	246	
9	0	0	0	0	463	246	
10	0	0	0	0	463	246	
11	0	0	0	0	464	246	
12	0	0	0	0	466	246	
13	0	0	0	0	467	245	
14	0	0	0	0	468	246	
15	0	0	0	0	468	246	
0	0	0	0	0	468	246	
1	0	0	0	0	468	246	
2	0	0	0	0	469	245	
3	0	0	0	0	470	246	
4	0	0	0	0	471	245	
5	0	0	0	0	473	246	
6	0	0	0	0	474	246	
7	0	0	0	0	476	246	
8	0	0	0	0	479	245	
9	0	0	0	0	480	246	
10	0	0	0	0	482	245	
11	0	0	0	0	484	246	
12	0	0	0	0	486	246	
13	0	0	0	0	486	246	
14	0	0	0	0	486	246	
15	0	0	0	0	485	245	
0	0	0	0	0	485	246	
1	0	0	0	0	484	245	
2	0	0	0	0	483	246	
3	0	0	0	0	484	246	
4	0	0	0	0	485	246	
5	0	0	0	0	487	246	
6	0	0	0	0	489	245	
7	0	0	0	0	492	246	
8	0	0	0	0	495	246	
9	0	0	0	0	497	246	
10	0	0	0	0	499	246	
11	0	0	0	0	499	246	
12	0	0	0	0	501	246	
13	0	0	0	0	502	246	
14	0	0	0	0	501	246	
15	0	0	0	0	502	245	
0	0	0	0	0	501	246	
1	0	0	0	0	500	245	
2	0	0	0	0	500	246	
3	0	0	0	0	501	246	
4	0	0	0	0	501	246	
5	0	0	0	0	501	246	
6	0	0	0	0	503	246	
7	0	0	0	0	506	246	
8	0	0	0	0	508	245	
9	0	0	0	0	509	246	
10	0	0	0	0	511	245	
11	0	0	0	0	512	246	
12	0	0	0	0	513	246	
13	0	0	0	0	513	246	
14	0	0	0	0	512	245	
15	0	0	0	0	511	246	
0	0	0	0	0	511	245	
1	0	0	0	0	510	246	
2	0	0	0	0	509	246	
3	0	0	0	0	508	246	
4	0	0	0	0	507	245	
5	0	0	0	0	507	246	
6	0	0	0	0	508	246	
7	0	0	0	0	508	246	
8	0	0	0	0	510	245	
9	0	0	0	0	511	246	
10	0	0	0	0	513	245	
11	0	0	0	0	516	246	
12	0	0	0	0	518	245	
13	0	0	0	0	518	246	
14	0	0	0	0	518	246	
15	0	0	0	0	517	246	
0	0	0	0	0	516	246	
1	0	0	0	0	514	246	
2	0	0	0	0	511	246	
3	0	0	0	0	508	246	
4	0	0	0	0	506	246	
5	0	0	0	0	504	245	
6	0	0	0	0	502	246	
7	0	0	0	0	500	245	
8	0	0	0	0	499	246	
9	0	0	0	0	499	245	
10	0	0	0	0	500	246	
11	0	0	0	0	499	246	
12	0	0	0	0	499	246	
13	0	0	0	0	498	246	
14	0	0	0	0	497	246	
15	0	0	0	0	495	245	
0	0	0	0	0	494	246	
1	0	0	0	0	493	245	
2	0	0	0	0	492	246	
3	0	0	0	0	491	246	
4	0	0	0	0	489	246	
5	0	0	0	0	489	246	
6	0	0	0	0	490	246	
7	0	0	0	0	491	246	
8	0	0	0	0	493	245	
9	0	0	0	0	496	246	
10	0	0	0	0	499	245	
11	0	0	0	0	504	246	
12	0	0	0	0	508	245	
13	0	0	0	0	512	246	
14	0	0	0	0	514	246	
15	0	0	0	0	515	246	
0	0	0	0	0	515	246	
1	0	0	0	0	514	245	
2	0	0	0	0	513	246	
3	0	0	0	0	512	246	
4	0	0	0	0	511	246	
5	0	0	0	0	511	245	
6	0	0	0	0	510	246	
7	0	0	0	0	510	245	
8	0	0	0	0	511	246	
9	0	0	0	0	512	245	
10	0	0	0	0	513	246	
11	0	0	0	0	515	245	
12	0	0	0	0	518	246	
13	0	0	0	0	520	245	
14	0	0	0	0	523	246	
15	0	0	0	0	525	246	
0	0	0	0	0	525	246	
1	0	0	0	0	525	246	
2	0	0	0	0	523	246	
3	0	0	0	0	522	246	
4	0	0	0	0	521	246	
5	0	0	0	0	520	246	
6	0	0	0	0	518	246	
7	0	0	0	0	517	246	
8	0	0	0	0	515	246	
9	0	0	0	0	515	246	
10	0	0	0	0	516	246	
11	0	0	0	0	517	245	
12	0	0	0	0	518	246	
13	0	0	0	0	520	246	
14	0	0	0	0	521	246	
15	0	0	0	0	522	246	
0	0	0	0	0	523	246	
1	0	0	0	0	522	246	
2	0	0	0	0	519	245	
3	0	0	0	0	518	246	
4	0	0	0	0	516	245	
5	0	0	0	0	515	246	
6	0	0	0	0	514	246	
7	0	0	0	0	512	246	
8	0	0	0	0	513	246	
9	0	0	0	0	513	246	
10	0	0	0	0	514	246	
11	0	0	0	0	517	246	
12	0	0	0	0	519	246	
13	0	0	0	0	521	246	
14	0	0	0	0	522	246	
15	0	0	0	0	524	245	
0	0	0	0	0	525	246	
1	0	0	0	0	525	245	
2	0	0	0	0	526	246	
3	0	0	0	0	526	246	
4	0	0	0	0	525	246	
5	0	0	0	0	525	246	
6	0	0	0	0	524	245	
7	0	0	0	0	523	246	
8	0	0	0	0	523	245	
9	0	0	0	0	523	246	
10	0	0	0	0	524	245	
11	0	0	0	0	526	246	
12	0	0	0	0	530	245	
13	0	0	0	0	534	246	
14	0	0	0	0	537	245	
15	0	0	0	0	541	246	
0	0	0	0	0	544	245	
1	0	0	0	0	547	246	
2	0	0	0	0	548	245	
3	0	0	0	0	548	246	
4	0	0	0	0	548	246	
5	0	0	0	0	547	246	
6	0	0	0	0	546	246	
7	0	0	0	0	545	246	
8	0	0	0	0	545	246	
9	0	0	0	0	545	246	
10	0	0	0	0	545	246	
11	0	0	0	0	546	246	
12	0	0	0	0	548	246	
13	0	0	0	0	550	246	
14	0	0	0	0	553	246	
15	0	0	0	0	555	246	
0	0	0	0	0	556	246	
1	0	0	0	0	557	246	
2	0	0	0	0	557	245	
3	0	0	0	0	556	246	
4	0	0	0	0	555	245	
5	0	0	0	0	554	246	
6	0	0	0	0	553	245	
7	0	0	0	0	550	246	
8	0	0	0	0	548	245	
9	0	0	0	0	547	246	
10	0	0	0	0	547	245	
11	0	0	0	0	548	246	
12	0	0	0	0	550	245	
13	0	0	0	0	552	246	
14	0	0	0	0	554	245	
15	0	0	0	0	557	246	
0	0	0	0	0	559	245	
1	0	0	0	0	561	246	
2	0	0	0	0	565	246	
3	0	0	0	0	567	246	
4	0	0	0	0	569	245	
5	0	0	0	0	570	246	
6	0	0	0	0	571	245	
7	0	0	0	0	572	246	
8	0	0	0	0	570	246	
9	0	0	0	0	568	246	
10	0	0	0	0	568	246	
11	0	0	0	0	567	245	
12	0	0	0	0	568	246	
13	0	0	0	0	568	245	
14	0	0	0	0	569	246	
15	0	0	0	0	570	246	
0	0	0	0	0	572	246	
1	0	0	0	0	574	246	
2	0	0	0	0	574	246	
3	0	0	0	0	574	246	
4	0	0	0	0	575	245	
5	0	0	0	0	574	246	
6	0	0	0	0	573	245	
7	0	0	0	0	571	246	
8	0	0	0	0	570	245	
9	0	0	0	0	568	246	
10	0	0	0	0	566	245	
11	0	0	0	0	564	246	
12	0	0	0	0	561	246	
13	0	0	0	0	560	246	
14	0	0	0	0	559	246	
15	0	0	0	0	559	246	
0	0	0	0	0	560	246	
1	0	0	0	0	560	245	
2	0	0	0	0	560	246	
3	0	0	0	0	559	245	
4	0	0	0	0	557	246	
5	0	0	0	0	555	245	
6	0	0	0	0	551	246	
7	0	0	0	0	547	245	
8	0	0	0	0	543	246	
9	0	0	0	0	539	246	
10	0	0	0	0	536	246	
11	0	0	0	0	532	246	
12	0	0	0	0	530	245	
13	0	0	0	0	527	246	
14	0	0	0	0	526	245	
15	0	0	0	0	524	246	
0	0	0	0	0	522	245	
1	0	0	0	0	521	246	
2	0	0	0	0	520	246	
3	0	0	0	0	519	246	
4	0	0	0	0	518	246	
5	0	0	0	0	516	245	
6	0	0	0	0	514	246	
7	0	0	0	0	512	245	
8	0	0	0	0	510	246	
9	0	0	0	0	506	246	
10	0	0	0	0	502	246	
11	0	0	0	0	499	246	
12	0	0	0	0	497	246	
13	0	0	0	0	495	246	
14	0	0	0	0	492	245	
15	0	0	0	0	491	246	
0	0	0	0	0	489	246	
1	0	0	0	0	489	246	
2	0	0	0	0	487	246	
3	0	0	0	0	487	245	
4	0	0	0	0	487	246	
5	0	0	0	0	485	245	
6	0	0	0	0	483	246	
7	0	0	0	0	480	246	
8	0	0	0	0	479	246	
9	0	0	0	0	477	246	
10	0	0	0	0	474	245	
11	0	0	0	0	472	246	
12	0	0	0	0	471	246	
13	0	0	0	0	471	246	
14	0	0	0	0	470	246	
15	0	0	0	0	470	246	
0	0	0	0	0	472	246	
1	0	0	0	0	473	246	
2	0	0	0	0	474	246	
3	0	0	0	0	475	246	
4	0	0	0	0	476	246	
5	0	0	0	0	476	245	
6	0	0	0	0	476	246	
7	0	0	0	0	475	246	
8	0	0	0	0	474	246	
9	0	0	0	0	472	246	
10	0	0	0	0	469	245	
11	0	0	0	0	466	246	
12	0	0	0	0	464	245	
13	0	0	0	0	462	246	
14	0	0	0	0	459	246	
15	0	0	0	0	457	246	
0	0	0	0	0	457	246	
1	0	0	0	0	458	245	
2	0	0	0	0	459	246	
3	0	0	0	0	461	246	
4	0	0	0	0	464	246	
5	0	0	0	0	466	246	
6	0	0	0	0	468	246	
7	0	0	0	0	468	246	
8	0	0	0	0	467	245	
9	0	0	0	0	466	246	
10	0	0	0	0	465	246	
11	0	0	0	0	463	246	
12	0	0	0	0	463	246	
13	0	0	0	0	463	246	
14	0	0	0	0	462	246	
15	0	0	0	0	462	245	
0	0	0	0	0	463	246	
1	0	0	0	0	464	246	
2	0	0	0	0	467	246	
3	0	0	0	0	469	246	
4	0	0	0	0	471	246	
5	0	0	0	0	473	246	
6	0	0	0	0	474	245	
7	0	0	0	0	474	246	
8	0	0	0	0	473	246	
9	0	0	0	0	472	246	
10	0	0	0	0	470	246	
11	0	0	0	0	468	246	
12	0	0	0	0	467	246	
13	0	0	0	0	465	245	
14	0	0	0	0	464	246	
15	0	0	0	0	464	246	
0	0	0	0	0	464	246	
1	0	0	0	0	465	246	
2	0	0	0	0	467	246	
3	0	0	0	0	468	246	
4	0	0	0	0	470	245	
5	0	0	0	0	472	246	
6	0	0	0	0	475	245	
7	0	0	0	0	479	246	
8	0	0	0	0	482	245	
9	0	0	0	0	483	246	
10	0	0	0	0	481	246	
11	0	0	0	0	479	246	
12	0	0	0	0	477	246	
13	0	0	0	0	474	246	
14	0	0	0	0	471	246	
15	0	0	0	0	469	246	
0	0	0	0	0	468	246	
1	0	0	0	0	469	246	
2	0	0	0	0	470	246	
3	0	0	0	0	472	245	
4	0	0	0	0	474	246	
5	0	0	0	0	477	246	
6	0	0	0	0	480	246	
7	0	0	0	0	483	246	
8	0	0	0	0	484	246	
9	0	0	0	0	485	246	
10	0	0	0	0	485	246	
11	0	0	0	0	486	246	
12	0	0	0	0	486	245	
13	0	0	0	0	486	246	
14	0	0	0	0	484	245	
15	0	0	0	0	483	246	
0	0	0	0	0	482	246	
1	0	0	0	0	481	246	
2	0	0	0	0	480	246	
3	0	0	0	0	480	245	
4	0	0	0	0	481	246	
5	0	0	0	0	483	245	
6	0	0	0	0	484	246	
7	0	0	0	0	485	245	
8	0	0	0	0	484	246	
9	0	0	0	0	484	246	
10	0	0	0	0	484	246	
11	0	0	0	0	484	246	
12	0	0	0	0	483	245	
13	0	0	0	0	482	246	
14	0	0	0	0	482	246	
15	0	0	0	0	482	246	
0	0	0	0	0	481	246	
1	0	0	0	0	481	246	
2	0	0	0	0	483	246	
3	0	0	0	0	483	245	
4	0	0	0	0	486	246	
5	0	0	0	0	489	246	
6	0	0	0	0	491	246	
7	0	0	0	0	494	246	
8	0	0	0	0	498	246	
9	0	0	0	0	502	246	
10	0	0	0	0	505	245	
11	0	0	0	0	507	246	
12	0	0	0	0	509	245	
13	0	0	0	0	511	246	
14	0	0	0	0	512	245	
15	0	0	0	0	512	246	
0	0	0	0	0	512	245	
1	0	0	0	0	513	246	
2	0	0	0	0	515	245	
3	0	0	0	0	517	246	
4	0	0	0	0	519	246	
5	0	0	0	0	520	245	
6	0	0	0	0	523	246	
7	0	0	0	0	526	245	
8	0	0	0	0	529	246	
9	0	0	0	0	531	245	
10	0	0	0	0	533	246	
11	0	0	0	0	535	246	
12	0	0	0	0	536	245	
13	0	0	0	0	535	246	
14	0	0	0	0	532	245	
15	0	0	0	0	530	246	
0	0	0	0	0	528	245	
1	0	0	0	0	527	246	
2	0	0	0	0	527	246	
3	0	0	0	0	528	245	
4	0	0	0	0	529	246	
5	0	0	0	0	531	245	
6	0	0	0	0	533	246	
7	0	0	0	0	535	245	
8	0	0	0	0	537	246	
9	0	0	0	0	541	246	
10	0	0	0	0	543	245	
11	0	0	0	0	544	246	
12	0	0	0	0	545	245	
13	0	0	0	0	545	246	
14	0	0	0	0	544	245	
15	0	0	0	0	544	246	
0	0	0	0	0	543	245	
1	0	0	0	0	543	246	
2	0	0	0	0	544	246	
3	0	0	0	0	545	246	
4	0	0	0	0	546	246	
5	0	0	0	0	548	245	
6	0	0	0	0	551	246	
7	0	0	0	0	554	245	
8	0	0	0	0	558	246	
9	0	0	0	0	560	245	
10	0	0	0	0	563	246	
11	0	0	0	0	564	246	
12	0	0	0	0	566	245	
13	0	0	0	0	566	246	
14	0	0	0	0	567	245	
15	0	0	0	0	568	246	
0	0	0	0	0	568	245	
1	0	0	0	0	568	246	
2	0	0	0	0	568	245	
3	0	0	0	0	567	246	
4	0	0	0	0	566	246	
5	0	0	0	0	566	246	
6	0	0	0	0	566	246	
7	0	0	0	0	567	246	
8	0	0	0	0	569	246	
9	0	0	0	0	572	245	
10	0	0	0	0	573	246	
11	0	0	0	0	574	245	
12	0	0	0	0	575	246	
13	0	0	0	0	575	245	
14	0	0	0	0	575	246	
15	0	0	0	0	573	245	
0	0	0	0	0	572	246	
1	0	0	0	0	569	246	
2	0	0	0	0	566	245	
3	0	0	0	0	564	246	
4	0	0	0	0	564	245	
5	0	0	0	0	564	246	
6	0	0	0	0	565	245	
7	0	0	0	0	567	246	
8	0	0	0	0	570	245	
9	0	0	0	0	573	246	
10	0	0	0	0	577	245	
11	0	0	0	0	581	246	
12	0	0	0	0	583	245	
13	0	0	0	0	586	246	
14	0	0	0	0	587	245	
15	0	0	0	0	588	246	
0	0	0	0	0	588	245	
1	0	0	0	0	588	246	
2	0	0	0	0	587	245	
3	0	0	0	0	587	246	
4	0	0	0	0	587	245	
5	0	0	0	0	588	246	
6	0	0	0	0	589	245	
7	0	0	0	0	591	246	
8	0	0	0	0	594	245	
9	0	0	0	0	596	246	
10	0	0	0	0	600	245	
11	0	0	0	0	603	246	
12	0	0	0	0	606	246	
13	0	0	0	0	609	246	
14	0	0	0	0	610	246	
15	0	0	0	0	612	245	
0	0	0	0	0	612	246	
1	0	0	0	0	613	244	
2	0	0	0	0	612	246	
3	0	0	0	0	609	245	
4	0	0	0	0	608	246	
5	0	0	0	0	606	245	
6	0	0	0	0	604	246	
7	0	0	0	0	603	245	
8	0	0	0	0	602	246	
9	0	0	0	0	603	246	
10	0	0	0	0	604	244	
11	0	0	0	0	605	246	
12	0	0	0	0	607	245	
13	0	0	0	0	608	246	
14	0	0	0	0	609	245	
15	0	0	0	0	609	246	
0	0	0	0	0	608	246	
1	0	0	0	0	608	245	
2	0	0	0	0	607	246	
3	0	0	0	0	606	244	
4	0	0	0	0	603	246	
5	0	0	0	0	601	245	
6	0	0	0	0	600	246	
7	0	0	0	0	598	245	
8	0	0	0	0	596	246	
9	0	0	0	0	595	246	
10	0	0	0	0	595	245	
11	0	0	0	0	596	246	
12	0	0	0	0	599	244	
13	0	0	0	0	600	246	
14	0	0	0	0	603	245	
15	0	0	0	0	606	246	
0	0	0	0	0	608	245	
1	0	0	0	0	609	246	
2	0	0	0	0	609	245	
3	0	0	0	0	611	246	
4	0	0	0	0	610	246	
5	0	0	0	0	610	245	
6	0	0	0	0	611	246	
7	0	0	0	0	610	245	
8	0	0	0	0	610	246	
9	0	0	0	0	611	245	
10	0	0	0	0	612	246	
11	0	0	0	0	613	245	
12	0	0	0	0	615	246	
13	0	0	0	0	617	245	
14	0	0	0	0	618	246	
15	0	0	0	0	617	245	
0	0	0	0	0	616	246	
1	0	0	0	0	615	245	
2	0	0	0	0	614	246	
3	0	0	0	0	611	245	
4	0	0	0	0	607	246	
5	0	0	0	0	603	246	
6	0	0	0	0	600	244	
7	0	0	0	0	598	246	
8	0	0	0	0	596	245	
9	0	0	0	0	595	246	
10	0	0	0	0	594	245	
11	0	0	0	0	594	246	
12	0	0	0	0	594	245	
13	0	0	0	0	594	246	
14	0	0	0	0	594	245	
15	0	0	0	0	593	246	
0	0	0	0	0	593	246	
1	0	0	0	0	593	245	
2	0	0	0	0	591	246	
3	0	0	0	0	590	246	
4	0	0	0	0	587	246	
5	0	0	0	0	584	245	
6	0	0	0	0	583	245	
7	0	0	0	0	580	245	
8	0	0	0	0	579	246	
9	0	0	0	0	579	245	
10	0	0	0	0	580	246	
11	0	0	0	0	580	246	
12	0	0	0	0	580	245	
13	0	0	0	0	583	246	
14	0	0	0	0	585	245	
15	0	0	0	0	586	246	
0	0	0	0	0	587	245	
1	0	0	0	0	590	246	
2	0	0	0	0	590	246	
3	0	0	0	0	588	245	
4	0	0	0	0	586	246	
5	0	0	0	0	583	245	
6	0	0	0	0	579	246	
7	0	0	0	0	576	245	
8	0	0	0	0	573	246	
9	0	0	0	0	571	245	
10	0	0	0	0	569	245	
11	0	0	0	0	568	245	
12	0	0	0	0	569	246	
13	0	0	0	0	571	245	
14	0	0	0	0	571	246	
15	0	0	0	0	571	245	
0	0	0	0	0	572	245	
1	0	0	0	0	572	246	
2	0	0	0	0	573	245	
3	0	0	0	0	573	245	
4	0	0	0	0	572	246	
5	0	0	0	0	570	246	
6	0	0	0	0	568	245	
7	0	0	0	0	564	246	
8	0	0	0	0	560	245	
9	0	0	0	0	558	246	
10	0	0	0	0	556	245	
11	0	0	0	0	555	246	
12	0	0	0	0	555	245	
13	0	0	0	0	556	246	
14	0	0	0	0	556	245	
15	0	0	0	0	556	246	
0	0	0	0	0	555	246	
1	0	0	0	0	554	245	
2	0	0	0	0	553	245	
3	0	0	0	0	551	245	
4	0	0	0	0	547	246	
5	0	0	0	0	543	245	
6	0	0	0	0	538	246	
7	0	0	0	0	534	245	
8	0	0	0	0	529	246	
9	0	0	0	0	526	246	
10	0	0	0	0	521	245	
11	0	0	0	0	518	246	
12	0	0	0	0	515	245	
13	0	0	0	0	512	246	
14	0	0	0	0	510	245	
15	0	0	0	0	509	246	
0	0	0	0	0	508	245	
1	0	0	0	0	508	246	
2	0	0	0	0	507	245	
3	0	0	0	0	507	245	
4	0	0	0	0	507	245	
5	0	0	0	0	504	246	
6	0	0	0	0	502	245	
7	0	0	0	0	497	246	
8	0	0	0	0	493	245	
9	0	0	0	0	488	246	
10	0	0	0	0	483	246	
11	0	0	0	0	480	245	
12	0	0	0	0	478	246	
13	0	0	0	0	477	245	
14	0	0	0	0	476	245	
15	0	0	0	0	476	245	
0	0	0	0	0	476	245	
1	0	0	0	0	478	245	
2	0	0	0	0	478	245	
3	0	0	0	0	479	245	
4	0	0	0	0	480	246	
5	0	0	0	0	481	245	
6	0	0	0	0	480	246	
7	0	0	0	0	478	246	
8	0	0	0	0	475	246	
9	0	0	0	0	473	246	
10	0	0	0	0	471	245	
11	0	0	0	0	470	246	
12	0	0	0	0	469	245	
13	0	0	0	0	468	245	
14	0	0	0	0	469	245	
15	0	0	0	0	471	246	
0	0	0	0	0	472	245	
1	0	0	0	0	475	245	
2	0	0	0	0	477	246	
3	0	0	0	0	478	245	
4	0	0	0	0	480	246	
5	0	0	0	0	480	245	
6	0	0	0	0	480	246	
7	0	0	0	0	477	245	
8	0	0	0	0	475	246	
9	0	0	0	0	474	245	
10	0	0	0	0	473	245	
11	0	0	0	0	472	245	
12	0	0	0	0	472	246	
13	0	0	0	0	475	245	
14	0	0	0	0	477	245	
15	0	0	0	0	480	245	
0	0	0	0	0	485	245	
1	0	0	0	0	490	245	
2	0	0	0	0	494	246	
3	0	0	0	0	496	246	
4	0	0	0	0	497	246	
5	0	0	0	0	498	245	
6	0	0	0	0	500	245	
7	0	0	0	0	499	246	
8	0	0	0	0	499	245	
9	0	0	0	0	499	246	
10	0	0	0	0	498	245	
11	0	0	0	0	499	245	
12	0	0	0	0	498	245	
13	0	0	0	0	497	246	
14	0	0	0	0	496	245	
15	0	0	0	0	497	246	
0	0	0	0	0	496	245	
1	0	0	0	0	497	245	
2	0	0	0	0	497	246	
3	0	0	0	0	496	245	
4	0	0	0	0	493	246	
5	0	0	0	0	492	245	
6	0	0	0	0	489	246	
7	0	0	0	0	487	245	
8	0	0	0	0	484	246	
9	0	0	0	0	483	245	
10	0	0	0	0	482	246	
11	0	0	0	0	480	245	
12	0	0	0	0	478	246	
13	0	0	0	0	478	245	
14	0	0	0	0	477	246	
15	0	0	0	0	477	245	
0	0	0	0	0	479	245	
1	0	0	0	0	480	245	
2	0	0	0	0	482	245	
3	0	0	0	0	483	245	
4	0	0	0	0	486	246	
5	0	0	0	0	488	246	
6	0	0	0	0	488	245	
7	0	0	0	0	488	246	
8	0	0	0	0	488	245	
9	0	0	0	0	488	245	
10	0	0	0	0	485	245	
11	0	0	0	0	484	245	
12	0	0	0	0	482	245	
13	0	0	0	0	480	246	
14	0	0	0	0	478	245	
15	0	0	0	0	477	246	
0	0	0	0	0	476	245	
1	0	0	0	0	476	246	
2	0	0	0	0	475	245	
3	0	0	0	0	475	245	
4	0	0	0	0	477	246	
5	0	0	0	0	479	245	
6	0	0	0	0	481	245	
7	0	0	0	0	483	245	
8	0	0	0	0	484	246	
9	0	0	0	0	484	245	
10	0	0	0	0	485	246	
11	0	0	0	0	486	245	
12	0	0	0	0	486	246	
13	0	0	0	0	485	245	
14	0	0	0	0	483	245	
15	0	0	0	0	483	245	
0	0	0	0	0	483	245	
1	0	0	0	0	483	245	
2	0	0	0	0	486	245	
3	0	0	0	0	488	245	
4	0	0	0	0	491	245	
5	0	0	0	0	493	245	
6	0	0	0	0	495	246	
7	0	0	0	0	498	245	
8	0	0	0	0	499	245	
9	0	0	0	0	500	245	
10	0	0	0	0	501	246	
11	0	0	0	0	502	246	
12	0	0	0	0	501	246	
13	0	0	0	0	500	246	
14	0	0	0	0	497	245	
15	0	0	0	0	495	246	
0	0	0	0	0	495	245	
1	0	0	0	0	494	245	
2	0	0	0	0	495	245	
3	0	0	0	0	497	245	
4	0	0	0	0	499	245	
5	0	0	0	0	503	245	
6	0	0	0	0	505	245	
7	0	0	0	0	509	246	
8	0	0	0	0	511	246	
9	0	0	0	0	512	245	
10	0	0	0	0	512	245	
11	0	0	0	0	512	245	
12	0	0	0	0	511	245	
13	0	0	0	0	510	245	
14	0	0	0	0	508	245	
15	0	0	0	0	507	245	
0	0	0	0	0	504	245	
1	0	0	0	0	504	245	
2	0	0	0	0	504	245	
3	0	0	0	0	505	245	
4	0	0	0	0	506	246	
5	0	0	0	0	507	246	
6	0	0	0	0	509	245	
7	0	0	0	0	511	245	
8	0	0	0	0	513	245	
9	0	0	0	0	515	245	
10	0	0	0	0	516	245	
11	0	0	0	0	516	245	
12	0	0	0	0	515	245	
13	0	0	0	0	515	245	
14	0	0	0	0	514	245	
15	0	0	0	0	514	245	
0	0	0	0	0	514	245	
1	0	0	0	0	514	245	
2	0	0	0	0	515	246	
3	0	0	0	0	516	245	
4	0	0	0	0	518	245	
5	0	0	0	0	519	245	
6	0	0	0	0	521	246	
7	0	0	0	0	521	245	
8	0	0	0	0	521	245	
9	0	0	0	0	520	245	
10	0	0	0	0	520	245	
11	0	0	0	0	519	245	
12	0	0	0	0	518	245	
13	0	0	0	0	518	245	
14	0	0	0	0	515	245	
15	0	0	0	0	512	245	
0	0	0	0	0	509	245	
1	0	0	0	0	507	245	
2	0	0	0	0	504	245	
3	0	0	0	0	504	245	
4	0	0	0	0	504	245	
5	0	0	0	0	504	246	
6	0	0	0	0	504	245	
7	0	0	0	0	507	245	
8	0	0	0	0	509	245	
9	0	0	0	0	509	245	
10	0	0	0	0	509	245	
11	0	0	0	0	510	245	
12	0	0	0	0	509	245	
13	0	0	0	0	509	245	
14	0	0	0	0	508	245	
15	0	0	0	0	507	245	
0	0	0	0	0	505	245	
1	0	0	0	0	503	245	
2	0	0	0	0	502	245	
3	0	0	0	0	500	245	
4	0	0	0	0	500	245	
5	0	0	0	0	501	245	
6	0	0	0	0	503	245	
7	0	0	0	0	505	245	
8	0	0	0	0	507	245	
9	0	0	0	0	508	245	
10	0	0	0	0	509	245	
11	0	0	0	0	511	245	
12	0	0	0	0	511	245	
13	0	0	0	0	511	245	
14	0	0	0	0	510	245	
15	0	0	0	0	510	245	
0	0	0	0	0	508	246	
1	0	0	0	0	506	245	
2	0	0	0	0	503	245	
3	0	0	0	0	499	245	
4	0	0	0	0	498	245	
5	0	0	0	0	498	245	
6	0	0	0	0	498	245	
7	0	0	0	0	498	245	
8	0	0	0	0	499	245	
9	0	0	0	0	501	245	
10	0	0	0	0	502	245	
11	0	0	0	0	504	246	
12	0	0	0	0	505	245	
13	0	0	0	0	505	245	
14	0	0	0	0	505	245	
15	0	0	0	0	505	245	
0	0	0	0	0	505	245	
1	0	0	0	0	503	245	
2	0	0	0	0	502	245	
3	0	0	0	0	501	245	
4	0	0	0	0	501	245	
5	0	0	0	0	501	245	
6	0	0	0	0	503	245	
7	0	0	0	0	506	246	
8	0	0	0	0	508	244	
9	0	0	0	0	511	245	
10	0	0	0	0	512	245	
11	0	0	0	0	514	245	
12	0	0	0	0	515	245	
13	0	0	0	0	515	245	
14	0	0	0	0	514	245	
15	0	0	0	0	513	245	
0	0	0	0	0	513	245	
1	0	0	0	0	512	245	
2	0	0	0	0	511	245	
3	0	0	0	0	511	245	
4	0	0	0	0	509	245	
5	0	0	0	0	508	246	
6	0	0	0	0	507	244	
7	0	0	0	0	508	245	
8	0	0	0	0	508	245	
9	0	0	0	0	509	245	
10	0	0	0	0	510	245	
11	0	0	0	0	511	245	
12	0	0	0	0	512	246	
13	0	0	0	0	513	245	
14	0	0	0	0	512	245	
15	0	0	0	0	511	245	
0	0	0	0	0	510	245	
1	0	0	0	0	508	244	
2	0	0	0	0	506	245	
3	0	0	0	0	503	245	
4	0	0	0	0	502	245	
5	0	0	0	0	499	245	
6	0	0	0	0	499	245	
7	0	0	0	0	498	244	
8	0	0	0	0	499	245	
9	0	0	0	0	499	245	
10	0	0	0	0	500	245	
11	0	0	0	0	501	245	
12	0	0	0	0	502	245	
13	0	0	0	0	504	245	
14	0	0	0	0	504	245	
15	0	0	0	0	505	245	
0	0	0	0	0	504	245	
1	0	0	0	0	504	245	
2	0	0	0	0	502	245	
3	0	0	0	0	500	245	
4	0	0	0	0	499	245	
5	0	0	0	0	499	245	
6	0	0	0	0	497	245	
7	0	0	0	0	495	245	
8	0	0	0	0	495	245	
9	0	0	0	0	495	245	
10	0	0	0	0	495	245	
11	0	0	0	0	496	245	
12	0	0	0	0	497	245	
13	0	0	0	0	500	245	
14	0	0	0	0	501	245	
15	0	0	0	0	499	245	
0	0	0	0	0	498	245	
1	0	0	0	0	496	245	
2	0	0	0	0	493	245	
3	0	0	0	0	492	245	
4	0	0	0	0	491	245	
5	0	0	0	0	491	245	
6	0	0	0	0	492	245	
7	0	0	0	0	493	245	
8	0	0	0	0	495	244	
9	0	0	0	0	497	245	
10	0	0	0	0	500	245	
11	0	0	0	0	504	245	
12	0	0	0	0	506	245	
13	0	0	0	0	509	245	
14	0	0	0	0	511	245	
15	0	0	0	0	511	245	
0	0	0	0	0	511	245	
1	0	0	0	0	508	245	
2	0	0	0	0	505	245	
3	0	0	0	0	504	245	
4	0	0	0	0	501	245	
5	0	0	0	0	500	245	
6	0	0	0	0	498	245	
7	0	0	0	0	497	245	
8	0	0	0	0	494	245	
9	0	0	0	0	493	245	
10	0	0	0	0	492	245	
11	0	0	0	0	492	244	
12	0	0	0	0	492	245	
13	0	0	0	0	492	245	
14	0	0	0	0	492	245	
15	0	0	0	0	492	245	
0	0	0	0	0	492	245	
1	0	0	0	0	491	245	
2	0	0	0	0	489	245	
3	0	0	0	0	487	245	
4	0	0	0	0	483	245	
5	0	0	0	0	481	245	
6	0	0	0	0	479	245	
7	0	0	0	0	477	245	
8	0	0	0	0	475	245	
9	0	0	0	0	473	245	
10	0	0	0	0	473	245	
11	0	0	0	0	473	245	
12	0	0	0	0	472	245	
13	0	0	0	0	473	245	
14	0	0	0	0	472	245	
15	0	0	0	0	473	245	
0	0	0	0	0	473	245	
1	0	0	0	0	474	245	
2	0	0	0	0	473	245	
3	0	0	0	0	472	245	
4	0	0	0	0	470	245	
5	0	0	0	0	468	245	
6	0	0	0	0	465	245	
7	0	0	0	0	462	245	
8	0	0	0	0	460	245	
9	0	0	0	0	458	245	
10	0	0	0	0	457	245	
11	0	0	0	0	455	245	
12	0	0	0	0	456	245	
13	0	0	0	0	457	245	
14	0	0	0	0	458	245	
15	0	0	0	0	459	245	
0	0	0	0	0	460	245	
1	0	0	0	0	461	245	
2	0	0	0	0	460	245	
3	0	0	0	0	461	245	
4	0	0	0	0	460	245	
5	0	0	0	0	460	245	
6	0	0	0	0	458	245	
7	0	0	0	0	456	245	
8	0	0	0	0	455	245	
9	0	0	0	0	454	245	
10	0	0	0	0	452	245	
11	0	0	0	0	452	245	
12	0	0	0	0	451	245	
13	0	0	0	0	451	245	
14	0	0	0	0	451	245	
15	0	0	0	0	452	244	
0	0	0	0	0	454	245	
1	0	0	0	0	455	245	
2	0	0	0	0	456	245	
3	0	0	0	0	457	245	
4	0	0	0	0	458	245	
5	0	0	0	0	460	245	
6	0	0	0	0	462	245	
7	0	0	0	0	462	245	
8	0	0	0	0	460	244	
9	0	0	0	0	459	245	
10	0	0	0	0	457	245	
11	0	0	0	0	456	245	
12	0	0	0	0	456	245	
13	0	0	0	0	457	245	
14	0	0	0	0	458	245	
15	0	0	0	0	459	245	
0	0	0	0	0	460	245	
1	0	0	0	0	459	245	
2	0	0	0	0	458	245	
3	0	0	0	0	456	244	
4	0	0	0	0	455	245	
5	0	0	0	0	453	245	
6	0	0	0	0	451	245	
7	0	0	0	0	449	245	
8	0	0	0	0	447	245	
9	0	0	0	0	445	245	
10	0	0	0	0	444	244	
11	0	0	0	0	444	245	
12	0	0	0	0	444	245	
13	0	0	0	0	446	245	
14	0	0	0	0	449	245	
15	0	0	0	0	452	245	
0	0	0	0	0	456	245	
1	0	0	0	0	460	244	
2	0	0	0	0	463	245	
3	0	0	0	0	467	245	
4	0	0	0	0	470	245	
5	0	0	0	0	472	245	
6	0	0	0	0	473	245	
7	0	0	0	0	473	245	
8	0	0	0	0	473	244	
9	0	0	0	0	474	245	
10	0	0	0	0	476	245	
11	0	0	0	0	480	245	
12	0	0	0	0	487	245	
13	0	0	0	0	497	245	
14	0	0	0	0	507	245	
15	0	0	0	0	517	244	
0	0	0	0	0	528	245	
1	0	0	0	0	540	244	
2	0	0	0	0	551	245	
3	0	0	0	0	563	245	
4	0	0	0	0	574	245	
5	0	0	0	0	583	245	
6	0	0	0	0	590	244	
7	0	0	0	0	596	245	
8	0	0	0	0	600	244	
9	0	0	0	0	602	245	
10	0	0	0	0	604	245	
11	0	0	0	0	604	244	
12	0	0	0	0	605	245	
13	0	0	0	0	604	244	
14	0	0	0	0	605	245	
15	0	0	0	0	605	244	
0	0	0	0	0	605	245	
1	0	0	0	0	604	245	
2	0	0	0	0	602	245	
3	0	0	0	0	599	245	
4	0	0	0	0	594	245	
5	0	0	0	0	588	245	
6	0	0	0	0	582	245	
7	0	0	0	0	574	245	
8	0	0	0	0	566	245	
9	0	0	0	0	557	245	
10	0	0	0	0	545	244	
11	0	0	0	0	533	245	
12	0	0	0	0	520	245	
13	0	0	0	0	505	245	
14	0	0	0	0	490	245	
15	0	0	0	0	478	245	
0	0	0	0	0	469	245	
1	0	0	0	0	460	245	
2	0	0	0	0	454	245	
3	0	0	0	0	449	245	
4	0	0	0	0	445	245	
5	0	0	0	0	440	245	
6	0	0	0	0	435	245	
7	0	0	0	0	430	245	
8	0	0	0	0	425	245	
9	0	0	0	0	422	245	
10	0	0	0	0	419	244	
11	0	0	0	0	416	245	
12	0	0	0	0	414	245	
13	0	0	0	0	412	245	
14	0	0	0	0	412	245	
15	0	0	0	0	412	245	
0	0	0	0	0	414	245	
1	0	0	0	0	416	245	
2	0	0	0	0	419	245	
3	0	0	0	0	422	245	
4	0	0	0	0	425	245	
5	0	0	0	0	428	245	
6	0	0	0	0	429	245	
7	0	0	0	0	431	245	
8	0	0	0	0	431	245	
9	0	0	0	0	430	245	
10	0	0	0	0	428	245	
11	0	0	0	0	426	245	
12	0	0	0	0	424	245	
13	0	0	0	0	423	245	
14	0	0	0	0	423	245	
15	0	0	0	0	424	245	
0	0	0	0	0	425	244	
1	0	0	0	0	427	245	
2	0	0	0	0	429	244	
3	0	0	0	0	431	245	
4	0	0	0	0	433	245	
5	0	0	0	0	435	245	
6	0	0	0	0	437	245	
7	0	0	0	0	438	245	
8	0	0	0	0	439	245	
9	0	0	0	0	440	244	
10	0	0	0	0	439	245	
11	0	0	0	0	438	245	
12	0	0	0	0	437	245	
13	0	0	0	0	436	245	
14	0	0	0	0	435	245	
15	0	0	0	0	435	245	
0	0	0	0	0	435	245	
1	0	0	0	0	437	245	
2	0	0	0	0	438	244	
3	0	0	0	0	440	245	
4	0	0	0	0	441	245	
5	0	0	0	0	442	245	
6	0	0	0	0	442	245	
7	0	0	0	0	441	245	
8	0	0	0	0	440	245	
9	0	0	0	0	439	244	
10	0	0	0	0	438	245	
11	0	0	0	0	438	244	
12	0	0	0	0	435	245	
13	0	0	0	0	433	245	
14	0	0	0	0	432	245	
15	0	0	0	0	432	245	
0	0	0	0	0	431	245	
1	0	0	0	0	431	245	
2	0	0	0	0	431	245	
3	0	0	0	0	433	245	
4	0	0	0	0	435	244	
5	0	0	0	0	438	245	
6	0	0	0	0	440	244	
7	0	0	0	0	442	245	
8	0	0	0	0	443	245	
9	0	0	0	0	443	245	
10	0	0	0	0	441	244	
11	0	0	0	0	440	245	
12	0	0	0	0	438	245	
13	0	0	0	0	438	245	
14	0	0	0	0	437	245	
15	0	0	0	0	436	244	
0	0	0	0	0	435	245	
1	0	0	0	0	436	244	
2	0	0	0	0	437	245	
3	0	0	0	0	439	245	
4	0	0	0	0	440	245	
5	0	0	0	0	442	245	
6	0	0	0	0	443	245	
7	0	0	0	0	443	245	
8	0	0	0	0	444	244	
9	0	0	0	0	444	245	
10	0	0	0	0	445	245	
11	0	0	0	0	446	245	
12	0	0	0	0	446	245	
13	0	0	0	0	446	244	
14	0	0	0	0	446	245	
15	0	0	0	0	446	245	
0	0	0	0	0	446	245	
1	0	0	0	0	447	244	
2	0	0	0	0	448	245	
3	0	0	0	0	449	245	
4	0	0	0	0	451	245	
5	0	0	0	0	455	245	
6	0	0	0	0	457	245	
7	0	0	0	0	460	245	
8	0	0	0	0	464	245	
9	0	0	0	0	467	245	
10	0	0	0	0	468	245	
11	0	0	0	0	469	245	
12	0	0	0	0	470	245	
13	0	0	0	0	471	245	
14	0	0	0	0	470	244	
15	0	0	0	0	468	245	
0	0	0	0	0	468	245	
1	0	0	0	0	468	245	
2	0	0	0	0	469	245	
3	0	0	0	0	470	244	
4	0	0	0	0	473	245	
5	0	0	0	0	476	244	
6	0	0	0	0	478	245	
7	0	0	0	0	481	245	
8	0	0	0	0	484	245	
9	0	0	0	0	486	245	
10	0	0	0	0	488	244	
11	0	0	0	0	490	245	
12	0	0	0	0	492	244	
13	0	0	0	0	494	245	
14	0	0	0	0	495	244	
15	0	0	0	0	495	245	
0	0	0	0	0	495	245	
1	0	0	0	0	495	245	
2	0	0	0	0	496	245	
3	0	0	0	0	497	244	
4	0	0	0	0	500	245	
5	0	0	0	0	502	244	
6	0	0	0	0	504	245	
7	0	0	0	0	507	245	
8	0	0	0	0	510	245	
9	0	0	0	0	512	244	
10	0	0	0	0	514	245	
11	0	0	0	0	515	245	
12	0	0	0	0	516	244	
13	0	0	0	0	516	245	
14	0	0	0	0	515	244	
15	0	0	0	0	515	245	
0	0	0	0	0	513	244	
1	0	0	0	0	514	245	
2	0	0	0	0	515	244	
3	0	0	0	0	516	245	
4	0	0	0	0	517	244	
5	0	0	0	0	519	245	
6	0	0	0	0	522	245	
7	0	0	0	0	525	244	
8	0	0	0	0	527	245	
9	0	0	0	0	527	244	
10	0	0	0	0	529	245	
11	0	0	0	0	529	244	
12	0	0	0	0	529	245	
13	0	0	0	0	529	245	
14	0	0	0	0	527	244	
15	0	0	0	0	525	245	
0	0	0	0	0	523	244	
1	0	0	0	0	522	245	
2	0	0	0	0	523	244	
3	0	0	0	0	523	245	
4	0	0	0	0	524	244	
5	0	0	0	0	525	245	
6	0	0	0	0	526	244	
7	0	0	0	0	527	245	
8	0	0	0	0	531	244	
9	0	0	0	0	533	245	
10	0	0	0	0	535	245	
11	0	0	0	0	536	245	
12	0	0	0	0	538	245	
13	0	0	0	0	539	244	
14	0	0	0	0	538	245	
15	0	0	0	0	537	244	
0	0	0	0	0	535	245	
1	0	0	0	0	531	244	
2	0	0	0	0	528	245	
3	0	0	0	0	525	244	
4	0	0	0	0	523	245	
5	0	0	0	0	522	245	
6	0	0	0	0	522	244	
7	0	0	0	0	523	245	
8	0	0	0	0	523	244	
9	0	0	0	0	524	245	
10	0	0	0	0	525	244	
11	0	0	0	0	527	245	
12	0	0	0	0	527	245	
13	0	0	0	0	528	244	
14	0	0	0	0	529	245	
15	0	0	0	0	529	244	
0	0	0	0	0	527	245	
1	0	0	0	0	526	244	
2	0	0	0	0	523	245	
3	0	0	0	0	521	244	
4	0	0	0	0	520	245	
5	0	0	0	0	519	244	
6	0	0	0	0	520	245	
7	0	0	0	0	522	245	
8	0	0	0	0	524	244	
9	0	0	0	0	527	245	
10	0	0	0	0	528	244	
11	0	0	0	0	531	244	
12	0	0	0	0	534	244	
13	0	0	0	0	536	245	
14	0	0	0	0	539	244	
15	0	0	0	0	540	245	
0	0	0	0	0	540	244	
1	0	0	0	0	539	245	
2	0	0	0	0	537	245	
3	0	0	0	0	536	244	
4	0	0	0	0	536	245	
5	0	0	0	0	536	244	
6	0	0	0	0	537	245	
7	0	0	0	0	537	244	
8	0	0	0	0	537	245	
9	0	0	0	0	537	244	
10	0	0	0	0	539	245	
11	0	0	0	0	542	244	
12	0	0	0	0	546	245	
13	0	0	0	0	549	245	
14	0	0	0	0	551	244	
15	0	0	0	0	551	245	
0	0	0	0	0	551	244	
1	0	0	0	0	550	245	
2	0	0	0	0	550	244	
3	0	0	0	0	549	245	
4	0	0	0	0	548	244	
5	0	0	0	0	549	245	
6	0	0	0	0	550	244	
7	0	0	0	0	550	245	
8	0	0	0	0	551	244	
9	0	0	0	0	553	245	
10	0	0	0	0	556	245	
11	0	0	0	0	559	244	
12	0	0	0	0	562	245	
13	0	0	0	0	567	244	
14	0	0	0	0	569	245	
15	0	0	0	0	571	244	
0	0	0	0	0	571	244	
1	0	0	0	0	570	244	
2	0	0	0	0	568	244	
3	0	0	0	0	566	244	
4	0	0	0	0	562	245	
5	0	0	0	0	560	244	
6	0	0	0	0	558	245	
7	0	0	0	0	556	244	
8	0	0	0	0	554	245	
9	0	0	0	0	553	245	
10	0	0	0	0	554	244	
11	0	0	0	0	556	245	
12	0	0	0	0	556	244	
13	0	0	0	0	558	245	
14	0	0	0	0	558	244	
15	0	0	0	0	556	244	
0	0	0	0	0	554	245	
1	0	0	0	0	553	244	
2	0	0	0	0	551	245	
3	0	0	0	0	547	244	
4	0	0	0	0	545	245	
5	0	0	0	0	544	244	
6	0	0	0	0	540	244	
7	0	0	0	0	537	244	
8	0	0	0	0	534	244	
9	0	0	0	0	531	245	
10	0	0	0	0	530	244	
11	0	0	0	0	528	245	
12	0	0	0	0	527	244	
13	0	0	0	0	526	244	
14	0	0	0	0	524	244	
15	0	0	0	0	521	245	
0	0	0	0	0	518	244	
1	0	0	0	0	514	244	
2	0	0	0	0	510	244	
3	0	0	0	0	506	245	
4	0	0	0	0	503	244	
5	0	0	0	0	499	244	
6	0	0	0	0	496	244	
7	0	0	0	0	494	244	
8	0	0	0	0	492	245	
9	0	0	0	0	492	244	
10	0	0	0	0	493	245	
11	0	0	0	0	495	244	
12	0	0	0	0	496	245	
13	0	0	0	0	499	244	
14	0	0	0	0	500	245	
15	0	0	0	0	502	244	
0	0	0	0	0	504	244	
1	0	0	0	0	504	244	
2	0	0	0	0	504	244	
3	0	0	0	0	502	244	
4	0	0	0	0	500	245	
5	0	0	0	0	497	245	
6	0	0	0	0	494	244	
7	0	0	0	0	493	245	
8	0	0	0	0	492	244	
9	0	0	0	0	491	245	
10	0	0	0	0	489	244	
11	0	0	0	0	489	245	
12	0	0	0	0	489	244	
13	0	0	0	0	491	244	
14	0	0	0	0	495	244	
15	0	0	0	0	497	245	
0	0	0	0	0	501	244	
1	0	0	0	0	504	244	
2	0	0	0	0	506	244	
3	0	0	0	0	507	244	
4	0	0	0	0	508	244	
5	0	0	0	0	509	244	
6	0	0	0	0	509	244	
7	0	0	0	0	508	244	
8	0	0	0	0	507	244	
9	0	0	0	0	505	245	
10	0	0	0	0	504	244	
11	0	0	0	0	504	244	
12	0	0	0	0	503	244	
13	0	0	0	0	504	244	
14	0	0	0	0	505	245	
15	0	0	0	0	508	244	
0	0	0	0	0	510	245	
1	0	0	0	0	512	244	
2	0	0	0	0	515	244	
3	0	0	0	0	518	244	
4	0	0	0	0	519	244	
5	0	0	0	0	520	244	
6	0	0	0	0	519	244	
7	0	0	0	0	517	244	
8	0	0	0	0	516	244	
9	0	0	0	0	516	244	
10	0	0	0	0	517	244	
11	0	0	0	0	518	245	
12	0	0	0	0	519	244	
13	0	0	0	0	522	244	
14	0	0	0	0	526	244	
15	0	0	0	0	529	244	
0	0	0	0	0	534	244	
1	0	0	0	0	539	244	
2	0	0	0	0	543	244	
3	0	0	0	0	545	244	
4	0	0	0	0	546	245	
5	0	0	0	0	548	244	
6	0	0	0	0	550	244	
7	0	0	0	0	552	244	
8	0	0	0	0	552	244	
9	0	0	0	0	551	244	
10	0	0	0	0	551	244	
11	0	0	0	0	551	245	
12	0	0	0	0	552	244	
13	0	0	0	0	553	244	
14	0	0	0	0	555	244	
15	0	0	0	0	557	244	
0	0	0	0	0	560	244	
1	0	0	0	0	561	244	
2	0	0	0	0	563	244	
3	0	0	0	0	564	244	
4	0	0	0	0	564	244	
5	0	0	0	0	563	244	
6	0	0	0	0	561	244	
7	0	0	0	0	559	244	
8	0	0	0	0	558	244	
9	0	0	0	0	555	244	
10	0	0	0	0	551	244	
11	0	0	0	0	547	244	
12	0	0	0	0	544	244	
13	0	0	0	0	543	244	
14	0	0	0	0	542	244	
15	0	0	0	0	542	245	
0	0	0	0	0	542	244	
1	0	0	0	0	542	244	
2	0	0	0	0	542	244	
3	0	0	0	0	542	244	
4	0	0	0	0	543	244	
5	0	0	0	0	542	244	
6	0	0	0	0	541	244	
7	0	0	0	0	540	244	
8	0	0	0	0	539	244	
9	0	0	0	0	537	244	
10	0	0	0	0	536	244	
11	0	0	0	0	535	244	
12	0	0	0	0	535	244	
13	0	0	0	0	534	244	
14	0	0	0	0	535	245	
15	0	0	0	0	536	244	
0	0	0	0	0	538	244	
1	0	0	0	0	540	243	
2	0	0	0	0	541	244	
3	0	0	0	0	541	244	
4	0	0	0	0	541	244	
5	0	0	0	0	541	244	
6	0	0	0	0	541	244	
7	0	0	0	0	541	245	
8	0	0	0	0	541	244	
9	0	0	0	0	542	244	
10	0	0	0	0	540	243	
11	0	0	0	0	540	244	
12	0	0	0	0	539	244	
13	0	0	0	0	539	244	
14	0	0	0	0	540	244	
15	0	0	0	0	541	244	
0	0	0	0	0	544	244	
1	0	0	0	0	547	244	
2	0	0	0	0	551	244	
3	0	0	0	0	555	244	
4	0	0	0	0	558	244	
5	0	0	0	0	560	244	
6	0	0	0	0	561	244	
7	0	0	0	0	562	244	
8	0	0	0	0	562	244	
9	0	0	0	0	561	244	
10	0	0	0	0	560	244	
11	0	0	0	0	560	244	
12	0	0	0	0	557	244	
13	0	0	0	0	555	244	
14	0	0	0	0	553	245	
15	0	0	0	0	553	243	
0	0	0	0	0	555	244	
1	0	0	0	0	558	244	
2	0	0	0	0	561	244	
3	0	0	0	0	563	244	
4	0	0	0	0	566	244	
5	0	0	0	0	569	244	
6	0	0	0	0	572	244	
7	0	0	0	0	574	244	
8	0	0	0	0	575	244	
9	0	0	0	0	575	244	
10	0	0	0	0	575	244	
11	0	0	0	0	574	244	
12	0	0	0	0	574	243	
13	0	0	0	0	572	244	
14	0	0	0	0	573	243	
15	0	0	0	0	574	244	
0	0	0	0	0	575	244	
1	0	0	0	0	579	244	
2	0	0	0	0	582	244	
3	0	0	0	0	584	244	
4	0	0	0	0	587	244	
5	0	0	0	0	589	244	
6	0	0	0	0	590	244	
7	0	0	0	0	589	244	
8	0	0	0	0	588	244	
9	0	0	0	0	586	243	
10	0	0	0	0	583	244	
11	0	0	0	0	582	244	
12	0	0	0	0	579	244	
13	0	0	0	0	576	244	
14	0	0	0	0	574	244	
15	0	0	0	0	572	244	
0	0	0	0	0	571	244	
1	0	0	0	0	572	244	
2	0	0	0	0	573	243	
3	0	0	0	0	574	244	
4	0	0	0	0	575	243	
5	0	0	0	0	576	244	
6	0	0	0	0	576	244	
7	0	0	0	0	576	244	
8	0	0	0	0	576	244	
9	0	0	0	0	575	243	
10	0	0	0	0	573	244	
11	0	0	0	0	571	244	
12	0	0	0	0	568	244	
13	0	0	0	0	564	244	
14	0	0	0	0	560	244	
15	0	0	0	0	558	244	
0	0	0	0	0	556	243	
1	0	0	0	0	555	244	
2	0	0	0	0	555	244	
3	0	0	0	0	555	244	
4	0	0	0	0	555	244	
5	0	0	0	0	555	244	
6	0	0	0	0	555	244	
7	0	0	0	0	556	244	
8	0	0	0	0	558	244	
9	0	0	0	0	558	244	
10	0	0	0	0	558	244	
11	0	0	0	0	557	244	
12	0	0	0	0	554	244	
13	0	0	0	0	550	244	
14	0	0	0	0	547	244	
15	0	0	0	0	545	244	
0	0	0	0	0	544	244	
1	0	0	0	0	544	243	
2	0	0	0	0	545	244	
3	0	0	0	0	546	244	
4	0	0	0	0	547	244	
5	0	0	0	0	549	244	
6	0	0	0	0	551	244	
7	0	0	0	0	552	244	
8	0	0	0	0	553	244	
9	0	0	0	0	553	244	
10	0	0	0	0	553	244	
11	0	0	0	0	550	244	
12	0	0	0	0	547	244	
13	0	0	0	0	544	244	
14	0	0	0	0	541	244	
15	0	0	0	0	538	243	
0	0	0	0	0	537	244	
1	0	0	0	0	537	244	
2	0	0	0	0	538	244	
3	0	0	0	0	540	244	
4	0	0	0	0	541	244	
5	0	0	0	0	544	244	
6	0	0	0	0	546	244	
7	0	0	0	0	549	244	
8	0	0	0	0	550	244	
9	0	0	0	0	550	244	
10	0	0	0	0	551	244	
11	0	0	0	0	550	244	
12	0	0	0	0	549	243	
13	0	0	0	0	547	244	
14	0	0	0	0	545	244	
15	0	0	0	0	543	244	
0	0	0	0	0	543	244	
1	0	0	0	0	544	244	
2	0	0	0	0	544	244	
3	0	0	0	0	544	244	
4	0	0	0	0	545	244	
5	0	0	0	0	547	244	
6	0	0	0	0	548	244	
7	0	0	0	0	549	243	
8	0	0	0	0	551	244	
9	0	0	0	0	551	244	
10	0	0	0	0	552	244	
11	0	0	0	0	552	244	
12	0	0	0	0	551	244	
13	0	0	0	0	550	244	
14	0	0	0	0	547	244	
15	0	0	0	0	547	244	
0	0	0	0	0	545	244	
1	0	0	0	0	543	244	
2	0	0	0	0	540	243	
3	0	0	0	0	537	244	
4	0	0	0	0	536	244	
5	0	0	0	0	536	244	
6	0	0	0	0	536	243	
7	0	0	0	0	537	244	
8	0	0	0	0	537	244	
9	0	0	0	0	538	244	
10	0	0	0	0	538	244	
11	0	0	0	0	536	244	
12	0	0	0	0	535	244	
13	0	0	0	0	532	244	
14	0	0	0	0	528	244	
15	0	0	0	0	524	243	
0	0	0	0	0	519	244	
1	0	0	0	0	513	244	
2	0	0	0	0	509	244	
3	0	0	0	0	505	244	
4	0	0	0	0	504	244	
5	0	0	0	0	504	244	
6	0	0	0	0	504	244	
7	0	0	0	0	505	244	
8	0	0	0	0	506	243	
9	0	0	0	0	508	244	
10	0	0	0	0	510	244	
11	0	0	0	0	510	244	
12	0	0	0	0	510	244	
13	0	0	0	0	509	244	
14	0	0	0	0	507	244	
15	0	0	0	0	506	244	
0	0	0	0	0	505	244	
1	0	0	0	0	504	244	
2	0	0	0	0	502	244	
3	0	0	0	0	501	244	
4	0	0	0	0	500	244	
5	0	0	0	0	502	243	
6	0	0	0	0	504	244	
7	0	0	0	0	508	243	
8	0	0	0	0	511	244	
9	0	0	0	0	513	244	
10	0	0	0	0	515	244	
11	0	0	0	0	518	244	
12	0	0	0	0	518	244	
13	0	0	0	0	518	244	
14	0	0	0	0	517	243	
15	0	0	0	0	516	244	
0	0	0	0	0	515	244	
1	0	0	0	0	513	244	
2	0	0	0	0	512	244	
3	0	0	0	0	511	244	
4	0	0	0	0	511	244	
5	0	0	0	0	511	244	
6	0	0	0	0	513	244	
7	0	0	0	0	517	244	
8	0	0	0	0	519	244	
9	0	0	0	0	520	243	
10	0	0	0	0	521	244	
11	0	0	0	0	521	243	
12	0	0	0	0	521	244	
13	0	0	0	0	520	244	
14	0	0	0	0	519	244	
15	0	0	0	0	517	244	
0	0	0	0	0	515	243	
1	0	0	0	0	512	244	
2	0	0	0	0	509	243	
3	0	0	0	0	506	244	
4	0	0	0	0	504	244	
5	0	0	0	0	502	244	
6	0	0	0	0	500	244	
7	0	0	0	0	500	244	
8	0	0	0	0	501	244	
9	0	0	0	0	502	244	
10	0	0	0	0	504	244	
11	0	0	0	0	505	243	
12	0	0	0	0	505	244	
13	0	0	0	0	506	243	
14	0	0	0	0	507	244	
15	0	0	0	0	506	243	
0	0	0	0	0	505	244	
1	0	0	0	0	504	244	
2	0	0	0	0	504	244	
3	0	0	0	0	504	244	
4	0	0	0	0	505	244	
5	0	0	0	0	507	244	
6	0	0	0	0	510	244	
7	0	0	0	0	515	244	
8	0	0	0	0	519	244	
9	0	0	0	0	523	244	
10	0	0	0	0	527	243	
11	0	0	0	0	531	244	
12	0	0	0	0	535	243	
13	0	0	0	0	539	244	
14	0	0	0	0	542	244	
15	0	0	0	0	545	244	
0	0	0	0	0	547	244	
1	0	0	0	0	548	243	
2	0	0	0	0	550	244	
3	0	0	0	0	550	243	
4	0	0	0	0	549	244	
5	0	0	0	0	549	244	
6	0	0	0	0	548	244	
7	0	0	0	0	548	244	
8	0	0	0	0	549	244	
9	0	0	0	0	550	244	
10	0	0	0	0	552	244	
11	0	0	0	0	554	243	
12	0	0	0	0	556	244	
13	0	0	0	0	558	244	
14	0	0	0	0	559	244	
15	0	0	0	0	560	244	
0	0	0	0	0	560	243	
1	0	0	0	0	561	244	
2	0	0	0	0	560	243	
3	0	0	0	0	561	244	
4	0	0	0	0	560	243	
5	0	0	0	0	560	244	
6	0	0	0	0	560	243	
7	0	0	0	0	560	244	
8	0	0	0	0	562	244	
9	0	0	0	0	563	244	
10	0	0	0	0	564	244	
11	0	0	0	0	566	243	
12	0	0	0	0	568	244	
13	0	0	0	0	571	243	
14	0	0	0	0	574	244	
15	0	0	0	0	575	243	
0	0	0	0	0	576	244	
1	0	0	0	0	575	243	
2	0	0	0	0	575	244	
3	0	0	0	0	574	243	
4	0	0	0	0	572	244	
5	0	0	0	0	570	243	
6	0	0	0	0	568	244	
7	0	0	0	0	566	243	
8	0	0	0	0	565	244	
9	0	0	0	0	567	243	
10	0	0	0	0	568	244	
11	0	0	0	0	568	243	
12	0	0	0	0	569	244	
13	0	0	0	0	571	243	
14	0	0	0	0	573	244	
15	0	0	0	0	574	244	
0	0	0	0	0	574	244	
1	0	0	0	0	573	244	
2	0	0	0	0	572	243	
3	0	0	0	0	569	244	
4	0	0	0	0	567	243	
5	0	0	0	0	563	244	
6	0	0	0	0	561	244	
7	0	0	0	0	559	243	
8	0	0	0	0	559	244	
9	0	0	0	0	559	243	
10	0	0	0	0	561	244	
11	0	0	0	0	563	243	
12	0	0	0	0	566	244	
13	0	0	0	0	568	243	
14	0	0	0	0	570	244	
15	0	0	0	0	572	244	
0	0	0	0	0	572	244	
1	0	0	0	0	571	244	
2	0	0	0	0	569	243	
3	0	0	0	0	568	244	
4	0	0	0	0	565	243	
5	0	0	0	0	563	244	
6	0	0	0	0	561	244	
7	0	0	0	0	559	244	
8	0	0	0	0	557	244	
9	0	0	0	0	556	243	
10	0	0	0	0	555	244	
11	0	0	0	0	553	243	
12	0	0	0	0	554	244	
13	0	0	0	0	555	243	
14	0	0	0	0	556	244	
15	0	0	0	0	557	244	
0	0	0	0	0	557	244	
1	0	0	0	0	555	244	
2	0	0	0	0	551	243	
3	0	0	0	0	548	244	
4	0	0	0	0	545	244	
5	0	0	0	0	541	244	
6	0	0	0	0	536	244	
7	0	0	0	0	534	244	
8	0	0	0	0	531	243	
9	0	0	0	0	531	244	
10	0	0	0	0	531	243	
11	0	0	0	0	530	244	
12	0	0	0	0	530	244	
13	0	0	0	0	530	244	
14	0	0	0	0	531	244	
15	0	0	0	0	531	244	
0	0	0	0	0	531	244	
1	0	0	0	0	529	243	
2	0	0	0	0	530	244	
3	0	0	0	0	529	243	
4	0	0	0	0	527	244	
5	0	0	0	0	524	244	
6	0	0	0	0	519	244	
7	0	0	0	0	515	244	
8	0	0	0	0	513	243	
9	0	0	0	0	511	244	
10	0	0	0	0	508	243	
11	0	0	0	0	508	244	
12	0	0	0	0	509	244	
13	0	0	0	0	510	244	
14	0	0	0	0	511	244	
15	0	0	0	0	511	243	
0	0	0	0	0	511	244	
1	0	0	0	0	511	243	
2	0	0	0	0	511	244	
3	0	0	0	0	511	244	
4	0	0	0	0	511	243	
5	0	0	0	0	510	244	
6	0	0	0	0	510	243	
7	0	0	0	0	510	244	
8	0	0	0	0	509	244	
9	0	0	0	0	507	244	
10	0	0	0	0	506	244	
11	0	0	0	0	504	243	
12	0	0	0	0	504	244	
13	0	0	0	0	506	243	
14	0	0	0	0	507	244	
15	0	0	0	0	509	243	
0	0	0	0	0	511	244	
1	0	0	0	0	513	243	
2	0	0	0	0	513	244	
3	0	0	0	0	513	243	
4	0	0	0	0	510	244	
5	0	0	0	0	507	243	
6	0	0	0	0	503	244	
7	0	0	0	0	499	243	
8	0	0	0	0	496	244	
9	0	0	0	0	493	244	
10	0	0	0	0	490	244	
11	0	0	0	0	488	244	
12	0	0	0	0	488	244	
13	0	0	0	0	487	244	
14	0	0	0	0	487	243	
15	0	0	0	0	489	244	
0	0	0	0	0	492	243	
1	0	0	0	0	494	244	
2	0	0	0	0	495	244	
3	0	0	0	0	495	244	
4	0	0	0	0	495	244	
5	0	0	0	0	495	243	
6	0	0	0	0	494	244	
7	0	0	0	0	494	243	
8	0	0	0	0	494	244	
9	0	0	0	0	493	243	
10	0	0	0	0	493	244	
11	0	0	0	0	491	244	
12	0	0	0	0	489	244	
13	0	0	0	0	488	244	
14	0	0	0	0	489	244	
15	0	0	0	0	491	244	
0	0	0	0	0	492	243	
1	0	0	0	0	492	244	
2	0	0	0	0	493	243	
3	0	0	0	0	494	244	
4	0	0	0	0	495	244	
5	0	0	0	0	496	244	
6	0	0	0	0	495	244	
7	0	0	0	0	491	243	
8	0	0	0	0	489	244	
9	0	0	0	0	486	243	
10	0	0	0	0	484	244	
11	0	0	0	0	483	243	
12	0	0	0	0	482	244	
13	0	0	0	0	482	244	
14	0	0	0	0	483	244	
15	0	0	0	0	485	244	
0	0	0	0	0	487	244	
1	0	0	0	0	488	243	
2	0	0	0	0	491	244	
3	0	0	0	0	494	243	
4	0	0	0	0	496	244	
5	0	0	0	0	498	243	
6	0	0	0	0	499	244	
7	0	0	0	0	499	244	
8	0	0	0	0	497	244	
9	0	0	0	0	496	243	
10	0	0	0	0	495	244	
11	0	0	0	0	492	243	
12	0	0	0	0	490	244	
13	0	0	0	0	488	243	
14	0	0	0	0	488	244	
15	0	0	0	0	489	244	
0	0	0	0	0	489	244	
1	0	0	0	0	490	243	
2	0	0	0	0	491	244	
3	0	0	0	0	492	244	
4	0	0	0	0	493	244	
5	0	0	0	0	494	244	
6	0	0	0	0	496	244	
7	0	0	0	0	496	244	
8	0	0	0	0	494	244	
9	0	0	0	0	493	243	
10	0	0	0	0	492	244	
11	0	0	0	0	490	244	
12	0	0	0	0	488	244	
13	0	0	0	0	487	243	
14	0	0	0	0	487	244	
15	0	0	0	0	487	244	
0	0	0	0	0	487	243	
1	0	0	0	0	487	244	
2	0	0	0	0	489	243	
3	0	0	0	0	490	244	
4	0	0	0	0	491	244	
5	0	0	0	0	493	244	
6	0	0	0	0	494	244	
7	0	0	0	0	494	243	
8	0	0	0	0	493	244	
9	0	0	0	0	492	243	
10	0	0	0	0	490	244	
11	0	0	0	0	487	243	
12	0	0	0	0	486	244	
13	0	0	0	0	483	244	
14	0	0	0	0	482	243	
15	0	0	0	0	481	244	
0	0	0	0	0	481	244	
1	0	0	0	0	481	244	
2	0	0	0	0	482	243	
3	0	0	0	0	483	244	
4	0	0	0	0	485	244	
5	0	0	0	0	486	244	
6	0	0	0	0	487	243	
7	0	0	0	0	487	244	
8	0	0	0	0	488	243	
9	0	0	0	0	487	243	
10	0	0	0	0	485	243	
11	0	0	0	0	483	244	
12	0	0	0	0	482	244	
13	0	0	0	0	481	244	
14	0	0	0	0	482	244	
15	0	0	0	0	482	243	
0	0	0	0	0	482	244	
1	0	0	0	0	483	243	
2	0	0	0	0	485	244	
3	0	0	0	0	487	243	
4	0	0	0	0	490	244	
5	0	0	0	0	491	243	
6	0	0	0	0	492	244	
7	0	0	0	0	494	243	
8	0	0	0	0	494	244	
9	0	0	0	0	494	244	
10	0	0	0	0	493	244	
11	0	0	0	0	492	243	
12	0	0	0	0	491	244	
13	0	0	0	0	488	244	
14	0	0	0	0	487	243	
15	0	0	0	0	486	244	
0	0	0	0	0	485	243	
1	0	0	0	0	484	244	
2	0	0	0	0	484	243	
3	0	0	0	0	484	244	
4	0	0	0	0	484	243	
5	0	0	0	0	484	244	
6	0	0	0	0	484	244	
7	0	0	0	0	484	243	
8	0	0	0	0	484	244	
9	0	0	0	0	485	243	
10	0	0	0	0	486	244	
11	0	0	0	0	485	243	
12	0	0	0	0	483	244	
13	0	0	0	0	483	243	
14	0	0	0	0	481	244	
15	0	0	0	0	479	243	
0	0	0	0	0	477	244	
1	0	0	0	0	476	244	
2	0	0	0	0	476	244	
3	0	0	0	0	474	243	
4	0	0	0	0	473	244	
5	0	0	0	0	474	243	
6	0	0	0	0	475	244	
7	0	0	0	0	477	244	
8	0	0	0	0	479	244	
9	0	0	0	0	479	244	
10	0	0	0	0	478	243	
11	0	0	0	0	478	244	
12	0	0	0	0	477	243	
13	0	0	0	0	474	244	
14	0	0	0	0	472	243	
15	0	0	0	0	471	244	
0	0	0	0	0	469	244	
1	0	0	0	0	469	243	
2	0	0	0	0	470	244	
3	0	0	0	0	471	243	
4	0	0	0	0	474	244	
5	0	0	0	0	478	243	
6	0	0	0	0	480	244	
7	0	0	0	0	481	243	
8	0	0	0	0	481	244	
9	0	0	0	0	482	243	
10	0	0	0	0	481	244	
11	0	0	0	0	481	243	
12	0	0	0	0	479	244	
13	0	0	0	0	478	244	
14	0	0	0	0	475	244	
15	0	0	0	0	472	244	
0	0	0	0	0	469	243	
1	0	0	0	0	466	244	
2	0	0	0	0	464	243	
3	0	0	0	0	462	244	
4	0	0	0	0	461	244	
5	0	0	0	0	462	244	
6	0	0	0	0	462	243	
7	0	0	0	0	462	244	
8	0	0	0	0	463	244	
9	0	0	0	0	465	243	
10	0	0	0	0	466	244	
11	0	0	0	0	467	243	
12	0	0	0	0	468	244	
13	0	0	0	0	467	243	
14	0	0	0	0	465	244	
15	0	0	0	0	462	244	
0	0	0	0	0	459	244	
1	0	0	0	0	457	243	
2	0	0	0	0	456	243	
3	0	0	0	0	454	243	
4	0	0	0	0	453	244	
5	0	0	0	0	454	243	
6	0	0	0	0	454	244	
7	0	0	0	0	455	244	
8	0	0	0	0	458	244	
9	0	0	0	0	460	244	
10	0	0	0	0	461	243	
11	0	0	0	0	463	244	
12	0	0	0	0	464	243	
13	0	0	0	0	465	244	
14	0	0	0	0	465	243	
15	0	0	0	0	465	244	
0	0	0	0	0	465	243	
1	0	0	0	0	466	244	
2	0	0	0	0	466	244	
3	0	0	0	0	465	243	
4	0	0	0	0	464	244	
5	0	0	0	0	464	243	
6	0	0	0	0	465	243	
7	0	0	0	0	467	243	
8	0	0	0	0	470	243	
9	0	0	0	0	472	243	
10	0	0	0	0	474	243	
11	0	0	0	0	476	244	
12	0	0	0	0	478	243	
13	0	0	0	0	478	244	
14	0	0	0	0	477	243	
15	0	0	0	0	476	244	
0	0	0	0	0	475	244	
1	0	0	0	0	473	243	
2	0	0	0	0	471	244	
3	0	0	0	0	470	243	
4	0	0	0	0	468	243	
5	0	0	0	0	466	243	
6	0	0	0	0	466	243	
7	0	0	0	0	466	243	
8	0	0	0	0	468	244	
9	0	0	0	0	471	243	
10	0	0	0	0	473	244	
11	0	0	0	0	475	243	
12	0	0	0	0	476	244	
13	0	0	0	0	476	244	
14	0	0	0	0	473	243	
15	0	0	0	0	471	244	
0	0	0	0	0	468	243	
1	0	0	0	0	466	244	
2	0	0	0	0	463	243	
3	0	0	0	0	460	243	
4	0	0	0	0	457	243	
5	0	0	0	0	455	243	
6	0	0	0	0	454	243	
7	0	0	0	0	453	244	
8	0	0	0	0	452	243	
9	0	0	0	0	454	243	
10	0	0	0	0	455	243	
11	0	0	0	0	456	244	
12	0	0	0	0	457	243	
13	0	0	0	0	459	244	
14	0	0	0	0	461	243	
15	0	0	0	0	463	244	
0	0	0	0	0	467	244	
1	0	0	0	0	472	243	
2	0	0	0	0	480	243	
3	0	0	0	0	487	243	
4	0	0	0	0	496	243	
5	0	0	0	0	506	243	
6	0	0	0	0	518	244	
7	0	0	0	0	531	243	
8	0	0	0	0	543	243	
9	0	0	0	0	557	243	
10	0	0	0	0	569	243	
11	0	0	0	0	579	243	
12	0	0	0	0	587	243	
13	0	0	0	0	593	243	
14	0	0	0	0	598	244	
15	0	0	0	0	601	244	
0	0	0	0	0	604	243	
1	0	0	0	0	605	243	
2	0	0	0	0	604	243	
3	0	0	0	0	603	243	
4	0	0	0	0	601	243	
5	0	0	0	0	601	243	
6	0	0	0	0	602	243	
7	0	0	0	0	600	243	
8	0	0	0	0	597	244	
9	0	0	0	0	593	243	
10	0	0	0	0	590	244	
11	0	0	0	0	586	243	
12	0	0	0	0	581	243	
13	0	0	0	0	577	243	
14	0	0	0	0	573	243	
15	0	0	0	0	567	243	
0	0	0	0	0	559	244	
1	0	0	0	0	547	244	
2	0	0	0	0	534	243	
3	0	0	0	0	521	243	
4	0	0	0	0	507	243	
5	0	0	0	0	493	243	
6	0	0	0	0	481	243	
7	0	0	0	0	470	243	
8	0	0	0	0	462	243	
9	0	0	0	0	454	243	
10	0	0	0	0	447	243	
11	0	0	0	0	441	243	
12	0	0	0	0	436	243	
13	0	0	0	0	432	243	
14	0	0	0	0	430	244	
15	0	0	0	0	428	243	
0	0	0	0	0	427	243	
1	0	0	0	0	424	243	
2	0	0	0	0	422	243	
3	0	0	0	0	421	243	
4	0	0	0	0	420	244	
5	0	0	0	0	421	243	
6	0	0	0	0	421	243	
7	0	0	0	0	422	243	
8	0	0	0	0	423	243	
9	0	0	0	0	427	244	
10	0	0	0	0	429	243	
11	0	0	0	0	431	243	
12	0	0	0	0	433	243	
13	0	0	0	0	438	243	
14	0	0	0	0	440	243	
15	0	0	0	0	441	243	
0	0	0	0	0	443	244	
1	0	0	0	0	443	243	
2	0	0	0	0	442	243	
3	0	0	0	0	441	243	
4	0	0	0	0	440	243	
5	0	0	0	0	439	243	
6	0	0	0	0	437	243	
7	0	0	0	0	436	243	
8	0	0	0	0	436	244	
9	0	0	0	0	438	243	
10	0	0	0	0	440	243	
11	0	0	0	0	442	243	
12	0	0	0	0	445	243	
13	0	0	0	0	448	243	
14	0	0	0	0	450	243	
15	0	0	0	0	453	243	
0	0	0	0	0	455	243	
1	0	0	0	0	455	243	
2	0	0	0	0	455	243	
3	0	0	0	0	454	243	
4	0	0	0	0	453	244	
5	0	0	0	0	451	243	
6	0	0	0	0	449	243	
7	0	0	0	0	447	243	
8	0	0	0	0	447	243	
9	0	0	0	0	448	243	
10	0	0	0	0	449	243	
11	0	0	0	0	452	243	
12	0	0	0	0	455	244	
13	0	0	0	0	460	244	
14	0	0	0	0	463	243	
15	0	0	0	0	467	243	
0	0	0	0	0	469	243	
1	0	0	0	0	471	243	
2	0	0	0	0	472	243	
3	0	0	0	0	472	243	
4	0	0	0	0	471	243	
5	0	0	0	0	469	243	
6	0	0	0	0	465	243	
7	0	0	0	0	463	243	
8	0	0	0	0	462	243	
9	0	0	0	0	462	243	
10	0	0	0	0	462	243	
11	0	0	0	0	463	243	
12	0	0	0	0	466	243	
13	0	0	0	0	470	243	
14	0	0	0	0	472	243	
15	0	0	0	0	474	243	
0	0	0	0	0	476	243	
1	0	0	0	0	479	244	
2	0	0	0	0	480	243	
3	0	0	0	0	481	243	
4	0	0	0	0	480	243	
5	0	0	0	0	478	243	
6	0	0	0	0	473	243	
7	0	0	0	0	470	243	
8	0	0	0	0	467	243	
9	0	0	0	0	466	243	
10	0	0	0	0	464	244	
11	0	0	0	0	463	243	
12	0	0	0	0	463	243	
13	0	0	0	0	465	243	
14	0	0	0	0	466	243	
15	0	0	0	0	468	243	
0	0	0	0	0	470	243	
1	0	0	0	0	472	243	
2	0	0	0	0	473	243	
3	0	0	0	0	473	244	
4	0	0	0	0	473	243	
5	0	0	0	0	473	244	
6	0	0	0	0	473	243	
7	0	0	0	0	472	244	
8	0	0	0	0	472	243	
9	0	0	0	0	470	243	
10	0	0	0	0	469	243	
11	0	0	0	0	470	243	
12	0	0	0	0	472	243	
13	0	0	0	0	475	243	
14	0	0	0	0	476	243	
15	0	0	0	0	479	243	
0	0	0	0	0	482	243	
1	0	0	0	0	485	243	
2	0	0	0	0	487	244	
3	0	0	0	0	489	243	
4	0	0	0	0	489	243	
5	0	0	0	0	490	243	
6	0	0	0	0	489	243	
7	0	0	0	0	489	243	
8	0	0	0	0	489	243	
9	0	0	0	0	488	243	
10	0	0	0	0	488	243	
11	0	0	0	0	488	243	
12	0	0	0	0	489	243	
13	0	0	0	0	490	243	
14	0	0	0	0	491	243	
15	0	0	0	0	492	243	
0	0	0	0	0	496	243	
1	0	0	0	0	499	243	
2	0	0	0	0	502	243	
3	0	0	0	0	504	243	
4	0	0	0	0	508	243	
5	0	0	0	0	510	243	
6	0	0	0	0	510	243	
7	0	0	0	0	511	243	
8	0	0	0	0	510	243	
9	0	0	0	0	509	243	
10	0	0	0	0	509	243	
11	0	0	0	0	508	243	
12	0	0	0	0	508	243	
13	0	0	0	0	508	243	
14	0	0	0	0	508	243	
15	0	0	0	0	508	243	
0	0	0	0	0	508	243	
1	0	0	0	0	508	243	
2	0	0	0	0	508	243	
3	0	0	0	0	508	243	
4	0	0	0	0	508	243	
5	0	0	0	0	508	244	
6	0	0	0	0	505	243	
7	0	0	0	0	503	243	
8	0	0	0	0	501	243	
9	0	0	0	0	500	243	
10	0	0	0	0	500	243	
11	0	0	0	0	499	243	
12	0	0	0	0	499	243	
13	0	0	0	0	499	243	
14	0	0	0	0	499	243	
15	0	0	0	0	500	243	
0	0	0	0	0	504	243	
1	0	0	0	0	505	243	
2	0	0	0	0	508	243	
3	0	0	0	0	512	243	
4	0	0	0	0	516	243	
5	0	0	0	0	520	243	
6	0	0	0	0	524	243	
7	0	0	0	0	527	243	
8	0	0	0	0	531	243	
9	0	0	0	0	534	243	
10	0	0	0	0	536	243	
11	0	0	0	0	538	243	
12	0	0	0	0	542	243	
13	0	0	0	0	545	243	
14	0	0	0	0	548	243	
15	0	0	0	0	552	243	
0	0	0	0	0	556	243	
1	0	0	0	0	560	243	
2	0	0	0	0	563	243	
3	0	0	0	0	566	243	
4	0	0	0	0	568	243	
5	0	0	0	0	569	243	
6	0	0	0	0	569	243	
7	0	0	0	0	570	243	
8	0	0	0	0	569	243	
9	0	0	0	0	569	243	
10	0	0	0	0	568	243	
11	0	0	0	0	568	243	
12	0	0	0	0	568	243	
13	0	0	0	0	567	243	
14	0	0	0	0	564	243	
15	0	0	0	0	563	243	
0	0	0	0	0	563	243	
1	0	0	0	0	562	243	
2	0	0	0	0	562	243	
3	0	0	0	0	561	243	
4	0	0	0	0	561	243	
5	0	0	0	0	560	243	
6	0	0	0	0	560	243	
7	0	0	0	0	560	243	
8	0	0	0	0	561	243	
9	0	0	0	0	561	243	
10	0	0	0	0	561	243	
11	0	0	0	0	561	243	
12	0	0	0	0	559	243	
13	0	0	0	0	558	243	
14	0	0	0	0	557	243	
15	0	0	0	0	556	243	
0	0	0	0	0	556	243	
1	0	0	0	0	555	243	
2	0	0	0	0	556	243	
3	0	0	0	0	556	243	
4	0	0	0	0	557	243	
5	0	0	0	0	559	243	
6	0	0	0	0	560	243	
7	0	0	0	0	560	243	
8	0	0	0	0	560	243	
9	0	0	0	0	561	243	
10	0	0	0	0	562	243	
11	0	0	0	0	563	243	
12	0	0	0	0	565	243	
13	0	0	0	0	567	243	
14	0	0	0	0	568	243	
15	0	0	0	0	568	243	
0	0	0	0	0	569	242	
1	0	0	0	0	570	243	
2	0	0	0	0	572	243	
3	0	0	0	0	573	243	
4	0	0	0	0	575	243	
5	0	0	0	0	577	243	
6	0	0	0	0	579	243	
7	0	0	0	0	580	243	
8	0	0	0	0	580	243	
9	0	0	0	0	580	243	
10	0	0	0	0	580	243	
11	0	0	0	0	579	242	
12	0	0	0	0	576	243	
13	0	0	0	0	575	243	
14	0	0	0	0	573	243	
15	0	0	0	0	571	243	
0	0	0	0	0	568	243	
1	0	0	0	0	566	243	
2	0	0	0	0	566	243	
3	0	0	0	0	567	243	
4	0	0	0	0	568	243	
5	0	0	0	0	570	243	
6	0	0	0	0	570	243	
7	0	0	0	0	570	243	
8	0	0	0	0	570	243	
9	0	0	0	0	569	243	
10	0	0	0	0	567	243	
11	0	0	0	0	565	243	
12	0	0	0	0	561	243	
13	0	0	0	0	556	243	
14	0	0	0	0	550	243	
15	0	0	0	0	544	243	
0	0	0	0	0	539	243	
1	0	0	0	0	534	243	
2	0	0	0	0	530	243	
3	0	0	0	0	527	243	
4	0	0	0	0	525	243	
5	0	0	0	0	524	243	
6	0	0	0	0	523	243	
7	0	0	0	0	523	243	
8	0	0	0	0	522	243	
9	0	0	0	0	521	243	
10	0	0	0	0	518	243	
11	0	0	0	0	515	243	
12	0	0	0	0	512	243	
13	0	0	0	0	509	243	
14	0	0	0	0	505	243	
15	0	0	0	0	502	243	
0	0	0	0	0	499	243	
1	0	0	0	0	498	243	
2	0	0	0	0	497	243	
3	0	0	0	0	498	243	
4	0	0	0	0	500	243	
5	0	0	0	0	502	243	
6	0	0	0	0	504	243	
7	0	0	0	0	505	243	
8	0	0	0	0	507	243	
9	0	0	0	0	508	243	
10	0	0	0	0	508	243	
11	0	0	0	0	506	243	
12	0	0	0	0	504	243	
13	0	0	0	0	502	243	
14	0	0	0	0	500	243	
15	0	0	0	0	497	243	
0	0	0	0	0	495	243	
1	0	0	0	0	493	243	
2	0	0	0	0	490	243	
3	0	0	0	0	488	243	
4	0	0	0	0	487	243	
5	0	0	0	0	489	243	
6	0	0	0	0	491	243	
7	0	0	0	0	494	243	
8	0	0	0	0	496	243	
9	0	0	0	0	499	243	
10	0	0	0	0	501	243	
11	0	0	0	0	503	243	
12	0	0	0	0	504	243	
13	0	0	0	0	505	243	
14	0	0	0	0	504	243	
15	0	0	0	0	504	243	
0	0	0	0	0	503	243	
1	0	0	0	0	502	243	
2	0	0	0	0	502	243	
3	0	0	0	0	503	243	
4	0	0	0	0	504	243	
5	0	0	0	0	504	243	
6	0	0	0	0	504	243	
7	0	0	0	0	504	243	
8	0	0	0	0	506	243	
9	0	0	0	0	508	243	
10	0	0	0	0	509	243	
11	0	0	0	0	508	243	
12	0	0	0	0	508	243	
13	0	0	0	0	506	243	
14	0	0	0	0	504	243	
15	0	0	0	0	502	243	
0	0	0	0	0	498	243	
1	0	0	0	0	496	243	
2	0	0	0	0	493	243	
3	0	0	0	0	490	243	
4	0	0	0	0	489	243	
5	0	0	0	0	489	243	
6	0	0	0	0	491	243	
7	0	0	0	0	494	243	
8	0	0	0	0	496	243	
9	0	0	0	0	499	243	
10	0	0	0	0	501	243	
11	0	0	0	0	502	243	
12	0	0	0	0	503	243	
13	0	0	0	0	503	243	
14	0	0	0	0	501	243	
15	0	0	0	0	501	243	
0	0	0	0	0	499	243	
1	0	0	0	0	497	243	
2	0	0	0	0	495	243	
3	0	0	0	0	494	243	
4	0	0	0	0	492	243	
5	0	0	0	0	491	243	
6	0	0	0	0	489	243	
7	0	0	0	0	488	243	
8	0	0	0	0	488	243	
9	0	0	0	0	488	243	
10	0	0	0	0	488	243	
11	0	0	0	0	488	243	
12	0	0	0	0	487	243	
13	0	0	0	0	487	243	
14	0	0	0	0	486	243	
15	0	0	0	0	486	243	
0	0	0	0	0	486	243	
1	0	0	0	0	485	243	
2	0	0	0	0	483	243	
3	0	0	0	0	483	243	
4	0	0	0	0	481	243	
5	0	0	0	0	479	243	
6	0	0	0	0	479	243	
7	0	0	0	0	479	243	
8	0	0	0	0	481	243	
9	0	0	0	0	483	243	
10	0	0	0	0	485	243	
11	0	0	0	0	488	243	
12	0	0	0	0	489	243	
13	0	0	0	0	491	243	
14	0	0	0	0	491	243	
15	0	0	0	0	491	243	
0	0	0	0	0	489	243	
1	0	0	0	0	488	243	
2	0	0	0	0	487	243	
3	0	0	0	0	485	243	
4	0	0	0	0	483	243	
5	0	0	0	0	483	243	
6	0	0	0	0	481	243	
7	0	0	0	0	480	243	
8	0	0	0	0	480	243	
9	0	0	0	0	480	243	
10	0	0	0	0	481	243	
11	0	0	0	0	483	243	
12	0	0	0	0	485	243	
13	0	0	0	0	487	243	
14	0	0	0	0	488	243	
15	0	0	0	0	490	243	
0	0	0	0	0	490	243	
1	0	0	0	0	491	243	
2	0	0	0	0	491	243	
3	0	0	0	0	490	243	
4	0	0	0	0	490	243	
5	0	0	0	0	490	243	
6	0	0	0	0	489	243	
7	0	0	0	0	490	243	
8	0	0	0	0	491	243	
9	0	0	0	0	493	243	
10	0	0	0	0	496	243	
11	0	0	0	0	500	243	
12	0	0	0	0	503	243	
13	0	0	0	0	507	243	
14	0	0	0	0	510	243	
15	0	0	0	0	512	243	
0	0	0	0	0	514	243	
1	0	0	0	0	515	243	
2	0	0	0	0	516	243	
3	0	0	0	0	516	243	
4	0	0	0	0	515	243	
5	0	0	0	0	515	243	
6	0	0	0	0	515	243	
7	0	0	0	0	514	243	
8	0	0	0	0	514	243	
9	0	0	0	0	515	243	
10	0	0	0	0	516	243	
11	0	0	0	0	519	243	
12	0	0	0	0	522	243	
13	0	0	0	0	525	243	
14	0	0	0	0	527	243	
15	0	0	0	0	527	243	
0	0	0	0	0	528	243	
1	0	0	0	0	529	243	
2	0	0	0	0	530	243	
3	0	0	0	0	531	243	
4	0	0	0	0	531	243	
5	0	0	0	0	530	243	
6	0	0	0	0	530	243	
7	0	0	0	0	529	243	
8	0	0	0	0	529	243	
9	0	0	0	0	530	243	
10	0	0	0	0	532	243	
11	0	0	0	0	534	243	
12	0	0	0	0	536	243	
13	0	0	0	0	537	243	
14	0	0	0	0	538	243	
15	0	0	0	0	538	243	
0	0	0	0	0	539	243	
1	0	0	0	0	538	243	
2	0	0	0	0	537	243	
3	0	0	0	0	536	243	
4	0	0	0	0	534	243	
5	0	0	0	0	531	243	
6	0	0	0	0	528	243	
7	0	0	0	0	526	243	
8	0	0	0	0	525	243	
9	0	0	0	0	524	243	
10	0	0	0	0	525	243	
11	0	0	0	0	526	243	
12	0	0	0	0	528	243	
13	0	0	0	0	532	243	
14	0	0	0	0	535	243	
15	0	0	0	0	537	243	
0	0	0	0	0	538	243	
1	0	0	0	0	540	243	
2	0	0	0	0	541	243	
3	0	0	0	0	541	243	
4	0	0	0	0	541	243	
5	0	0	0	0	540	243	
6	0	0	0	0	539	243	
7	0	0	0	0	537	243	
8	0	0	0	0	537	243	
9	0	0	0	0	536	243	
10	0	0	0	0	537	242	
11	0	0	0	0	539	243	
12	0	0	0	0	540	243	
13	0	0	0	0	542	243	
14	0	0	0	0	544	243	
15	0	0	0	0	547	243	
0	0	0	0	0	546	243	
1	0	0	0	0	547	243	
2	0	0	0	0	547	243	
3	0	0	0	0	547	243	
4	0	0	0	0	547	243	
5	0	0	0	0	546	243	
6	0	0	0	0	545	243	
7	0	0	0	0	545	243	
8	0	0	0	0	545	243	
9	0	0	0	0	546	243	
10	0	0	0	0	547	243	
11	0	0	0	0	548	243	
12	0	0	0	0	550	243	
13	0	0	0	0	552	243	
14	0	0	0	0	555	243	
15	0	0	0	0	557	243	
0	0	0	0	0	560	243	
1	0	0	0	0	562	243	
2	0	0	0	0	563	243	
3	0	0	0	0	564	243	
4	0	0	0	0	563	243	
5	0	0	0	0	562	243	
6	0	0	0	0	560	243	
7	0	0	0	0	557	243	
8	0	0	0	0	553	243	
9	0	0	0	0	550	243	
10	0	0	0	0	548	243	
11	0	0	0	0	547	243	
12	0	0	0	0	546	243	
13	0	0	0	0	547	243	
14	0	0	0	0	547	243	
15	0	0	0	0	548	243	
0	0	0	0	0	550	243	
1	0	0	0	0	551	243	
2	0	0	0	0	551	243	
3	0	0	0	0	551	243	
4	0	0	0	0	550	243	
5	0	0	0	0	550	243	
6	0	0	0	0	547	242	
7	0	0	0	0	544	243	
8	0	0	0	0	542	242	
9	0	0	0	0	539	243	
10	0	0	0	0	535	243	
11	0	0	0	0	532	243	
12	0	0	0	0	529	243	
13	0	0	0	0	528	243	
14	0	0	0	0	526	243	
15	0	0	0	0	525	243	
0	0	0	0	0	524	243	
1	0	0	0	0	524	243	
2	0	0	0	0	525	243	
3	0	0	0	0	526	243	
4	0	0	0	0	526	243	
5	0	0	0	0	526	243	
6	0	0	0	0	524	243	
7	0	0	0	0	521	243	
8	0	0	0	0	520	243	
9	0	0	0	0	518	243	
10	0	0	0	0	515	243	
11	0	0	0	0	514	243	
12	0	0	0	0	512	243	
13	0	0	0	0	512	243	
14	0	0	0	0	511	243	
15	0	0	0	0	511	243	
0	0	0	0	0	512	243	
1	0	0	0	0	513	243	
2	0	0	0	0	513	243	
3	0	0	0	0	512	243	
4	0	0	0	0	511	243	
5	0	0	0	0	509	243	
6	0	0	0	0	506	243	
7	0	0	0	0	503	243	
8	0	0	0	0	500	243	
9	0	0	0	0	498	243	
10	0	0	0	0	495	243	
11	0	0	0	0	494	243	
12	0	0	0	0	492	243	
13	0	0	0	0	492	243	
14	0	0	0	0	492	243	
15	0	0	0	0	492	243	
0	0	0	0	0	493	243	
1	0	0	0	0	495	243	
2	0	0	0	0	497	243	
3	0	0	0	0	499	243	
4	0	0	0	0	500	243	
5	0	0	0	0	501	243	
6	0	0	0	0	501	243	
7	0	0	0	0	499	243	
8	0	0	0	0	499	243	
9	0	0	0	0	497	243	
10	0	0	0	0	496	243	
11	0	0	0	0	494	243	
12	0	0	0	0	494	243	
13	0	0	0	0	492	243	
14	0	0	0	0	492	243	
15	0	0	0	0	492	243	
0	0	0	0	0	492	243	
1	0	0	0	0	493	243	
2	0	0	0	0	495	243	
3	0	0	0	0	497	243	
4	0	0	0	0	499	243	
5	0	0	0	0	499	243	
6	0	0	0	0	498	243	
7	0	0	0	0	496	243	
8	0	0	0	0	492	243	
9	0	0	0	0	489	243	
10	0	0	0	0	486	243	
11	0	0	0	0	484	243	
12	0	0	0	0	483	243	
13	0	0	0	0	483	243	
14	0	0	0	0	484	243	
15	0	0	0	0	485	243	
0	0	0	0	0	487	243	
1	0	0	0	0	488	243	
2	0	0	0	0	490	243	
3	0	0	0	0	492	243	
4	0	0	0	0	493	243	
5	0	0	0	0	495	243	
6	0	0	0	0	498	243	
7	0	0	0	0	500	243	
8	0	0	0	0	501	243	
9	0	0	0	0	502	243	
10	0	0	0	0	501	243	
11	0	0	0	0	500	243	
12	0	0	0	0	499	243	
13	0	0	0	0	499	243	
14	0	0	0	0	498	243	
15	0	0	0	0	498	243	
0	0	0	0	0	499	243	
1	0	0	0	0	499	243	
2	0	0	0	0	500	243	
3	0	0	0	0	502	243	
4	0	0	0	0	503	243	
5	0	0	0	0	504	243	
6	0	0	0	0	505	243	
7	0	0	0	0	507	243	
8	0	0	0	0	507	243	
9	0	0	0	0	505	243	
10	0	0	0	0	503	243	
11	0	0	0	0	500	243	
12	0	0	0	0	497	243	
13	0	0	0	0	494	243	
14	0	0	0	0	492	243	
15	0	0	0	0	490	243	
0	0	0	0	0	490	243	
1	0	0	0	0	489	243	
2	0	0	0	0	490	243	
3	0	0	0	0	490	243	
4	0	0	0	0	491	243	
5	0	0	0	0	492	243	
6	0	0	0	0	493	243	
7	0	0	0	0	493	243	
8	0	0	0	0	491	243	
9	0	0	0	0	488	243	
10	0	0	0	0	486	243	
11	0	0	0	0	482	243	
12	0	0	0	0	480	243	
13	0	0	0	0	479	243	
14	0	0	0	0	477	243	
15	0	0	0	0	476	243	
0	0	0	0	0	475	243	
1	0	0	0	0	474	243	
2	0	0	0	0	475	243	
3	0	0	0	0	477	243	
4	0	0	0	0	479	243	
5	0	0	0	0	481	243	
6	0	0	0	0	483	243	
7	0	0	0	0	485	243	
8	0	0	0	0	486	243	
9	0	0	0	0	487	243	
10	0	0	0	0	487	243	
11	0	0	0	0	487	243	
12	0	0	0	0	487	243	
13	0	0	0	0	487	243	
14	0	0	0	0	486	243	
15	0	0	0	0	487	243	
0	0	0	0	0	486	243	
1	0	0	0	0	487	243	
2	0	0	0	0	488	243	
3	0	0	0	0	490	243	
4	0	0	0	0	491	243	
5	0	0	0	0	491	243	
6	0	0	0	0	490	243	
7	0	0	0	0	491	243	
8	0	0	0	0	490	243	
9	0	0	0	0	490	243	
10	0	0	0	0	490	243	
11	0	0	0	0	490	243	
12	0	0	0	0	488	243	
13	0	0	0	0	487	243	
14	0	0	0	0	484	243	
15	0	0	0	0	481	243	
0	0	0	0	0	481	243	
1	0	0	0	0	481	243	
2	0	0	0	0	481	243	
3	0	0	0	0	482	243	
4	0	0	0	0	483	243	
5	0	0	0	0	486	243	
6	0	0	0	0	488	243	
7	0	0	0	0	492	243	
8	0	0	0	0	494	243	
9	0	0	0	0	496	243	
10	0	0	0	0	498	243	
11	0	0	0	0	499	243	
12	0	0	0	0	499	243	
13	0	0	0	0	499	243	
14	0	0	0	0	497	243	
15	0	0	0	0	497	243	
0	0	0	0	0	495	243	
1	0	0	0	0	493	243	
2	0	0	0	0	493	243	
3	0	0	0	0	494	243	
4	0	0	0	0	495	243	
5	0	0	0	0	497	243	
6	0	0	0	0	499	243	
7	0	0	0	0	500	243	
8	0	0	0	0	502	243	
9	0	0	0	0	502	243	
10	0	0	0	0	501	243	
11	0	0	0	0	499	243	
12	0	0	0	0	497	243	
13	0	0	0	0	496	243	
14	0	0	0	0	493	243	
15	0	0	0	0	490	243	
0	0	0	0	0	489	243	
1	0	0	0	0	488	243	
2	0	0	0	0	487	243	
3	0	0	0	0	484	243	
4	0	0	0	0	483	243	
5	0	0	0	0	483	243	
6	0	0	0	0	483	243	
7	0	0	0	0	485	243	
8	0	0	0	0	486	243	
9	0	0	0	0	487	243	
10	0	0	0	0	487	243	
11	0	0	0	0	487	243	
12	0	0	0	0	487	243	
13	0	0	0	0	487	243	
14	0	0	0	0	485	243	
15	0	0	0	0	483	243	
0	0	0	0	0	481	243	
1	0	0	0	0	479	243	
2	0	0	0	0	476	243	
3	0	0	0	0	474	243	
4	0	0	0	0	472	243	
5	0	0	0	0	472	243	
6	0	0	0	0	472	243	
7	0	0	0	0	472	243	
8	0	0	0	0	475	243	
9	0	0	0	0	477	243	
10	0	0	0	0	478	243	
11	0	0	0	0	478	243	
12	0	0	0	0	477	243	
13	0	0	0	0	476	243	
14	0	0	0	0	475	243	
15	0	0	0	0	474	243	
0	0	0	0	0	474	243	
1	0	0	0	0	473	243	
2	0	0	0	0	473	243	
3	0	0	0	0	473	243	
4	0	0	0	0	473	243	
5	0	0	0	0	473	243	
6	0	0	0	0	473	243	
7	0	0	0	0	474	243	
8	0	0	0	0	475	243	
9	0	0	0	0	477	243	
10	0	0	0	0	479	243	
11	0	0	0	0	483	243	
12	0	0	0	0	486	243	
13	0	0	0	0	489	243	
14	0	0	0	0	490	243	
15	0	0	0	0	490	243	
0	0	0	0	0	489	243	
1	0	0	0	0	488	243	
2	0	0	0	0	486	243	
3	0	0	0	0	485	243	
4	0	0	0	0	484	243	
5	0	0	0	0	484	243	
6	0	0	0	0	483	243	
7	0	0	0	0	481	243	
8	0	0	0	0	481	243	
9	0	0	0	0	481	243	
10	0	0	0	0	482	243	
11	0	0	0	0	482	243	
12	0	0	0	0	482	243	
13	0	0	0	0	482	243	
14	0	0	0	0	480	243	
15	0	0	0	0	479	243	
0	0	0	0	0	477	243	
1	0	0	0	0	475	243	
2	0	0	0	0	473	243	
3	0	0	0	0	473	243	
4	0	0	0	0	472	243	
5	0	0	0	0	472	243	
6	0	0	0	0	472	243	
7	0	0	0	0	472	243	
8	0	0	0	0	473	243	
9	0	0	0	0	475	243	
10	0	0	0	0	476	243	
11	0	0	0	0	478	243	
12	0	0	0	0	479	243	
13	0	0	0	0	479	243	
14	0	0	0	0	478	243	
15	0	0	0	0	476	243	
0	0	0	0	0	473	243	
1	0	0	0	0	470	243	
2	0	0	0	0	467	243	
3	0	0	0	0	463	243	
4	0	0	0	0	460	243	
5	0	0	0	0	456	243	
6	0	0	0	0	453	243	
7	0	0	0	0	451	243	
8	0	0	0	0	450	243	
9	0	0	0	0	451	243	
10	0	0	0	0	452	243	
11	0	0	0	0	455	243	
12	0	0	0	0	457	243	
13	0	0	0	0	460	243	
14	0	0	0	0	461	243	
15	0	0	0	0	462	243	
0	0	0	0	0	462	243	
1	0	0	0	0	460	243	
2	0	0	0	0	457	243	
3	0	0	0	0	457	243	
4	0	0	0	0	457	243	
5	0	0	0	0	459	243	
6	0	0	0	0	460	243	
7	0	0	0	0	463	243	
8	0	0	0	0	467	243	
9	0	0	0	0	472	243	
10	0	0	0	0	475	243	
11	0	0	0	0	479	243	
12	0	0	0	0	482	243	
13	0	0	0	0	486	243	
14	0	0	0	0	487	243	
15	0	0	0	0	489	243	
0	0	0	0	0	488	243	
1	0	0	0	0	487	243	
2	0	0	0	0	486	243	
3	0	0	0	0	484	243	
4	0	0	0	0	482	243	
5	0	0	0	0	481	243	
6	0	0	0	0	481	243	
7	0	0	0	0	481	243	
8	0	0	0	0	483	243	
9	0	0	0	0	486	243	
10	0	0	0	0	488	243	
11	0	0	0	0	491	243	
12	0	0	0	0	493	243	
13	0	0	0	0	495	243	
14	0	0	0	0	495	243	
15	0	0	0	0	496	243	
0	0	0	0	0	497	243	
1	0	0	0	0	497	243	
2	0	0	0	0	496	243	
3	0	0	0	0	494	243	
4	0	0	0	0	492	243	
5	0	0	0	0	491	243	
6	0	0	0	0	490	243	
7	0	0	0	0	491	243	
8	0	0	0	0	492	243	
9	0	0	0	0	494	243	
10	0	0	0	0	496	243	
11	0	0	0	0	499	243	
12	0	0	0	0	503	243	
13	0	0	0	0	506	243	
14	0	0	0	0	510	243	
15	0	0	0	0	512	242	
0	0	0	0	0	516	243	
1	0	0	0	0	519	243	
2	0	0	0	0	519	243	
3	0	0	0	0	519	243	
4	0	0	0	0	519	243	
5	0	0	0	0	518	243	
6	0	0	0	0	516	243	
7	0	0	0	0	515	243	
8	0	0	0	0	515	243	
9	0	0	0	0	515	243	
10	0	0	0	0	516	243	
11	0	0	0	0	517	243	
12	0	0	0	0	517	243	
13	0	0	0	0	519	243	
14	0	0	0	0	520	243	
15	0	0	0	0	521	243	
0	0	0	0	0	520	243	
1	0	0	0	0	521	243	
2	0	0	0	0	520	243	
3	0	0	0	0	519	243	
4	0	0	0	0	516	243	
5	0	0	0	0	514	243	
6	0	0	0	0	512	243	
7	0	0	0	0	510	243	
8	0	0	0	0	511	243	
9	0	0	0	0	511	243	
10	0	0	0	0	512	243	
11	0	0	0	0	515	243	
12	0	0	0	0	518	243	
13	0	0	0	0	519	243	
14	0	0	0	0	522	243	
15	0	0	0	0	524	243	
0	0	0	0	0	523	243	
1	0	0	0	0	521	243	
2	0	0	0	0	519	243	
3	0	0	0	0	515	243	
4	0	0	0	0	512	243	
5	0	0	0	0	508	243	
6	0	0	0	0	505	243	
7	0	0	0	0	502	243	
8	0	0	0	0	501	243	
9	0	0	0	0	499	243	
10	0	0	0	0	499	243	
11	0	0	0	0	499	243	
12	0	0	0	0	499	243	
13	0	0	0	0	501	243	
14	0	0	0	0	503	243	
15	0	0	0	0	504	243	
0	0	0	0	0	505	243	
1	0	0	0	0	505	243	
2	0	0	0	0	506	243	
3	0	0	0	0	504	243	
4	0	0	0	0	502	243	
5	0	0	0	0	499	243	
6	0	0	0	0	496	243	
7	0	0	0	0	493	243	
8	0	0	0	0	490	243	
9	0	0	0	0	488	243	
10	0	0	0	0	487	243	
11	0	0	0	0	486	243	
12	0	0	0	0	485	243	
13	0	0	0	0	485	243	
14	0	0	0	0	485	243	
15	0	0	0	0	486	243	
0	0	0	0	0	487	243	
1	0	0	0	0	488	243	
2	0	0	0	0	488	243	
3	0	0	0	0	487	243	
4	0	0	0	0	486	243	
5	0	0	0	0	485	243	
6	0	0	0	0	483	243	
7	0	0	0	0	481	243	
8	0	0	0	0	480	243	
9	0	0	0	0	478	243	
10	0	0	0	0	477	243	
11	0	0	0	0	478	243	
12	0	0	0	0	480	243	
13	0	0	0	0	483	243	
14	0	0	0	0	486	243	
15	0	0	0	0	488	243	
0	0	0	0	0	491	243	
1	0	0	0	0	495	243	
2	0	0	0	0	499	243	
3	0	0	0	0	502	243	
4	0	0	0	0	505	243	
5	0	0	0	0	507	243	
6	0	0	0	0	508	243	
7	0	0	0	0	509	243	
8	0	0	0	0	508	243	
9	0	0	0	0	508	243	
10	0	0	0	0	508	243	
11	0	0	0	0	508	243	
12	0	0	0	0	508	243	
13	0	0	0	0	509	243	
14	0	0	0	0	512	243	
15	0	0	0	0	515	243	
0	0	0	0	0	519	243	
1	0	0	0	0	524	243	
2	0	0	0	0	528	243	
3	0	0	0	0	532	243	
4	0	0	0	0	536	243	
5	0	0	0	0	540	242	
6	0	0	0	0	542	243	
7	0	0	0	0	544	242	
8	0	0	0	0	545	243	
9	0	0	0	0	545	243	
10	0	0	0	0	544	243	
11	0	0	0	0	543	242	
12	0	0	0	0	543	243	
13	0	0	0	0	544	242	
14	0	0	0	0	546	243	
15	0	0	0	0	548	243	
0	0	0	0	0	551	243	
1	0	0	0	0	554	243	
2	0	0	0	0	555	243	
3	0	0	0	0	556	243	
4	0	0	0	0	558	243	
5	0	0	0	0	559	243	
6	0	0	0	0	560	243	
7	0	0	0	0	560	243	
8	0	0	0	0	561	243	
9	0	0	0	0	561	243	
10	0	0	0	0	561	243	
11	0	0	0	0	563	243	
12	0	0	0	0	563	243	
13	0	0	0	0	565	243	
14	0	0	0	0	567	243	
15	0	0	0	0	569	242	
0	0	0	0	0	571	243	
1	0	0	0	0	572	242	
2	0	0	0	0	575	243	
3	0	0	0	0	577	243	
4	0	0	0	0	579	243	
5	0	0	0	0	580	243	
6	0	0	0	0	582	243	
7	0	0	0	0	582	243	
8	0	0	0	0	581	243	
9	0	0	0	0	580	243	
10	0	0	0	0	578	243	
11	0	0	0	0	576	243	
12	0	0	0	0	575	243	
13	0	0	0	0	572	243	
14	0	0	0	0	570	243	
15	0	0	0	0	569	243	
0	0	0	0	0	569	243	
1	0	0	0	0	569	242	
2	0	0	0	0	570	243	
3	0	0	0	0	572	243	
4	0	0	0	0	572	243	
5	0	0	0	0	572	243	
6	0	0	0	0	572	243	
7	0	0	0	0	570	243	
8	0	0	0	0	568	243	
9	0	0	0	0	565	243	
10	0	0	0	0	561	242	
11	0	0	0	0	557	243	
12	0	0	0	0	552	243	
13	0	0	0	0	548	243	
14	0	0	0	0	543	243	
15	0	0	0	0	540	243	
0	0	0	0	0	537	243	
1	0	0	0	0	534	243	
2	0	0	0	0	531	243	
3	0	0	0	0	530	243	
4	0	0	0	0	528	243	
5	0	0	0	0	527	243	
6	0	0	0	0	525	243	
7	0	0	0	0	521	243	
8	0	0	0	0	515	243	
9	0	0	0	0	511	243	
10	0	0	0	0	506	243	
11	0	0	0	0	502	243	
12	0	0	0	0	498	243	
13	0	0	0	0	494	243	
14	0	0	0	0	490	243	
15	0	0	0	0	486	243	
0	0	0	0	0	483	243	
1	0	0	0	0	480	243	
2	0	0	0	0	477	243	
3	0	0	0	0	475	243	
4	0	0	0	0	473	243	
5	0	0	0	0	471	243	
6	0	0	0	0	470	243	
7	0	0	0	0	469	243	
8	0	0	0	0	467	243	
9	0	0	0	0	465	243	
10	0	0	0	0	463	243	
11	0	0	0	0	461	243	
12	0	0	0	0	458	243	
13	0	0	0	0	455	243	
14	0	0	0	0	452	243	
15	0	0	0	0	451	243	
0	0	0	0	0	451	243	
1	0	0	0	0	453	243	
2	0	0	0	0	454	243	
3	0	0	0	0	455	243	
4	0	0	0	0	456	243	
5	0	0	0	0	457	243	
6	0	0	0	0	457	243	
7	0	0	0	0	458	243	
8	0	0	0	0	459	243	
9	0	0	0	0	460	243	
10	0	0	0	0	459	243	
11	0	0	0	0	459	243	
12	0	0	0	0	457	243	
13	0	0	0	0	457	243	
14	0	0	0	0	456	243	
15	0	0	0	0	456	243	
0	0	0	0	0	456	243	
1	0	0	0	0	458	243	
2	0	0	0	0	461	243	
3	0	0	0	0	463	243	
4	0	0	0	0	466	243	
5	0	0	0	0	470	243	
6	0	0	0	0	473	243	
7	0	0	0	0	474	243	
8	0	0	0	0	476	243	
9	0	0	0	0	477	243	
10	0	0	0	0	476	243	
11	0	0	0	0	475	243	
12	0	0	0	0	474	243	
13	0	0	0	0	472	243	
14	0	0	0	0	469	243	
15	0	0	0	0	465	243	
0	0	0	0	0	462	243	
1	0	0	0	0	460	243	
2	0	0	0	0	460	243	
3	0	0	0	0	461	243	
4	0	0	0	0	463	243	
5	0	0	0	0	465	243	
6	0	0	0	0	468	243	
7	0	0	0	0	472	243	
8	0	0	0	0	477	243	
9	0	0	0	0	482	243	
10	0	0	0	0	487	243	
11	0	0	0	0	494	243	
12	0	0	0	0	504	243	
13	0	0	0	0	514	243	
14	0	0	0	0	523	243	
15	0	0	0	0	532	243	
0	0	0	0	0	542	243	
1	0	0	0	0	552	243	
2	0	0	0	0	563	243	
3	0	0	0	0	575	243	
4	0	0	0	0	585	243	
5	0	0	0	0	594	243	
6	0	0	0	0	603	243	
7	0	0	0	0	612	243	
8	0	0	0	0	619	243	
9	0	0	0	0	625	243	
10	0	0	0	0	631	243	
11	0	0	0	0	636	243	
12	0	0	0	0	637	242	
13	0	0	0	0	637	243	
14	0	0	0	0	637	242	
15	0	0	0	0	635	243	
0	0	0	0	0	632	243	
1	0	0	0	0	628	243	
2	0	0	0	0	622	243	
3	0	0	0	0	615	243	
4	0	0	0	0	607	243	
5	0	0	0	0	599	243	
6	0	0	0	0	591	243	
7	0	0	0	0	585	243	
8	0	0	0	0	579	243	
9	0	0	0	0	571	242	
10	0	0	0	0	561	243	
11	0	0	0	0	550	243	
12	0	0	0	0	537	243	
13	0	0	0	0	524	243	
14	0	0	0	0	510	243	
15	0	0	0	0	495	243	
0	0	0	0	0	482	243	
1	0	0	0	0	470	243	
2	0	0	0	0	461	243	
3	0	0	0	0	455	243	
4	0	0	0	0	451	243	
5	0	0	0	0	448	243	
6	0	0	0	0	445	243	
7	0	0	0	0	444	243	
8	0	0	0	0	444	243	
9	0	0	0	0	443	243	
10	0	0	0	0	442	243	
11	0	0	0	0	442	243	
12	0	0	0	0	443	243	
13	0	0	0	0	444	243	
14	0	0	0	0	446	243	
15	0	0	0	0	448	243	
0	0	0	0	0	450	243	
1	0	0	0	0	453	243	
2	0	0	0	0	456	243	
3	0	0	0	0	460	243	
4	0	0	0	0	462	243	
5	0	0	0	0	464	243	
6	0	0	0	0	465	243	
7	0	0	0	0	467	243	
8	0	0	0	0	470	243	
9	0	0	0	0	472	243	
10	0	0	0	0	473	243	
11	0	0	0	0	476	243	
12	0	0	0	0	477	243	
13	0	0	0	0	478	243	
14	0	0	0	0	478	243	
15	0	0	0	0	478	243	
0	0	0	0	0	477	243	
1	0	0	0	0	478	243	
2	0	0	0	0	477	243	
3	0	0	0	0	476	243	
4	0	0	0	0	476	243	
5	0	0	0	0	477	243	
6	0	0	0	0	479	243	
7	0	0	0	0	481	243	
8	0	0	0	0	483	243	
9	0	0	0	0	486	243	
10	0	0	0	0	488	243	
11	0	0	0	0	491	243	
12	0	0	0	0	492	243	
13	0	0	0	0	493	243	
14	0	0	0	0	492	243	
15	0	0	0	0	490	243	
0	0	0	0	0	488	243	
1	0	0	0	0	487	243	
2	0	0	0	0	485	243	
3	0	0	0	0	483	243	
4	0	0	0	0	483	243	
5	0	0	0	0	485	243	
6	0	0	0	0	487	243	
7	0	0	0	0	491	243	
8	0	0	0	0	495	243	
9	0	0	0	0	499	243	
10	0	0	0	0	504	243	
11	0	0	0	0	510	243	
12	0	0	0	0	515	243	
13	0	0	0	0	518	243	
14	0	0	0	0	520	243	
15	0	0	0	0	522	243	
0	0	0	0	0	521	243	
1	0	0	0	0	519	243	
2	0	0	0	0	517	243	
3	0	0	0	0	514	243	
4	0	0	0	0	511	243	
5	0	0	0	0	508	243	
6	0	0	0	0	504	243	
7	0	0	0	0	503	243	
8	0	0	0	0	504	243	
9	0	0	0	0	505	243	
10	0	0	0	0	507	243	
11	0	0	0	0	508	243	
12	0	0	0	0	510	243	
13	0	0	0	0	512	243	
14	0	0	0	0	512	243	
15	0	0	0	0	512	243	
0	0	0	0	0	511	243	
1	0	0	0	0	510	243	
2	0	0	0	0	508	243	
3	0	0	0	0	506	243	
4	0	0	0	0	505	243	
5	0	0	0	0	503	243	
6	0	0	0	0	500	243	
7	0	0	0	0	499	243	
8	0	0	0	0	499	243	
9	0	0	0	0	499	243	
10	0	0	0	0	499	243	
11	0	0	0	0	500	243	
12	0	0	0	0	501	243	
13	0	0	0	0	504	243	
14	0	0	0	0	506	243	
15	0	0	0	0	507	243	
0	0	0	0	0	506	243	
1	0	0	0	0	506	243	
2	0	0	0	0	505	243	
3	0	0	0	0	503	243	
4	0	0	0	0	501	243	
5	0	0	0	0	500	243	
6	0	0	0	0	498	243	
7	0	0	0	0	496	243	
8	0	0	0	0	496	243	
9	0	0	0	0	496	243	
10	0	0	0	0	497	243	
11	0	0	0	0	499	243	
12	0	0	0	0	502	243	
13	0	0	0	0	504	243	
14	0	0	0	0	505	243	
15	0	0	0	0	506	243	
0	0	0	0	0	505	243	
1	0	0	0	0	504	243	
2	0	0	0	0	503	243	
3	0	0	0	0	503	243	
4	0	0	0	0	502	243	
5	0	0	0	0	503	243	
6	0	0	0	0	504	243	
7	0	0	0	0	504	243	
8	0	0	0	0	505	243	
9	0	0	0	0	506	243	
10	0	0	0	0	508	243	
11	0	0	0	0	510	243	
12	0	0	0	0	512	243	
13	0	0	0	0	514	243	
14	0	0	0	0	516	243	
15	0	0	0	0	518	242	
0	0	0	0	0	519	243	
1	0	0	0	0	520	243	
2	0	0	0	0	519	243	
3	0	0	0	0	518	243	
4	0	0	0	0	517	243	
5	0	0	0	0	516	243	
6	0	0	0	0	514	243	
7	0	0	0	0	512	243	
8	0	0	0	0	512	243	
9	0	0	0	0	511	243	
10	0	0	0	0	511	243	
11	0	0	0	0	511	243	
12	0	0	0	0	511	243	
13	0	0	0	0	512	243	
14	0	0	0	0	512	243	
15	0	0	0	0	513	243	
0	0	0	0	0	513	243	
1	0	0	0	0	514	243	
2	0	0	0	0	514	243	
3	0	0	0	0	512	243	
4	0	0	0	0	511	243	
5	0	0	0	0	508	243	
6	0	0	0	0	505	243	
7	0	0	0	0	504	243	
8	0	0	0	0	504	243	
9	0	0	0	0	503	243	
10	0	0	0	0	504	243	
11	0	0	0	0	504	243	
12	0	0	0	0	505	243	
13	0	0	0	0	505	243	
14	0	0	0	0	506	243	
15	0	0	0	0	506	243	
0	0	0	0	0	507	243	
1	0	0	0	0	508	243	
2	0	0	0	0	507	243	
3	0	0	0	0	507	243	
4	0	0	0	0	506	243	
5	0	0	0	0	504	243	
6	0	0	0	0	500	243	
7	0	0	0	0	498	243	
8	0	0	0	0	497	243	
9	0	0	0	0	496	243	
10	0	0	0	0	495	243	
11	0	0	0	0	493	243	
12	0	0	0	0	492	243	
13	0	0	0	0	492	243	
14	0	0	0	0	491	243	
15	0	0	0	0	490	243	
0	0	0	0	0	490	243	
1	0	0	0	0	490	243	
2	0	0	0	0	489	243	
3	0	0	0	0	488	243	
4	0	0	0	0	486	243	
5	0	0	0	0	483	243	
6	0	0	0	0	482	243	
7	0	0	0	0	481	243	
8	0	0	0	0	479	243	
9	0	0	0	0	477	243	
10	0	0	0	0	477	243	
11	0	0	0	0	477	243	
12	0	0	0	0	478	243	
13	0	0	0	0	479	243	
14	0	0	0	0	480	243	
15	0	0	0	0	482	243	
0	0	0	0	0	484	243	
1	0	0	0	0	487	243	
2	0	0	0	0	490	243	
3	0	0	0	0	491	243	
4	0	0	0	0	492	243	
5	0	0	0	0	492	243	
6	0	0	0	0	491	243	
7	0	0	0	0	492	243	
8	0	0	0	0	492	243	
9	0	0	0	0	491	243	
10	0	0	0	0	490	243	
11	0	0	0	0	490	243	
12	0	0	0	0	491	243	
13	0	0	0	0	492	243	
14	0	0	0	0	493	243	
15	0	0	0	0	494	243	
0	0	0	0	0	495	243	
1	0	0	0	0	497	243	
2	0	0	0	0	497	243	
3	0	0	0	0	498	243	
4	0	0	0	0	499	243	
5	0	0	0	0	499	243	
6	0	0	0	0	498	243	
7	0	0	0	0	496	243	
8	0	0	0	0	495	243	
9	0	0	0	0	496	243	
10	0	0	0	0	496	243	
11	0	0	0	0	497	243	
12	0	0	0	0	498	243	
13	0	0	0	0	499	243	
14	0	0	0	0	500	243	
15	0	0	0	0	502	243	
0	0	0	0	0	505	243	
1	0	0	0	0	509	243	
2	0	0	0	0	511	243	
3	0	0	0	0	512	243	
4	0	0	0	0	515	243	
5	0	0	0	0	518	243	
6	0	0	0	0	519	243	
7	0	0	0	0	519	243	
8	0	0	0	0	518	243	
9	0	0	0	0	518	243	
10	0	0	0	0	518	243	
11	0	0	0	0	519	243	
12	0	0	0	0	519	243	
13	0	0	0	0	520	243	
14	0	0	0	0	522	243	
15	0	0	0	0	523	243	
0	0	0	0	0	524	243	
1	0	0	0	0	526	243	
2	0	0	0	0	526	243	
3	0	0	0	0	527	243	
4	0	0	0	0	528	243	
5	0	0	0	0	529	243	
6	0	0	0	0	530	243	
7	0	0	0	0	531	243	
8	0	0	0	0	530	243	
9	0	0	0	0	528	243	
10	0	0	0	0	526	243	
11	0	0	0	0	523	243	
12	0	0	0	0	521	243	
13	0	0	0	0	519	243	
14	0	0	0	0	517	243	
15	0	0	0	0	516	243	
0	0	0	0	0	515	243	
1	0	0	0	0	516	243	
2	0	0	0	0	518	243	
3	0	0	0	0	519	243	
4	0	0	0	0	521	243	
5	0	0	0	0	522	243	
6	0	0	0	0	522	243	
7	0	0	0	0	520	243	
8	0	0	0	0	518	243	
9	0	0	0	0	516	243	
10	0	0	0	0	514	243	
11	0	0	0	0	512	243	
12	0	0	0	0	511	243	
13	0	0	0	0	510	243	
14	0	0	0	0	508	243	
15	0	0	0	0	507	243	
0	0	0	0	0	506	243	
1	0	0	0	0	507	243	
2	0	0	0	0	508	243	
3	0	0	0	0	509	243	
4	0	0	0	0	511	243	
5	0	0	0	0	513	243	
6	0	0	0	0	514	243	
7	0	0	0	0	515	243	
8	0	0	0	0	514	243	
9	0	0	0	0	513	243	
10	0	0	0	0	512	243	
11	0	0	0	0	510	243	
12	0	0	0	0	507	243	
13	0	0	0	0	504	243	
14	0	0	0	0	502	243	
15	0	0	0	0	501	243	
0	0	0	0	0	500	243	
1	0	0	0	0	499	243	
2	0	0	0	0	499	243	
3	0	0	0	0	499	243	
4	0	0	0	0	500	243	
5	0	0	0	0	500	243	
6	0	0	0	0	499	243	
7	0	0	0	0	499	243	
8	0	0	0	0	497	243	
9	0	0	0	0	496	243	
10	0	0	0	0	494	243	
11	0	0	0	0	492	243	
12	0	0	0	0	491	243	
13	0	0	0	0	489	243	
14	0	0	0	0	489	243	
15	0	0	0	0	489	243	
0	0	0	0	0	488	243	
1	0	0	0	0	490	243	
2	0	0	0	0	492	243	
3	0	0	0	0	494	243	
4	0	0	0	0	498	243	
5	0	0	0	0	502	243	
6	0	0	0	0	504	243	
7	0	0	0	0	507	243	
8	0	0	0	0	511	243	
9	0	0	0	0	513	243	
10	0	0	0	0	513	243	
11	0	0	0	0	513	243	
12	0	0	0	0	513	243	
13	0	0	0	0	512	243	
14	0	0	0	0	512	243	
15	0	0	0	0	511	243	
0	0	0	0	0	511	243	
1	0	0	0	0	510	243	
2	0	0	0	0	510	243	
3	0	0	0	0	511	243	
4	0	0	0	0	513	243	
5	0	0	0	0	515	243	
6	0	0	0	0	517	243	
7	0	0	0	0	519	243	
8	0	0	0	0	521	243	
9	0	0	0	0	523	243	
10	0	0	0	0	523	243	
11	0	0	0	0	523	243	
12	0	0	0	0	523	243	
13	0	0	0	0	521	243	
14	0	0	0	0	520	243	
15	0	0	0	0	519	243	
0	0	0	0	0	518	243	
1	0	0	0	0	516	243	
2	0	0	0	0	516	243	
3	0	0	0	0	516	243	
4	0	0	0	0	516	243	
5	0	0	0	0	517	243	
6	0	0	0	0	517	243	
7	0	0	0	0	516	243	
8	0	0	0	0	515	243	
9	0	0	0	0	512	243	
10	0	0	0	0	510	243	
11	0	0	0	0	510	243	
12	0	0	0	0	508	243	
13	0	0	0	0	507	243	
14	0	0	0	0	504	243	
15	0	0	0	0	502	243	
0	0	0	0	0	500	243	
1	0	0	0	0	498	243	
2	0	0	0	0	497	243	
3	0	0	0	0	497	243	
4	0	0	0	0	497	243	
5	0	0	0	0	498	243	
6	0	0	0	0	499	243	
7	0	0	0	0	500	243	
8	0	0	0	0	501	243	
9	0	0	0	0	500	243	
10	0	0	0	0	499	243	
11	0	0	0	0	495	243	
12	0	0	0	0	490	243	
13	0	0	0	0	486	243	
14	0	0	0	0	481	243	
15	0	0	0	0	476	243	
0	0	0	0	0	473	243	
1	0	0	0	0	469	243	
2	0	0	0	0	466	243	
3	0	0	0	0	464	243	
4	0	0	0	0	464	243	
5	0	0	0	0	465	243	
6	0	0	0	0	466	243	
7	0	0	0	0	467	243	
8	0	0	0	0	468	243	
9	0	0	0	0	467	243	
10	0	0	0	0	465	243	
11	0	0	0	0	464	243	
12	0	0	0	0	461	243	
13	0	0	0	0	458	243	
14	0	0	0	0	454	243	
15	0	0	0	0	451	243	
0	0	0	0	0	448	243	
1	0	0	0	0	445	243	
2	0	0	0	0	442	243	
3	0	0	0	0	440	243	
4	0	0	0	0	440	243	
5	0	0	0	0	440	243	
6	0	0	0	0	440	243	
7	0	0	0	0	441	243	
8	0	0	0	0	441	243	
9	0	0	0	0	442	243	
10	0	0	0	0	443	243	
11	0	0	0	0	444	243	
12	0	0	0	0	445	243	
13	0	0	0	0	446	243	
14	0	0	0	0	447	243	
15	0	0	0	0	448	243	
0	0	0	0	0	448	243	
1	0	0	0	0	448	243	
2	0	0	0	0	448	243	
3	0	0	0	0	447	243	
4	0	0	0	0	446	243	
5	0	0	0	0	447	243	
6	0	0	0	0	447	243	
7	0	0	0	0	449	243	
8	0	0	0	0	450	243	
9	0	0	0	0	453	243	
10	0	0	0	0	455	243	
11	0	0	0	0	456	243	
12	0	0	0	0	455	243	
13	0	0	0	0	455	243	
14	0	0	0	0	452	243	
15	0	0	0	0	451	243	
0	0	0	0	0	449	243	
1	0	0	0	0	448	243	
2	0	0	0	0	448	243	
3	0	0	0	0	447	243	
4	0	0	0	0	446	243	
5	0	0	0	0	448	243	
6	0	0	0	0	448	243	
7	0	0	0	0	449	243	
8	0	0	0	0	450	243	
9	0	0	0	0	451	243	
10	0	0	0	0	454	243	
11	0	0	0	0	456	243	
12	0	0	0	0	457	243	
13	0	0	0	0	457	243	
14	0	0	0	0	456	243	
15	0	0	0	0	455	243	
0	0	0	0	0	453	243	
1	0	0	0	0	451	243	
2	0	0	0	0	450	243	
3	0	0	0	0	449	243	
4	0	0	0	0	448	243	
5	0	0	0	0	447	243	
6	0	0	0	0	447	243	
7	0	0	0	0	448	243	
8	0	0	0	0	449	243	
9	0	0	0	0	450	243	
10	0	0	0	0	452	243	
11	0	0	0	0	454	243	
12	0	0	0	0	455	243	
13	0	0	0	0	457	243	
14	0	0	0	0	458	243	
15	0	0	0	0	457	243	
0	0	0	0	0	455	243	
1	0	0	0	0	452	243	
2	0	0	0	0	451	243	
3	0	0	0	0	451	243	
4	0	0	0	0	451	243	
5	0	0	0	0	452	243	
6	0	0	0	0	452	243	
7	0	0	0	0	454	243	
8	0	0	0	0	456	243	
9	0	0	0	0	459	243	
10	0	0	0	0	462	243	
11	0	0	0	0	465	243	
12	0	0	0	0	467	243	
13	0	0	0	0	470	243	
14	0	0	0	0	472	243	
15	0	0	0	0	473	243	
0	0	0	0	0	473	243	
1	0	0	0	0	473	243	
2	0	0	0	0	472	243	
3	0	0	0	0	471	243	
4	0	0	0	0	470	243	
5	0	0	0	0	470	243	
6	0	0	0	0	469	243	
7	0	0	0	0	468	243	
8	0	0	0	0	468	243	
9	0	0	0	0	467	243	
10	0	0	0	0	467	243	
11	0	0	0	0	468	243	
12	0	0	0	0	469	243	
13	0	0	0	0	469	243	
14	0	0	0	0	470	243	
15	0	0	0	0	470	243	
0	0	0	0	0	469	243	
1	0	0	0	0	468	243	
2	0	0	0	0	468	243	
3	0	0	0	0	467	243	
4	0	0	0	0	467	243	
5	0	0	0	0	467	243	
6	0	0	0	0	469	243	
7	0	0	0	0	469	243	
8	0	0	0	0	471	243	
9	0	0	0	0	472	243	
10	0	0	0	0	475	243	
11	0	0	0	0	477	243	
12	0	0	0	0	478	243	
13	0	0	0	0	479	243	
14	0	0	0	0	480	243	
15	0	0	0	0	479	243	
0	0	0	0	0	479	243	
1	0	0	0	0	479	243	
2	0	0	0	0	478	243	
3	0	0	0	0	476	243	
4	0	0	0	0	474	243	
5	0	0	0	0	473	243	
6	0	0	0	0	472	243	
7	0	0	0	0	472	243	
8	0	0	0	0	472	243	
9	0	0	0	0	475	243	
10	0	0	0	0	477	243	
11	0	0	0	0	480	243	
12	0	0	0	0	482	243	
13	0	0	0	0	483	243	
14	0	0	0	0	485	243	
15	0	0	0	0	487	243	
0	0	0	0	0	487	243	
1	0	0	0	0	489	243	
2	0	0	0	0	490	243	
3	0	0	0	0	490	243	
4	0	0	0	0	488	243	
5	0	0	0	0	487	243	
6	0	0	0	0	487	243	
7	0	0	0	0	487	243	
8	0	0	0	0	488	243	
9	0	0	0	0	489	243	
10	0	0	0	0	491	243	
11	0	0	0	0	493	243	
12	0	0	0	0	496	243	
13	0	0	0	0	499	243	
14	0	0	0	0	502	243	
15	0	0	0	0	504	243	
0	0	0	0	0	506	243	
1	0	0	0	0	508	243	
2	0	0	0	0	509	243	
3	0	0	0	0	509	243	
4	0	0	0	0	507	243	
5	0	0	0	0	506	243	
6	0	0	0	0	505	243	
7	0	0	0	0	504	243	
8	0	0	0	0	504	243	
9	0	0	0	0	504	243	
10	0	0	0	0	506	243	
11	0	0	0	0	507	243	
12	0	0	0	0	509	243	
13	0	0	0	0	513	243	
14	0	0	0	0	516	243	
15	0	0	0	0	521	243	
0	0	0	0	0	523	243	
1	0	0	0	0	526	243	
2	0	0	0	0	527	243	
3	0	0	0	0	527	243	
4	0	0	0	0	527	243	
5	0	0	0	0	525	243	
6	0	0	0	0	524	243	
7	0	0	0	0	523	243	
8	0	0	0	0	522	243	
9	0	0	0	0	522	243	
10	0	0	0	0	522	243	
11	0	0	0	0	523	243	
12	0	0	0	0	524	243	
13	0	0	0	0	527	243	
14	0	0	0	0	531	243	
15	0	0	0	0	533	243	
0	0	0	0	0	536	243	
1	0	0	0	0	536	243	
2	0	0	0	0	537	243	
3	0	0	0	0	536	243	
4	0	0	0	0	536	243	
5	0	0	0	0	536	243	
6	0	0	0	0	535	243	
7	0	0	0	0	533	243	
8	0	0	0	0	531	243	
9	0	0	0	0	529	243	
10	0	0	0	0	528	243	
11	0	0	0	0	527	243	
12	0	0	0	0	527	243	
13	0	0	0	0	528	243	
14	0	0	0	0	529	243	
15	0	0	0	0	532	243	
0	0	0	0	0	534	243	
1	0	0	0	0	536	243	
2	0	0	0	0	537	243	
3	0	0	0	0	538	243	
4	0	0	0	0	539	243	
5	0	0	0	0	539	243	
6	0	0	0	0	539	242	
7	0	0	0	0	538	243	
8	0	0	0	0	537	243	
9	0	0	0	0	536	243	
10	0	0	0	0	534	243	
11	0	0	0	0	531	243	
12	0	0	0	0	531	243	
13	0	0	0	0	531	243	
14	0	0	0	0	531	243	
15	0	0	0	0	531	243	
0	0	0	0	0	532	243	
1	0	0	0	0	533	243	
2	0	0	0	0	533	243	
3	0	0	0	0	532	243	
4	0	0	0	0	531	243	
5	0	0	0	0	529	243	
6	0	0	0	0	527	243	
7	0	0	0	0	524	243	
8	0	0	0	0	522	243	
9	0	0	0	0	519	243	
10	0	0	0	0	517	243	
11	0	0	0	0	516	243	
12	0	0	0	0	516	243	
13	0	0	0	0	517	243	
14	0	0	0	0	517	243	
15	0	0	0	0	518	243	
0	0	0	0	0	520	243	
1	0	0	0	0	523	243	
2	0	0	0	0	524	243	
3	0	0	0	0	525	243	
4	0	0	0	0	525	243	
5	0	0	0	0	525	243	
6	0	0	0	0	524	243	
7	0	0	0	0	524	243	
8	0	0	0	0	523	243	
9	0	0	0	0	521	243	
10	0	0	0	0	519	243	
11	0	0	0	0	519	243	
12	0	0	0	0	518	243	
13	0	0	0	0	518	243	
14	0	0	0	0	519	243	
15	0	0	0	0	521	243	
0	0	0	0	0	522	243	
1	0	0	0	0	526	243	
2	0	0	0	0	529	243	
3	0	0	0	0	532	243	
4	0	0	0	0	535	243	
5	0	0	0	0	536	242	
6	0	0	0	0	536	243	
7	0	0	0	0	535	243	
8	0	0	0	0	534	243	
9	0	0	0	0	532	243	
10	0	0	0	0	530	243	
11	0	0	0	0	528	243	
12	0	0	0	0	528	243	
13	0	0	0	0	528	243	
14	0	0	0	0	530	243	
15	0	0	0	0	532	243	
0	0	0	0	0	533	243	
1	0	0	0	0	535	243	
2	0	0	0	0	536	243	
3	0	0	0	0	539	243	
4	0	0	0	0	540	243	
5	0	0	0	0	541	243	
6	0	0	0	0	541	243	
7	0	0	0	0	540	243	
8	0	0	0	0	539	243	
9	0	0	0	0	537	243	
10	0	0	0	0	535	243	
11	0	0	0	0	533	243	
12	0	0	0	0	531	243	
13	0	0	0	0	529	243	
14	0	0	0	0	527	243	
15	0	0	0	0	527	243	
0	0	0	0	0	529	243	
1	0	0	0	0	531	243	
2	0	0	0	0	530	243	
3	0	0	0	0	529	243	
4	0	0	0	0	529	243	
5	0	0	0	0	528	243	
6	0	0	0	0	527	243	
7	0	0	0	0	528	243	
8	0	0	0	0	527	243	
9	0	0	0	0	524	243	
10	0	0	0	0	521	243	
11	0	0	0	0	517	243	
12	0	0	0	0	514	243	
13	0	0	0	0	512	243	
14	0	0	0	0	510	243	
15	0	0	0	0	508	243	
0	0	0	0	0	506	243	
1	0	0	0	0	506	243	
2	0	0	0	0	507	243	
3	0	0	0	0	508	243	
4	0	0	0	0	510	243	
5	0	0	0	0	511	243	
6	0	0	0	0	511	243	
7	0	0	0	0	510	243	
8	0	0	0	0	508	243	
9	0	0	0	0	506	243	
10	0	0	0	0	504	243	
11	0	0	0	0	500	243	
12	0	0	0	0	498	243	
13	0	0	0	0	496	243	
14	0	0	0	0	494	243	
15	0	0	0	0	492	243	
0	0	0	0	0	490	243	
1	0	0	0	0	490	243	
2	0	0	0	0	491	243	
3	0	0	0	0	493	243	
4	0	0	0	0	494	243	
5	0	0	0	0	495	243	
6	0	0	0	0	496	243	
7	0	0	0	0	496	243	
8	0	0	0	0	496	243	
9	0	0	0	0	496	243	
10	0	0	0	0	496	243	
11	0	0	0	0	496	243	
12	0	0	0	0	496	243	
13	0	0	0	0	496	243	
14	0	0	0	0	496	243	
15	0	0	0	0	495	243	
0	0	0	0	0	495	243	
1	0	0	0	0	496	243	
2	0	0	0	0	497	243	
3	0	0	0	0	499	243	
4	0	0	0	0	501	243	
5	0	0	0	0	503	243	
6	0	0	0	0	505	243	
7	0	0	0	0	506	243	
8	0	0	0	0	506	243	
9	0	0	0	0	505	243	
10	0	0	0	0	504	243	
11	0	0	0	0	503	243	
12	0	0	0	0	499	243	
13	0	0	0	0	496	243	
14	0	0	0	0	493	243	
15	0	0	0	0	491	243	
0	0	0	0	0	489	243	
1	0	0	0	0	488	243	
2	0	0	0	0	487	243	
