# OpenSignals Text File Format. Version 1
# {"98:D3:B1:FD:3D:90": {"position": 0, "device": "bitalino_rev", "device name": "98:D3:B1:FD:3D:90", "device connection": "BTH98:D3:B1:FD:3D:90", "sampling rate": 1000, "resolution": [4, 1, 1, 1, 1, 10, 10], "firmware version": 1281, "comments": "", "keywords": "", "mode": 0, "sync interval": 2, "date": "2022-3-22", "time": "22:15:22.613", "channels": [2, 3], "sensor": ["ECGBIT", "EDABITREV"], "label": ["A2", "A3"], "column": ["nSeq", "I1", "I2", "O1", "O2", "A2", "A3"], "special": [{}, {}], "digital IO": [0, 0, 1, 1]}}
# EndOfHeader
0	0	0	0	0	528	173	
1	0	0	0	0	529	173	
2	0	0	0	0	529	174	
3	0	0	0	0	529	173	
4	0	0	0	0	528	174	
5	0	0	0	0	528	173	
6	0	0	0	0	527	174	
7	0	0	0	0	527	173	
8	0	0	0	0	526	174	
9	0	0	0	0	526	173	
10	0	0	0	0	525	174	
11	0	0	0	0	526	173	
12	0	0	0	0	527	174	
13	0	0	0	0	527	173	
14	0	0	0	0	528	174	
15	0	0	0	0	529	174	
0	0	0	0	0	529	173	
1	0	0	0	0	529	174	
2	0	0	0	0	529	173	
3	0	0	0	0	528	174	
4	0	0	0	0	526	173	
5	0	0	0	0	524	174	
6	0	0	0	0	523	174	
7	0	0	0	0	522	173	
8	0	0	0	0	522	174	
9	0	0	0	0	521	173	
10	0	0	0	0	520	174	
11	0	0	0	0	519	173	
12	0	0	0	0	518	174	
13	0	0	0	0	518	173	
14	0	0	0	0	516	174	
15	0	0	0	0	516	173	
0	0	0	0	0	517	174	
1	0	0	0	0	517	173	
2	0	0	0	0	518	174	
3	0	0	0	0	520	174	
4	0	0	0	0	523	173	
5	0	0	0	0	523	174	
6	0	0	0	0	522	173	
7	0	0	0	0	520	174	
8	0	0	0	0	518	173	
9	0	0	0	0	518	174	
10	0	0	0	0	518	174	
11	0	0	0	0	518	173	
12	0	0	0	0	519	174	
13	0	0	0	0	519	173	
14	0	0	0	0	519	174	
15	0	0	0	0	519	174	
0	0	0	0	0	519	173	
1	0	0	0	0	518	174	
2	0	0	0	0	516	174	
3	0	0	0	0	514	173	
4	0	0	0	0	514	174	
5	0	0	0	0	512	173	
6	0	0	0	0	512	174	
7	0	0	0	0	512	173	
8	0	0	0	0	512	174	
9	0	0	0	0	511	174	
10	0	0	0	0	511	173	
11	0	0	0	0	511	174	
12	0	0	0	0	512	173	
13	0	0	0	0	512	174	
14	0	0	0	0	512	173	
15	0	0	0	0	513	174	
0	0	0	0	0	514	173	
1	0	0	0	0	513	174	
2	0	0	0	0	514	173	
3	0	0	0	0	513	174	
4	0	0	0	0	514	173	
5	0	0	0	0	514	174	
6	0	0	0	0	514	174	
7	0	0	0	0	514	174	
8	0	0	0	0	514	174	
9	0	0	0	0	513	173	
10	0	0	0	0	513	174	
11	0	0	0	0	512	173	
12	0	0	0	0	511	174	
13	0	0	0	0	510	173	
14	0	0	0	0	508	174	
15	0	0	0	0	508	173	
0	0	0	0	0	507	174	
1	0	0	0	0	505	173	
2	0	0	0	0	504	174	
3	0	0	0	0	503	173	
4	0	0	0	0	502	174	
5	0	0	0	0	502	173	
6	0	0	0	0	502	174	
7	0	0	0	0	502	174	
8	0	0	0	0	502	173	
9	0	0	0	0	503	174	
10	0	0	0	0	504	173	
11	0	0	0	0	505	174	
12	0	0	0	0	507	173	
13	0	0	0	0	510	174	
14	0	0	0	0	512	174	
15	0	0	0	0	514	173	
0	0	0	0	0	515	174	
1	0	0	0	0	515	173	
2	0	0	0	0	514	174	
3	0	0	0	0	513	174	
4	0	0	0	0	512	173	
5	0	0	0	0	511	174	
6	0	0	0	0	510	173	
7	0	0	0	0	511	174	
8	0	0	0	0	511	174	
9	0	0	0	0	512	174	
10	0	0	0	0	512	174	
11	0	0	0	0	513	173	
12	0	0	0	0	514	174	
13	0	0	0	0	515	173	
14	0	0	0	0	514	174	
15	0	0	0	0	513	173	
0	0	0	0	0	513	174	
1	0	0	0	0	512	174	
2	0	0	0	0	512	173	
3	0	0	0	0	512	174	
4	0	0	0	0	511	173	
5	0	0	0	0	510	174	
6	0	0	0	0	510	173	
7	0	0	0	0	509	174	
8	0	0	0	0	508	174	
9	0	0	0	0	508	173	
10	0	0	0	0	509	174	
11	0	0	0	0	509	173	
12	0	0	0	0	510	174	
13	0	0	0	0	509	173	
14	0	0	0	0	509	174	
15	0	0	0	0	510	174	
0	0	0	0	0	510	173	
1	0	0	0	0	508	174	
2	0	0	0	0	508	173	
3	0	0	0	0	508	174	
4	0	0	0	0	506	174	
5	0	0	0	0	504	174	
6	0	0	0	0	503	174	
7	0	0	0	0	500	173	
8	0	0	0	0	499	174	
9	0	0	0	0	498	173	
10	0	0	0	0	497	174	
11	0	0	0	0	498	174	
12	0	0	0	0	500	174	
13	0	0	0	0	502	174	
14	0	0	0	0	504	173	
15	0	0	0	0	504	174	
0	0	0	0	0	505	173	
1	0	0	0	0	504	174	
2	0	0	0	0	504	173	
3	0	0	0	0	504	174	
4	0	0	0	0	505	173	
5	0	0	0	0	505	174	
6	0	0	0	0	506	174	
7	0	0	0	0	506	174	
8	0	0	0	0	505	174	
9	0	0	0	0	503	173	
10	0	0	0	0	502	174	
11	0	0	0	0	500	173	
12	0	0	0	0	499	174	
13	0	0	0	0	499	173	
14	0	0	0	0	497	174	
15	0	0	0	0	498	174	
0	0	0	0	0	496	173	
1	0	0	0	0	495	174	
2	0	0	0	0	495	173	
3	0	0	0	0	497	174	
4	0	0	0	0	500	174	
5	0	0	0	0	502	174	
6	0	0	0	0	505	174	
7	0	0	0	0	508	173	
8	0	0	0	0	508	174	
9	0	0	0	0	508	173	
10	0	0	0	0	507	174	
11	0	0	0	0	506	174	
12	0	0	0	0	505	174	
13	0	0	0	0	504	174	
14	0	0	0	0	505	173	
15	0	0	0	0	505	174	
0	0	0	0	0	505	173	
1	0	0	0	0	505	174	
2	0	0	0	0	506	173	
3	0	0	0	0	507	174	
4	0	0	0	0	507	173	
5	0	0	0	0	507	174	
6	0	0	0	0	507	173	
7	0	0	0	0	506	174	
8	0	0	0	0	506	173	
9	0	0	0	0	507	174	
10	0	0	0	0	507	174	
11	0	0	0	0	507	174	
12	0	0	0	0	508	174	
13	0	0	0	0	508	174	
14	0	0	0	0	508	174	
15	0	0	0	0	507	173	
0	0	0	0	0	506	174	
1	0	0	0	0	506	173	
2	0	0	0	0	508	174	
3	0	0	0	0	510	173	
4	0	0	0	0	512	174	
5	0	0	0	0	513	173	
6	0	0	0	0	514	174	
7	0	0	0	0	514	174	
8	0	0	0	0	514	174	
9	0	0	0	0	513	174	
10	0	0	0	0	511	173	
11	0	0	0	0	510	174	
12	0	0	0	0	508	173	
13	0	0	0	0	507	174	
14	0	0	0	0	508	173	
15	0	0	0	0	509	174	
0	0	0	0	0	510	173	
1	0	0	0	0	511	174	
2	0	0	0	0	511	174	
3	0	0	0	0	511	174	
4	0	0	0	0	511	174	
5	0	0	0	0	509	173	
6	0	0	0	0	507	174	
7	0	0	0	0	505	173	
8	0	0	0	0	503	174	
9	0	0	0	0	503	173	
10	0	0	0	0	502	174	
11	0	0	0	0	503	174	
12	0	0	0	0	505	173	
13	0	0	0	0	511	174	
14	0	0	0	0	516	173	
15	0	0	0	0	518	174	
0	0	0	0	0	518	173	
1	0	0	0	0	519	174	
2	0	0	0	0	516	173	
3	0	0	0	0	512	174	
4	0	0	0	0	508	174	
5	0	0	0	0	506	173	
6	0	0	0	0	502	174	
7	0	0	0	0	498	173	
8	0	0	0	0	497	174	
9	0	0	0	0	497	174	
10	0	0	0	0	497	174	
11	0	0	0	0	497	174	
12	0	0	0	0	497	174	
13	0	0	0	0	498	174	
14	0	0	0	0	499	174	
15	0	0	0	0	499	174	
0	0	0	0	0	499	174	
1	0	0	0	0	498	174	
2	0	0	0	0	496	174	
3	0	0	0	0	494	174	
4	0	0	0	0	491	173	
5	0	0	0	0	489	174	
6	0	0	0	0	487	173	
7	0	0	0	0	484	174	
8	0	0	0	0	482	174	
9	0	0	0	0	481	174	
10	0	0	0	0	481	174	
11	0	0	0	0	480	174	
12	0	0	0	0	480	174	
13	0	0	0	0	480	174	
14	0	0	0	0	480	174	
15	0	0	0	0	480	174	
0	0	0	0	0	481	174	
1	0	0	0	0	482	173	
2	0	0	0	0	481	174	
3	0	0	0	0	482	173	
4	0	0	0	0	483	174	
5	0	0	0	0	482	174	
6	0	0	0	0	483	174	
7	0	0	0	0	483	174	
8	0	0	0	0	482	174	
9	0	0	0	0	481	174	
10	0	0	0	0	481	173	
11	0	0	0	0	480	174	
12	0	0	0	0	480	173	
13	0	0	0	0	479	174	
14	0	0	0	0	478	174	
15	0	0	0	0	478	174	
0	0	0	0	0	477	174	
1	0	0	0	0	477	173	
2	0	0	0	0	476	174	
3	0	0	0	0	476	174	
4	0	0	0	0	476	174	
5	0	0	0	0	476	174	
6	0	0	0	0	475	174	
7	0	0	0	0	473	174	
8	0	0	0	0	471	173	
9	0	0	0	0	470	174	
10	0	0	0	0	468	174	
11	0	0	0	0	468	174	
12	0	0	0	0	470	174	
13	0	0	0	0	471	174	
14	0	0	0	0	471	174	
15	0	0	0	0	471	173	
0	0	0	0	0	470	174	
1	0	0	0	0	471	173	
2	0	0	0	0	472	174	
3	0	0	0	0	472	174	
4	0	0	0	0	472	174	
5	0	0	0	0	472	174	
6	0	0	0	0	470	175	
7	0	0	0	0	470	174	
8	0	0	0	0	469	174	
9	0	0	0	0	467	174	
10	0	0	0	0	466	173	
11	0	0	0	0	465	174	
12	0	0	0	0	464	174	
13	0	0	0	0	464	174	
14	0	0	0	0	464	174	
15	0	0	0	0	464	174	
0	0	0	0	0	465	174	
1	0	0	0	0	466	174	
2	0	0	0	0	467	174	
3	0	0	0	0	470	174	
4	0	0	0	0	473	174	
5	0	0	0	0	477	174	
6	0	0	0	0	482	174	
7	0	0	0	0	488	174	
8	0	0	0	0	496	174	
9	0	0	0	0	505	174	
10	0	0	0	0	515	174	
11	0	0	0	0	526	174	
12	0	0	0	0	537	174	
13	0	0	0	0	549	173	
14	0	0	0	0	560	174	
15	0	0	0	0	570	173	
0	0	0	0	0	577	174	
1	0	0	0	0	583	173	
2	0	0	0	0	588	174	
3	0	0	0	0	591	173	
4	0	0	0	0	592	174	
5	0	0	0	0	593	173	
6	0	0	0	0	595	174	
7	0	0	0	0	596	173	
8	0	0	0	0	596	174	
9	0	0	0	0	598	173	
10	0	0	0	0	597	174	
11	0	0	0	0	596	173	
12	0	0	0	0	594	174	
13	0	0	0	0	591	173	
14	0	0	0	0	585	174	
15	0	0	0	0	579	173	
0	0	0	0	0	572	174	
1	0	0	0	0	566	174	
2	0	0	0	0	560	173	
3	0	0	0	0	555	174	
4	0	0	0	0	550	173	
5	0	0	0	0	542	174	
6	0	0	0	0	535	173	
7	0	0	0	0	525	174	
8	0	0	0	0	515	173	
9	0	0	0	0	504	174	
10	0	0	0	0	492	174	
11	0	0	0	0	481	174	
12	0	0	0	0	470	174	
13	0	0	0	0	460	174	
14	0	0	0	0	453	174	
15	0	0	0	0	448	174	
0	0	0	0	0	443	174	
1	0	0	0	0	439	174	
2	0	0	0	0	438	174	
3	0	0	0	0	438	174	
4	0	0	0	0	436	174	
5	0	0	0	0	435	174	
6	0	0	0	0	434	174	
7	0	0	0	0	434	174	
8	0	0	0	0	435	174	
9	0	0	0	0	437	174	
10	0	0	0	0	438	174	
11	0	0	0	0	440	174	
12	0	0	0	0	441	174	
13	0	0	0	0	441	174	
14	0	0	0	0	443	175	
15	0	0	0	0	444	174	
0	0	0	0	0	446	174	
1	0	0	0	0	447	174	
2	0	0	0	0	448	174	
3	0	0	0	0	448	174	
4	0	0	0	0	449	174	
5	0	0	0	0	450	174	
6	0	0	0	0	453	174	
7	0	0	0	0	455	174	
8	0	0	0	0	455	174	
9	0	0	0	0	457	174	
10	0	0	0	0	457	174	
11	0	0	0	0	456	174	
12	0	0	0	0	454	174	
13	0	0	0	0	453	174	
14	0	0	0	0	452	174	
15	0	0	0	0	452	174	
0	0	0	0	0	452	174	
1	0	0	0	0	453	174	
2	0	0	0	0	455	174	
3	0	0	0	0	455	174	
4	0	0	0	0	455	174	
5	0	0	0	0	456	174	
6	0	0	0	0	456	174	
7	0	0	0	0	457	174	
8	0	0	0	0	458	174	
9	0	0	0	0	459	174	
10	0	0	0	0	460	174	
11	0	0	0	0	460	174	
12	0	0	0	0	462	174	
13	0	0	0	0	462	174	
14	0	0	0	0	463	174	
15	0	0	0	0	463	174	
0	0	0	0	0	465	174	
1	0	0	0	0	467	174	
2	0	0	0	0	467	173	
3	0	0	0	0	467	174	
4	0	0	0	0	469	174	
5	0	0	0	0	470	174	
6	0	0	0	0	471	173	
7	0	0	0	0	471	174	
8	0	0	0	0	472	174	
9	0	0	0	0	473	174	
10	0	0	0	0	473	174	
11	0	0	0	0	474	174	
12	0	0	0	0	474	174	
13	0	0	0	0	474	174	
14	0	0	0	0	474	174	
15	0	0	0	0	475	174	
0	0	0	0	0	476	174	
1	0	0	0	0	476	173	
2	0	0	0	0	478	174	
3	0	0	0	0	479	174	
4	0	0	0	0	480	174	
5	0	0	0	0	480	174	
6	0	0	0	0	481	174	
7	0	0	0	0	481	174	
8	0	0	0	0	482	174	
9	0	0	0	0	483	174	
10	0	0	0	0	484	173	
11	0	0	0	0	484	174	
12	0	0	0	0	485	173	
13	0	0	0	0	487	174	
14	0	0	0	0	489	174	
15	0	0	0	0	492	174	
0	0	0	0	0	494	174	
1	0	0	0	0	495	174	
2	0	0	0	0	496	174	
3	0	0	0	0	497	173	
4	0	0	0	0	497	174	
5	0	0	0	0	496	173	
6	0	0	0	0	496	174	
7	0	0	0	0	495	174	
8	0	0	0	0	495	174	
9	0	0	0	0	494	174	
10	0	0	0	0	494	174	
11	0	0	0	0	492	174	
12	0	0	0	0	492	174	
13	0	0	0	0	491	174	
14	0	0	0	0	491	173	
15	0	0	0	0	491	174	
0	0	0	0	0	489	173	
1	0	0	0	0	489	174	
2	0	0	0	0	488	174	
3	0	0	0	0	488	174	
4	0	0	0	0	488	174	
5	0	0	0	0	488	173	
6	0	0	0	0	488	174	
7	0	0	0	0	488	173	
8	0	0	0	0	488	174	
9	0	0	0	0	488	173	
10	0	0	0	0	488	174	
11	0	0	0	0	489	174	
12	0	0	0	0	489	174	
13	0	0	0	0	491	174	
14	0	0	0	0	493	174	
15	0	0	0	0	496	174	
0	0	0	0	0	499	174	
1	0	0	0	0	501	174	
2	0	0	0	0	503	173	
3	0	0	0	0	504	174	
4	0	0	0	0	505	173	
5	0	0	0	0	505	174	
6	0	0	0	0	506	173	
7	0	0	0	0	505	174	
8	0	0	0	0	505	174	
9	0	0	0	0	505	174	
10	0	0	0	0	505	174	
11	0	0	0	0	507	173	
12	0	0	0	0	507	174	
13	0	0	0	0	507	173	
14	0	0	0	0	506	174	
15	0	0	0	0	504	173	
0	0	0	0	0	503	174	
1	0	0	0	0	503	173	
2	0	0	0	0	502	174	
3	0	0	0	0	503	174	
4	0	0	0	0	504	174	
5	0	0	0	0	504	174	
6	0	0	0	0	505	173	
7	0	0	0	0	508	174	
8	0	0	0	0	508	173	
9	0	0	0	0	509	174	
10	0	0	0	0	511	174	
11	0	0	0	0	510	174	
12	0	0	0	0	510	173	
13	0	0	0	0	510	174	
14	0	0	0	0	512	173	
15	0	0	0	0	516	174	
0	0	0	0	0	519	173	
1	0	0	0	0	521	174	
2	0	0	0	0	522	173	
3	0	0	0	0	520	174	
4	0	0	0	0	518	174	
5	0	0	0	0	513	174	
6	0	0	0	0	509	174	
7	0	0	0	0	505	174	
8	0	0	0	0	502	174	
9	0	0	0	0	499	174	
10	0	0	0	0	498	174	
11	0	0	0	0	497	173	
12	0	0	0	0	498	174	
13	0	0	0	0	499	173	
14	0	0	0	0	500	174	
15	0	0	0	0	502	173	
0	0	0	0	0	504	174	
1	0	0	0	0	507	173	
2	0	0	0	0	508	174	
3	0	0	0	0	511	173	
4	0	0	0	0	512	174	
5	0	0	0	0	513	173	
6	0	0	0	0	513	174	
7	0	0	0	0	513	174	
8	0	0	0	0	511	174	
9	0	0	0	0	511	174	
10	0	0	0	0	510	174	
11	0	0	0	0	510	173	
12	0	0	0	0	509	174	
13	0	0	0	0	509	174	
14	0	0	0	0	510	174	
15	0	0	0	0	512	173	
0	0	0	0	0	513	174	
1	0	0	0	0	516	173	
2	0	0	0	0	519	174	
3	0	0	0	0	519	174	
4	0	0	0	0	520	174	
5	0	0	0	0	520	174	
6	0	0	0	0	520	173	
7	0	0	0	0	519	174	
8	0	0	0	0	519	173	
9	0	0	0	0	519	174	
10	0	0	0	0	520	173	
11	0	0	0	0	523	174	
12	0	0	0	0	523	174	
13	0	0	0	0	522	174	
14	0	0	0	0	522	174	
15	0	0	0	0	523	173	
0	0	0	0	0	524	174	
1	0	0	0	0	524	173	
2	0	0	0	0	524	174	
3	0	0	0	0	526	173	
4	0	0	0	0	527	174	
5	0	0	0	0	527	173	
6	0	0	0	0	527	174	
7	0	0	0	0	527	173	
8	0	0	0	0	526	174	
9	0	0	0	0	524	173	
10	0	0	0	0	525	174	
11	0	0	0	0	526	174	
12	0	0	0	0	527	173	
13	0	0	0	0	527	174	
14	0	0	0	0	527	174	
15	0	0	0	0	528	174	
0	0	0	0	0	529	173	
1	0	0	0	0	530	174	
2	0	0	0	0	530	173	
3	0	0	0	0	528	174	
4	0	0	0	0	526	173	
5	0	0	0	0	525	174	
6	0	0	0	0	526	174	
7	0	0	0	0	528	174	
8	0	0	0	0	530	174	
9	0	0	0	0	531	174	
10	0	0	0	0	532	174	
11	0	0	0	0	535	173	
12	0	0	0	0	535	174	
13	0	0	0	0	536	173	
14	0	0	0	0	536	174	
15	0	0	0	0	537	173	
0	0	0	0	0	536	174	
1	0	0	0	0	537	173	
2	0	0	0	0	537	174	
3	0	0	0	0	537	174	
4	0	0	0	0	537	174	
5	0	0	0	0	536	174	
6	0	0	0	0	536	173	
7	0	0	0	0	535	174	
8	0	0	0	0	536	173	
9	0	0	0	0	535	174	
10	0	0	0	0	536	173	
11	0	0	0	0	537	174	
12	0	0	0	0	537	173	
13	0	0	0	0	536	174	
14	0	0	0	0	535	174	
15	0	0	0	0	536	174	
0	0	0	0	0	536	174	
1	0	0	0	0	536	174	
2	0	0	0	0	536	174	
3	0	0	0	0	536	173	
4	0	0	0	0	536	174	
5	0	0	0	0	536	173	
6	0	0	0	0	535	174	
7	0	0	0	0	533	174	
8	0	0	0	0	531	174	
9	0	0	0	0	531	174	
10	0	0	0	0	531	173	
11	0	0	0	0	531	174	
12	0	0	0	0	531	174	
13	0	0	0	0	529	174	
14	0	0	0	0	528	174	
15	0	0	0	0	526	174	
0	0	0	0	0	525	173	
1	0	0	0	0	523	174	
2	0	0	0	0	521	173	
3	0	0	0	0	518	174	
4	0	0	0	0	515	174	
5	0	0	0	0	512	174	
6	0	0	0	0	510	174	
7	0	0	0	0	507	174	
8	0	0	0	0	505	174	
9	0	0	0	0	505	174	
10	0	0	0	0	506	174	
11	0	0	0	0	507	175	
12	0	0	0	0	507	174	
13	0	0	0	0	506	174	
14	0	0	0	0	506	174	
15	0	0	0	0	505	173	
0	0	0	0	0	505	174	
1	0	0	0	0	503	174	
2	0	0	0	0	502	175	
3	0	0	0	0	499	174	
4	0	0	0	0	496	173	
5	0	0	0	0	495	174	
6	0	0	0	0	493	174	
7	0	0	0	0	490	174	
8	0	0	0	0	488	174	
9	0	0	0	0	487	174	
10	0	0	0	0	487	174	
11	0	0	0	0	488	174	
12	0	0	0	0	487	174	
13	0	0	0	0	487	174	
14	0	0	0	0	487	174	
15	0	0	0	0	487	174	
0	0	0	0	0	485	174	
1	0	0	0	0	484	174	
2	0	0	0	0	483	174	
3	0	0	0	0	482	174	
4	0	0	0	0	483	174	
5	0	0	0	0	482	174	
6	0	0	0	0	481	174	
7	0	0	0	0	480	174	
8	0	0	0	0	480	175	
9	0	0	0	0	480	174	
10	0	0	0	0	481	174	
11	0	0	0	0	483	174	
12	0	0	0	0	482	174	
13	0	0	0	0	482	174	
14	0	0	0	0	481	174	
15	0	0	0	0	480	175	
0	0	0	0	0	478	174	
1	0	0	0	0	477	175	
2	0	0	0	0	475	174	
3	0	0	0	0	475	174	
4	0	0	0	0	475	174	
5	0	0	0	0	475	174	
6	0	0	0	0	475	174	
7	0	0	0	0	475	174	
8	0	0	0	0	476	174	
9	0	0	0	0	476	174	
10	0	0	0	0	476	175	
11	0	0	0	0	476	175	
12	0	0	0	0	475	174	
13	0	0	0	0	476	175	
14	0	0	0	0	476	174	
15	0	0	0	0	477	174	
0	0	0	0	0	477	174	
1	0	0	0	0	477	174	
2	0	0	0	0	477	174	
3	0	0	0	0	478	175	
4	0	0	0	0	478	174	
5	0	0	0	0	479	175	
6	0	0	0	0	479	174	
7	0	0	0	0	480	175	
8	0	0	0	0	480	174	
9	0	0	0	0	481	174	
10	0	0	0	0	482	174	
11	0	0	0	0	483	174	
12	0	0	0	0	484	174	
13	0	0	0	0	484	174	
14	0	0	0	0	485	174	
15	0	0	0	0	485	174	
0	0	0	0	0	486	175	
1	0	0	0	0	487	174	
2	0	0	0	0	488	175	
3	0	0	0	0	488	174	
4	0	0	0	0	489	175	
5	0	0	0	0	489	174	
6	0	0	0	0	489	174	
7	0	0	0	0	490	174	
8	0	0	0	0	492	174	
9	0	0	0	0	493	174	
10	0	0	0	0	495	174	
11	0	0	0	0	496	174	
12	0	0	0	0	497	174	
13	0	0	0	0	498	174	
14	0	0	0	0	497	174	
15	0	0	0	0	496	174	
0	0	0	0	0	497	174	
1	0	0	0	0	498	174	
2	0	0	0	0	500	174	
3	0	0	0	0	501	175	
4	0	0	0	0	503	174	
5	0	0	0	0	503	174	
6	0	0	0	0	504	174	
7	0	0	0	0	504	174	
8	0	0	0	0	505	175	
9	0	0	0	0	505	174	
10	0	0	0	0	507	175	
11	0	0	0	0	508	174	
12	0	0	0	0	508	175	
13	0	0	0	0	509	174	
14	0	0	0	0	510	175	
15	0	0	0	0	511	174	
0	0	0	0	0	512	175	
1	0	0	0	0	513	174	
2	0	0	0	0	513	174	
3	0	0	0	0	515	174	
4	0	0	0	0	516	175	
5	0	0	0	0	517	174	
6	0	0	0	0	518	174	
7	0	0	0	0	517	174	
8	0	0	0	0	515	174	
9	0	0	0	0	516	174	
10	0	0	0	0	515	174	
11	0	0	0	0	515	174	
12	0	0	0	0	515	174	
13	0	0	0	0	516	174	
14	0	0	0	0	517	174	
15	0	0	0	0	518	175	
0	0	0	0	0	519	174	
1	0	0	0	0	519	175	
2	0	0	0	0	520	174	
3	0	0	0	0	522	174	
4	0	0	0	0	522	175	
5	0	0	0	0	524	174	
6	0	0	0	0	524	174	
7	0	0	0	0	525	174	
8	0	0	0	0	526	175	
9	0	0	0	0	526	174	
10	0	0	0	0	527	175	
11	0	0	0	0	527	174	
12	0	0	0	0	527	174	
13	0	0	0	0	526	175	
14	0	0	0	0	525	174	
15	0	0	0	0	525	174	
0	0	0	0	0	526	174	
1	0	0	0	0	527	174	
2	0	0	0	0	528	174	
3	0	0	0	0	529	175	
4	0	0	0	0	529	174	
5	0	0	0	0	528	174	
6	0	0	0	0	528	175	
7	0	0	0	0	528	174	
8	0	0	0	0	528	175	
9	0	0	0	0	528	174	
10	0	0	0	0	529	174	
11	0	0	0	0	530	174	
12	0	0	0	0	531	175	
13	0	0	0	0	531	174	
14	0	0	0	0	532	174	
15	0	0	0	0	532	174	
0	0	0	0	0	532	174	
1	0	0	0	0	533	174	
2	0	0	0	0	534	174	
3	0	0	0	0	535	174	
4	0	0	0	0	535	175	
5	0	0	0	0	535	174	
6	0	0	0	0	535	175	
7	0	0	0	0	535	174	
8	0	0	0	0	533	175	
9	0	0	0	0	533	174	
10	0	0	0	0	533	174	
11	0	0	0	0	534	175	
12	0	0	0	0	536	174	
13	0	0	0	0	537	175	
14	0	0	0	0	538	174	
15	0	0	0	0	538	175	
0	0	0	0	0	538	174	
1	0	0	0	0	539	175	
2	0	0	0	0	540	174	
3	0	0	0	0	541	174	
4	0	0	0	0	542	175	
5	0	0	0	0	541	174	
6	0	0	0	0	541	174	
7	0	0	0	0	542	174	
8	0	0	0	0	541	175	
9	0	0	0	0	541	174	
10	0	0	0	0	542	175	
11	0	0	0	0	542	174	
12	0	0	0	0	540	174	
13	0	0	0	0	539	174	
14	0	0	0	0	538	174	
15	0	0	0	0	537	175	
0	0	0	0	0	535	174	
1	0	0	0	0	534	175	
2	0	0	0	0	532	174	
3	0	0	0	0	532	175	
4	0	0	0	0	532	174	
5	0	0	0	0	532	174	
6	0	0	0	0	535	175	
7	0	0	0	0	537	174	
8	0	0	0	0	538	175	
9	0	0	0	0	538	174	
10	0	0	0	0	538	175	
11	0	0	0	0	539	174	
12	0	0	0	0	540	175	
13	0	0	0	0	541	174	
14	0	0	0	0	543	175	
15	0	0	0	0	544	175	
0	0	0	0	0	545	174	
1	0	0	0	0	545	175	
2	0	0	0	0	545	174	
3	0	0	0	0	545	175	
4	0	0	0	0	545	174	
5	0	0	0	0	545	175	
6	0	0	0	0	546	174	
7	0	0	0	0	546	175	
8	0	0	0	0	546	174	
9	0	0	0	0	544	175	
10	0	0	0	0	544	174	
11	0	0	0	0	543	175	
12	0	0	0	0	543	174	
13	0	0	0	0	543	175	
14	0	0	0	0	543	175	
15	0	0	0	0	544	174	
0	0	0	0	0	542	175	
1	0	0	0	0	540	174	
2	0	0	0	0	540	175	
3	0	0	0	0	541	174	
4	0	0	0	0	542	175	
5	0	0	0	0	543	174	
6	0	0	0	0	542	175	
7	0	0	0	0	543	175	
8	0	0	0	0	543	174	
9	0	0	0	0	543	175	
10	0	0	0	0	540	174	
11	0	0	0	0	539	175	
12	0	0	0	0	537	174	
13	0	0	0	0	537	175	
14	0	0	0	0	536	174	
15	0	0	0	0	535	175	
0	0	0	0	0	535	174	
1	0	0	0	0	535	175	
2	0	0	0	0	535	175	
3	0	0	0	0	535	175	
4	0	0	0	0	536	175	
5	0	0	0	0	536	174	
6	0	0	0	0	536	175	
7	0	0	0	0	536	174	
8	0	0	0	0	535	175	
9	0	0	0	0	535	175	
10	0	0	0	0	534	174	
11	0	0	0	0	534	175	
12	0	0	0	0	535	174	
13	0	0	0	0	535	175	
14	0	0	0	0	534	174	
15	0	0	0	0	532	175	
0	0	0	0	0	532	175	
1	0	0	0	0	531	174	
2	0	0	0	0	532	175	
3	0	0	0	0	535	174	
4	0	0	0	0	535	175	
5	0	0	0	0	535	174	
6	0	0	0	0	533	175	
7	0	0	0	0	534	175	
8	0	0	0	0	535	174	
9	0	0	0	0	534	175	
10	0	0	0	0	535	174	
11	0	0	0	0	533	175	
12	0	0	0	0	531	174	
13	0	0	0	0	528	175	
14	0	0	0	0	527	174	
15	0	0	0	0	528	175	
0	0	0	0	0	529	175	
1	0	0	0	0	531	175	
2	0	0	0	0	532	175	
3	0	0	0	0	535	174	
4	0	0	0	0	538	175	
5	0	0	0	0	539	174	
6	0	0	0	0	540	175	
7	0	0	0	0	543	174	
8	0	0	0	0	544	175	
9	0	0	0	0	543	175	
10	0	0	0	0	542	174	
11	0	0	0	0	540	175	
12	0	0	0	0	539	174	
13	0	0	0	0	537	175	
14	0	0	0	0	536	174	
15	0	0	0	0	533	175	
0	0	0	0	0	534	174	
1	0	0	0	0	534	175	
2	0	0	0	0	533	174	
3	0	0	0	0	531	175	
4	0	0	0	0	529	175	
5	0	0	0	0	527	175	
6	0	0	0	0	525	175	
7	0	0	0	0	524	175	
8	0	0	0	0	521	175	
9	0	0	0	0	519	174	
10	0	0	0	0	519	175	
11	0	0	0	0	520	174	
12	0	0	0	0	521	175	
13	0	0	0	0	523	175	
14	0	0	0	0	525	175	
15	0	0	0	0	527	175	
0	0	0	0	0	527	174	
1	0	0	0	0	526	175	
2	0	0	0	0	526	174	
3	0	0	0	0	526	175	
4	0	0	0	0	525	175	
5	0	0	0	0	522	175	
6	0	0	0	0	519	175	
7	0	0	0	0	518	174	
8	0	0	0	0	516	175	
9	0	0	0	0	516	174	
10	0	0	0	0	515	175	
11	0	0	0	0	516	175	
12	0	0	0	0	515	175	
13	0	0	0	0	513	175	
14	0	0	0	0	512	175	
15	0	0	0	0	511	175	
0	0	0	0	0	511	175	
1	0	0	0	0	512	175	
2	0	0	0	0	511	175	
3	0	0	0	0	511	175	
4	0	0	0	0	511	174	
5	0	0	0	0	512	175	
6	0	0	0	0	512	175	
7	0	0	0	0	514	175	
8	0	0	0	0	516	174	
9	0	0	0	0	517	175	
10	0	0	0	0	518	174	
11	0	0	0	0	519	175	
12	0	0	0	0	518	175	
13	0	0	0	0	518	175	
14	0	0	0	0	519	175	
15	0	0	0	0	519	174	
0	0	0	0	0	519	175	
1	0	0	0	0	520	175	
2	0	0	0	0	520	175	
3	0	0	0	0	521	175	
4	0	0	0	0	522	175	
5	0	0	0	0	524	175	
6	0	0	0	0	524	175	
7	0	0	0	0	526	175	
8	0	0	0	0	526	174	
9	0	0	0	0	527	175	
10	0	0	0	0	526	174	
11	0	0	0	0	527	175	
12	0	0	0	0	529	175	
13	0	0	0	0	530	175	
14	0	0	0	0	530	174	
15	0	0	0	0	530	175	
0	0	0	0	0	531	174	
1	0	0	0	0	531	175	
2	0	0	0	0	531	174	
3	0	0	0	0	532	175	
4	0	0	0	0	534	175	
5	0	0	0	0	534	175	
6	0	0	0	0	535	175	
7	0	0	0	0	536	175	
8	0	0	0	0	539	175	
9	0	0	0	0	541	175	
10	0	0	0	0	542	175	
11	0	0	0	0	542	175	
12	0	0	0	0	542	175	
13	0	0	0	0	543	174	
14	0	0	0	0	543	175	
15	0	0	0	0	543	174	
0	0	0	0	0	543	175	
1	0	0	0	0	544	175	
2	0	0	0	0	544	175	
3	0	0	0	0	544	175	
4	0	0	0	0	543	175	
5	0	0	0	0	543	175	
6	0	0	0	0	542	175	
7	0	0	0	0	541	174	
8	0	0	0	0	541	175	
9	0	0	0	0	541	174	
10	0	0	0	0	542	175	
11	0	0	0	0	543	174	
12	0	0	0	0	544	175	
13	0	0	0	0	545	174	
14	0	0	0	0	546	175	
15	0	0	0	0	548	175	
0	0	0	0	0	551	175	
1	0	0	0	0	553	175	
2	0	0	0	0	556	174	
3	0	0	0	0	557	175	
4	0	0	0	0	556	174	
5	0	0	0	0	556	175	
6	0	0	0	0	555	175	
7	0	0	0	0	555	175	
8	0	0	0	0	553	175	
9	0	0	0	0	553	175	
10	0	0	0	0	553	175	
11	0	0	0	0	552	174	
12	0	0	0	0	553	175	
13	0	0	0	0	551	175	
14	0	0	0	0	549	175	
15	0	0	0	0	546	174	
0	0	0	0	0	544	175	
1	0	0	0	0	545	175	
2	0	0	0	0	546	175	
3	0	0	0	0	547	175	
4	0	0	0	0	550	175	
5	0	0	0	0	551	175	
6	0	0	0	0	551	174	
7	0	0	0	0	551	175	
8	0	0	0	0	551	174	
9	0	0	0	0	553	175	
10	0	0	0	0	555	174	
11	0	0	0	0	556	175	
12	0	0	0	0	557	175	
13	0	0	0	0	559	175	
14	0	0	0	0	560	175	
15	0	0	0	0	560	175	
0	0	0	0	0	562	175	
1	0	0	0	0	562	174	
2	0	0	0	0	562	175	
3	0	0	0	0	561	174	
4	0	0	0	0	561	175	
5	0	0	0	0	562	175	
6	0	0	0	0	561	175	
7	0	0	0	0	561	175	
8	0	0	0	0	563	175	
9	0	0	0	0	563	175	
10	0	0	0	0	565	175	
11	0	0	0	0	566	175	
12	0	0	0	0	568	174	
13	0	0	0	0	569	175	
14	0	0	0	0	571	174	
15	0	0	0	0	574	175	
0	0	0	0	0	576	174	
1	0	0	0	0	579	175	
2	0	0	0	0	581	175	
3	0	0	0	0	583	175	
4	0	0	0	0	583	175	
5	0	0	0	0	582	174	
6	0	0	0	0	581	175	
7	0	0	0	0	579	174	
8	0	0	0	0	576	175	
9	0	0	0	0	576	174	
10	0	0	0	0	576	175	
11	0	0	0	0	577	175	
12	0	0	0	0	578	175	
13	0	0	0	0	579	174	
14	0	0	0	0	581	175	
15	0	0	0	0	583	175	
0	0	0	0	0	586	174	
1	0	0	0	0	587	175	
2	0	0	0	0	588	174	
3	0	0	0	0	590	175	
4	0	0	0	0	591	174	
5	0	0	0	0	592	175	
6	0	0	0	0	594	175	
7	0	0	0	0	594	175	
8	0	0	0	0	594	175	
9	0	0	0	0	593	175	
10	0	0	0	0	591	175	
11	0	0	0	0	593	174	
12	0	0	0	0	594	175	
13	0	0	0	0	595	174	
14	0	0	0	0	596	175	
15	0	0	0	0	596	174	
0	0	0	0	0	596	175	
1	0	0	0	0	597	174	
2	0	0	0	0	598	175	
3	0	0	0	0	598	174	
4	0	0	0	0	598	175	
5	0	0	0	0	600	175	
6	0	0	0	0	601	174	
7	0	0	0	0	601	175	
8	0	0	0	0	600	174	
9	0	0	0	0	601	175	
10	0	0	0	0	603	174	
11	0	0	0	0	602	175	
12	0	0	0	0	603	175	
13	0	0	0	0	603	175	
14	0	0	0	0	604	174	
15	0	0	0	0	605	175	
0	0	0	0	0	606	175	
1	0	0	0	0	608	175	
2	0	0	0	0	608	175	
3	0	0	0	0	609	175	
4	0	0	0	0	608	175	
5	0	0	0	0	608	174	
6	0	0	0	0	608	175	
7	0	0	0	0	607	174	
8	0	0	0	0	607	175	
9	0	0	0	0	607	174	
10	0	0	0	0	607	175	
11	0	0	0	0	608	175	
12	0	0	0	0	608	174	
13	0	0	0	0	609	175	
14	0	0	0	0	609	174	
15	0	0	0	0	607	175	
0	0	0	0	0	606	174	
1	0	0	0	0	605	175	
2	0	0	0	0	604	175	
3	0	0	0	0	604	175	
4	0	0	0	0	604	175	
5	0	0	0	0	603	175	
6	0	0	0	0	601	175	
7	0	0	0	0	600	175	
8	0	0	0	0	600	175	
9	0	0	0	0	600	175	
10	0	0	0	0	600	175	
11	0	0	0	0	600	174	
12	0	0	0	0	600	175	
13	0	0	0	0	600	174	
14	0	0	0	0	600	175	
15	0	0	0	0	601	174	
0	0	0	0	0	602	175	
1	0	0	0	0	602	174	
2	0	0	0	0	604	175	
3	0	0	0	0	605	174	
4	0	0	0	0	607	175	
5	0	0	0	0	606	175	
6	0	0	0	0	608	175	
7	0	0	0	0	607	175	
8	0	0	0	0	604	174	
9	0	0	0	0	603	175	
10	0	0	0	0	602	175	
11	0	0	0	0	600	175	
12	0	0	0	0	599	175	
13	0	0	0	0	598	175	
14	0	0	0	0	598	174	
15	0	0	0	0	597	175	
0	0	0	0	0	596	174	
1	0	0	0	0	596	175	
2	0	0	0	0	596	174	
3	0	0	0	0	598	175	
4	0	0	0	0	600	175	
5	0	0	0	0	601	175	
6	0	0	0	0	603	175	
7	0	0	0	0	604	174	
8	0	0	0	0	604	175	
9	0	0	0	0	601	174	
10	0	0	0	0	600	175	
11	0	0	0	0	600	174	
12	0	0	0	0	599	176	
13	0	0	0	0	598	175	
14	0	0	0	0	596	175	
15	0	0	0	0	596	175	
0	0	0	0	0	596	174	
1	0	0	0	0	594	175	
2	0	0	0	0	595	174	
3	0	0	0	0	594	175	
4	0	0	0	0	592	175	
5	0	0	0	0	592	175	
6	0	0	0	0	591	175	
7	0	0	0	0	591	174	
8	0	0	0	0	591	175	
9	0	0	0	0	592	174	
10	0	0	0	0	593	175	
11	0	0	0	0	592	174	
12	0	0	0	0	592	175	
13	0	0	0	0	593	174	
14	0	0	0	0	595	175	
15	0	0	0	0	595	174	
0	0	0	0	0	594	175	
1	0	0	0	0	593	175	
2	0	0	0	0	595	175	
3	0	0	0	0	594	175	
4	0	0	0	0	594	175	
5	0	0	0	0	593	175	
6	0	0	0	0	592	174	
7	0	0	0	0	591	175	
8	0	0	0	0	590	174	
9	0	0	0	0	588	175	
10	0	0	0	0	588	175	
11	0	0	0	0	590	176	
12	0	0	0	0	589	175	
13	0	0	0	0	589	176	
14	0	0	0	0	586	175	
15	0	0	0	0	585	175	
0	0	0	0	0	584	175	
1	0	0	0	0	585	175	
2	0	0	0	0	585	175	
3	0	0	0	0	587	174	
4	0	0	0	0	588	175	
5	0	0	0	0	588	175	
6	0	0	0	0	587	176	
7	0	0	0	0	586	175	
8	0	0	0	0	584	176	
9	0	0	0	0	582	175	
10	0	0	0	0	580	176	
11	0	0	0	0	578	175	
12	0	0	0	0	576	176	
13	0	0	0	0	574	175	
14	0	0	0	0	573	176	
15	0	0	0	0	575	175	
0	0	0	0	0	575	175	
1	0	0	0	0	576	175	
2	0	0	0	0	577	175	
3	0	0	0	0	577	175	
4	0	0	0	0	576	175	
5	0	0	0	0	575	175	
6	0	0	0	0	575	175	
7	0	0	0	0	575	175	
8	0	0	0	0	576	174	
9	0	0	0	0	577	175	
10	0	0	0	0	578	174	
11	0	0	0	0	579	175	
12	0	0	0	0	580	174	
13	0	0	0	0	580	175	
14	0	0	0	0	580	175	
15	0	0	0	0	579	176	
0	0	0	0	0	578	175	
1	0	0	0	0	577	176	
2	0	0	0	0	576	175	
3	0	0	0	0	576	175	
4	0	0	0	0	574	175	
5	0	0	0	0	571	174	
6	0	0	0	0	568	175	
7	0	0	0	0	566	175	
8	0	0	0	0	565	176	
9	0	0	0	0	563	175	
10	0	0	0	0	563	176	
11	0	0	0	0	563	175	
12	0	0	0	0	564	175	
13	0	0	0	0	563	176	
14	0	0	0	0	562	175	
15	0	0	0	0	561	176	
0	0	0	0	0	560	175	
1	0	0	0	0	560	176	
2	0	0	0	0	560	175	
3	0	0	0	0	561	176	
4	0	0	0	0	561	175	
5	0	0	0	0	562	176	
6	0	0	0	0	563	175	
7	0	0	0	0	564	175	
8	0	0	0	0	565	175	
9	0	0	0	0	566	175	
10	0	0	0	0	567	175	
11	0	0	0	0	567	175	
12	0	0	0	0	567	176	
13	0	0	0	0	568	175	
14	0	0	0	0	568	175	
15	0	0	0	0	566	175	
0	0	0	0	0	565	174	
1	0	0	0	0	564	176	
2	0	0	0	0	563	175	
3	0	0	0	0	563	176	
4	0	0	0	0	562	175	
5	0	0	0	0	561	175	
6	0	0	0	0	561	175	
7	0	0	0	0	560	176	
8	0	0	0	0	559	175	
9	0	0	0	0	558	176	
10	0	0	0	0	558	175	
11	0	0	0	0	558	176	
12	0	0	0	0	558	175	
13	0	0	0	0	558	175	
14	0	0	0	0	558	175	
15	0	0	0	0	559	175	
0	0	0	0	0	558	175	
1	0	0	0	0	557	175	
2	0	0	0	0	557	176	
3	0	0	0	0	557	175	
4	0	0	0	0	556	176	
5	0	0	0	0	556	175	
6	0	0	0	0	556	176	
7	0	0	0	0	556	175	
8	0	0	0	0	557	176	
9	0	0	0	0	557	175	
10	0	0	0	0	557	176	
11	0	0	0	0	557	175	
12	0	0	0	0	557	176	
13	0	0	0	0	557	175	
14	0	0	0	0	555	176	
15	0	0	0	0	552	175	
0	0	0	0	0	550	176	
1	0	0	0	0	550	175	
2	0	0	0	0	548	175	
3	0	0	0	0	547	176	
4	0	0	0	0	547	175	
5	0	0	0	0	547	176	
6	0	0	0	0	547	175	
7	0	0	0	0	545	176	
8	0	0	0	0	545	175	
9	0	0	0	0	545	176	
10	0	0	0	0	545	175	
11	0	0	0	0	545	176	
12	0	0	0	0	546	175	
13	0	0	0	0	546	176	
14	0	0	0	0	545	175	
15	0	0	0	0	545	176	
0	0	0	0	0	545	175	
1	0	0	0	0	546	176	
2	0	0	0	0	547	175	
3	0	0	0	0	547	176	
4	0	0	0	0	547	175	
5	0	0	0	0	548	176	
6	0	0	0	0	550	175	
7	0	0	0	0	550	176	
8	0	0	0	0	549	175	
9	0	0	0	0	548	176	
10	0	0	0	0	546	175	
11	0	0	0	0	543	176	
12	0	0	0	0	543	175	
13	0	0	0	0	544	176	
14	0	0	0	0	546	175	
15	0	0	0	0	547	176	
0	0	0	0	0	548	175	
1	0	0	0	0	549	176	
2	0	0	0	0	549	175	
3	0	0	0	0	549	175	
4	0	0	0	0	549	176	
5	0	0	0	0	548	175	
6	0	0	0	0	547	176	
7	0	0	0	0	547	175	
8	0	0	0	0	545	176	
9	0	0	0	0	544	175	
10	0	0	0	0	544	176	
11	0	0	0	0	544	175	
12	0	0	0	0	543	176	
13	0	0	0	0	543	175	
14	0	0	0	0	545	176	
15	0	0	0	0	546	175	
0	0	0	0	0	547	176	
1	0	0	0	0	547	175	
2	0	0	0	0	546	176	
3	0	0	0	0	545	175	
4	0	0	0	0	544	176	
5	0	0	0	0	544	175	
6	0	0	0	0	544	176	
7	0	0	0	0	543	175	
8	0	0	0	0	544	175	
9	0	0	0	0	544	176	
10	0	0	0	0	544	175	
11	0	0	0	0	545	176	
12	0	0	0	0	544	175	
13	0	0	0	0	543	176	
14	0	0	0	0	543	175	
15	0	0	0	0	542	176	
0	0	0	0	0	540	175	
1	0	0	0	0	539	176	
2	0	0	0	0	540	175	
3	0	0	0	0	542	176	
4	0	0	0	0	542	175	
5	0	0	0	0	544	176	
6	0	0	0	0	546	175	
7	0	0	0	0	547	176	
8	0	0	0	0	547	175	
9	0	0	0	0	547	176	
10	0	0	0	0	547	176	
11	0	0	0	0	547	175	
12	0	0	0	0	546	176	
13	0	0	0	0	545	175	
14	0	0	0	0	545	176	
15	0	0	0	0	544	175	
0	0	0	0	0	544	176	
1	0	0	0	0	544	175	
2	0	0	0	0	544	176	
3	0	0	0	0	543	175	
4	0	0	0	0	543	176	
5	0	0	0	0	541	175	
6	0	0	0	0	540	176	
7	0	0	0	0	540	175	
8	0	0	0	0	540	176	
9	0	0	0	0	542	175	
10	0	0	0	0	542	176	
11	0	0	0	0	542	175	
12	0	0	0	0	542	176	
13	0	0	0	0	543	175	
14	0	0	0	0	544	176	
15	0	0	0	0	544	176	
0	0	0	0	0	544	176	
1	0	0	0	0	543	176	
2	0	0	0	0	544	175	
3	0	0	0	0	544	176	
4	0	0	0	0	543	175	
5	0	0	0	0	542	176	
6	0	0	0	0	543	175	
7	0	0	0	0	544	176	
8	0	0	0	0	545	175	
9	0	0	0	0	545	176	
10	0	0	0	0	545	175	
11	0	0	0	0	545	176	
12	0	0	0	0	545	175	
13	0	0	0	0	544	176	
14	0	0	0	0	544	175	
15	0	0	0	0	543	176	
0	0	0	0	0	541	175	
1	0	0	0	0	539	176	
2	0	0	0	0	539	176	
3	0	0	0	0	539	175	
4	0	0	0	0	538	176	
5	0	0	0	0	536	175	
6	0	0	0	0	535	176	
7	0	0	0	0	536	175	
8	0	0	0	0	536	176	
9	0	0	0	0	537	175	
10	0	0	0	0	537	176	
11	0	0	0	0	536	175	
12	0	0	0	0	536	176	
13	0	0	0	0	536	175	
14	0	0	0	0	537	176	
15	0	0	0	0	538	176	
0	0	0	0	0	538	175	
1	0	0	0	0	539	176	
2	0	0	0	0	539	175	
3	0	0	0	0	537	176	
4	0	0	0	0	536	175	
5	0	0	0	0	535	176	
6	0	0	0	0	534	175	
7	0	0	0	0	532	176	
8	0	0	0	0	531	175	
9	0	0	0	0	531	176	
10	0	0	0	0	527	175	
11	0	0	0	0	526	176	
12	0	0	0	0	524	175	
13	0	0	0	0	522	176	
14	0	0	0	0	523	175	
15	0	0	0	0	524	176	
0	0	0	0	0	524	176	
1	0	0	0	0	524	175	
2	0	0	0	0	524	176	
3	0	0	0	0	523	175	
4	0	0	0	0	521	176	
5	0	0	0	0	520	175	
6	0	0	0	0	519	176	
7	0	0	0	0	519	175	
8	0	0	0	0	519	176	
9	0	0	0	0	519	176	
10	0	0	0	0	517	175	
11	0	0	0	0	515	176	
12	0	0	0	0	513	175	
13	0	0	0	0	512	176	
14	0	0	0	0	511	175	
15	0	0	0	0	509	176	
0	0	0	0	0	508	175	
1	0	0	0	0	507	176	
2	0	0	0	0	505	176	
3	0	0	0	0	505	175	
4	0	0	0	0	505	176	
5	0	0	0	0	504	175	
6	0	0	0	0	504	176	
7	0	0	0	0	504	175	
8	0	0	0	0	503	176	
9	0	0	0	0	504	175	
10	0	0	0	0	504	176	
11	0	0	0	0	505	176	
12	0	0	0	0	506	176	
13	0	0	0	0	505	176	
14	0	0	0	0	504	176	
15	0	0	0	0	504	176	
0	0	0	0	0	503	175	
1	0	0	0	0	503	176	
2	0	0	0	0	503	176	
3	0	0	0	0	503	176	
4	0	0	0	0	500	176	
5	0	0	0	0	499	175	
6	0	0	0	0	497	176	
7	0	0	0	0	495	175	
8	0	0	0	0	495	176	
9	0	0	0	0	495	176	
10	0	0	0	0	497	176	
11	0	0	0	0	498	176	
12	0	0	0	0	498	175	
13	0	0	0	0	497	176	
14	0	0	0	0	497	176	
15	0	0	0	0	497	175	
0	0	0	0	0	498	176	
1	0	0	0	0	497	175	
2	0	0	0	0	496	176	
3	0	0	0	0	495	176	
4	0	0	0	0	493	176	
5	0	0	0	0	493	176	
6	0	0	0	0	492	175	
7	0	0	0	0	491	176	
8	0	0	0	0	491	175	
9	0	0	0	0	492	176	
10	0	0	0	0	492	176	
11	0	0	0	0	494	176	
12	0	0	0	0	496	176	
13	0	0	0	0	499	176	
14	0	0	0	0	504	176	
15	0	0	0	0	511	175	
0	0	0	0	0	519	176	
1	0	0	0	0	528	175	
2	0	0	0	0	540	176	
3	0	0	0	0	550	175	
4	0	0	0	0	559	176	
5	0	0	0	0	569	175	
6	0	0	0	0	578	176	
7	0	0	0	0	587	176	
8	0	0	0	0	594	175	
9	0	0	0	0	600	176	
10	0	0	0	0	605	175	
11	0	0	0	0	609	176	
12	0	0	0	0	612	175	
13	0	0	0	0	615	176	
14	0	0	0	0	617	175	
15	0	0	0	0	618	175	
0	0	0	0	0	618	175	
1	0	0	0	0	618	175	
2	0	0	0	0	617	175	
3	0	0	0	0	615	175	
4	0	0	0	0	613	176	
5	0	0	0	0	609	175	
6	0	0	0	0	604	176	
7	0	0	0	0	597	175	
8	0	0	0	0	590	176	
9	0	0	0	0	582	175	
10	0	0	0	0	576	176	
11	0	0	0	0	570	175	
12	0	0	0	0	562	176	
13	0	0	0	0	551	175	
14	0	0	0	0	540	176	
15	0	0	0	0	528	176	
0	0	0	0	0	518	175	
1	0	0	0	0	509	176	
2	0	0	0	0	498	175	
3	0	0	0	0	488	176	
4	0	0	0	0	480	176	
5	0	0	0	0	472	176	
6	0	0	0	0	467	176	
7	0	0	0	0	463	176	
8	0	0	0	0	458	176	
9	0	0	0	0	454	176	
10	0	0	0	0	451	176	
11	0	0	0	0	449	176	
12	0	0	0	0	447	176	
13	0	0	0	0	445	176	
14	0	0	0	0	444	177	
15	0	0	0	0	443	176	
0	0	0	0	0	441	176	
1	0	0	0	0	441	176	
2	0	0	0	0	443	176	
3	0	0	0	0	445	176	
4	0	0	0	0	447	176	
5	0	0	0	0	449	176	
6	0	0	0	0	451	176	
7	0	0	0	0	453	176	
8	0	0	0	0	454	176	
9	0	0	0	0	454	176	
10	0	0	0	0	455	176	
11	0	0	0	0	455	176	
12	0	0	0	0	454	176	
13	0	0	0	0	454	176	
14	0	0	0	0	455	176	
15	0	0	0	0	456	176	
0	0	0	0	0	455	176	
1	0	0	0	0	455	176	
2	0	0	0	0	457	176	
3	0	0	0	0	458	176	
4	0	0	0	0	458	176	
5	0	0	0	0	459	176	
6	0	0	0	0	458	176	
7	0	0	0	0	458	176	
8	0	0	0	0	458	176	
9	0	0	0	0	459	176	
10	0	0	0	0	459	176	
11	0	0	0	0	459	176	
12	0	0	0	0	461	176	
13	0	0	0	0	462	176	
14	0	0	0	0	461	176	
15	0	0	0	0	462	176	
0	0	0	0	0	462	176	
1	0	0	0	0	463	176	
2	0	0	0	0	463	176	
3	0	0	0	0	462	176	
4	0	0	0	0	461	176	
5	0	0	0	0	462	176	
6	0	0	0	0	463	176	
7	0	0	0	0	463	176	
8	0	0	0	0	463	176	
9	0	0	0	0	462	176	
10	0	0	0	0	462	176	
11	0	0	0	0	462	176	
12	0	0	0	0	464	176	
13	0	0	0	0	465	176	
14	0	0	0	0	466	176	
15	0	0	0	0	468	176	
0	0	0	0	0	469	176	
1	0	0	0	0	469	176	
2	0	0	0	0	469	176	
3	0	0	0	0	469	176	
4	0	0	0	0	469	176	
5	0	0	0	0	470	176	
6	0	0	0	0	469	176	
7	0	0	0	0	470	176	
8	0	0	0	0	471	176	
9	0	0	0	0	470	176	
10	0	0	0	0	470	176	
11	0	0	0	0	468	176	
12	0	0	0	0	469	176	
13	0	0	0	0	469	176	
14	0	0	0	0	469	176	
15	0	0	0	0	471	176	
0	0	0	0	0	472	176	
1	0	0	0	0	473	176	
2	0	0	0	0	474	176	
3	0	0	0	0	473	175	
4	0	0	0	0	474	176	
5	0	0	0	0	474	176	
6	0	0	0	0	474	176	
7	0	0	0	0	474	176	
8	0	0	0	0	474	176	
9	0	0	0	0	475	176	
10	0	0	0	0	475	176	
11	0	0	0	0	476	176	
12	0	0	0	0	476	176	
13	0	0	0	0	477	176	
14	0	0	0	0	477	176	
15	0	0	0	0	477	176	
0	0	0	0	0	477	176	
1	0	0	0	0	478	176	
2	0	0	0	0	478	176	
3	0	0	0	0	477	176	
4	0	0	0	0	476	176	
5	0	0	0	0	476	176	
6	0	0	0	0	475	176	
7	0	0	0	0	474	176	
8	0	0	0	0	475	176	
9	0	0	0	0	476	176	
10	0	0	0	0	477	176	
11	0	0	0	0	478	176	
12	0	0	0	0	479	176	
13	0	0	0	0	479	176	
14	0	0	0	0	478	176	
15	0	0	0	0	478	176	
0	0	0	0	0	479	176	
1	0	0	0	0	479	176	
2	0	0	0	0	478	176	
3	0	0	0	0	478	176	
4	0	0	0	0	479	176	
5	0	0	0	0	480	176	
6	0	0	0	0	480	176	
7	0	0	0	0	480	176	
8	0	0	0	0	481	176	
9	0	0	0	0	481	176	
10	0	0	0	0	480	176	
11	0	0	0	0	480	176	
12	0	0	0	0	479	176	
13	0	0	0	0	479	176	
14	0	0	0	0	480	176	
15	0	0	0	0	481	176	
0	0	0	0	0	481	176	
1	0	0	0	0	481	176	
2	0	0	0	0	482	176	
3	0	0	0	0	483	176	
4	0	0	0	0	484	176	
5	0	0	0	0	483	176	
6	0	0	0	0	483	176	
7	0	0	0	0	481	176	
8	0	0	0	0	480	176	
9	0	0	0	0	480	176	
10	0	0	0	0	480	176	
11	0	0	0	0	480	176	
12	0	0	0	0	481	176	
13	0	0	0	0	481	176	
14	0	0	0	0	482	176	
15	0	0	0	0	483	176	
0	0	0	0	0	484	176	
1	0	0	0	0	484	176	
2	0	0	0	0	484	176	
3	0	0	0	0	483	176	
4	0	0	0	0	481	176	
5	0	0	0	0	481	176	
6	0	0	0	0	481	176	
7	0	0	0	0	482	176	
8	0	0	0	0	483	176	
9	0	0	0	0	483	176	
10	0	0	0	0	483	176	
11	0	0	0	0	482	176	
12	0	0	0	0	482	176	
13	0	0	0	0	482	176	
14	0	0	0	0	482	176	
15	0	0	0	0	481	177	
0	0	0	0	0	479	176	
1	0	0	0	0	479	176	
2	0	0	0	0	478	176	
3	0	0	0	0	478	176	
4	0	0	0	0	478	176	
5	0	0	0	0	478	176	
6	0	0	0	0	477	177	
7	0	0	0	0	478	176	
8	0	0	0	0	478	176	
9	0	0	0	0	479	176	
10	0	0	0	0	480	176	
11	0	0	0	0	480	176	
12	0	0	0	0	481	176	
13	0	0	0	0	482	176	
14	0	0	0	0	483	176	
15	0	0	0	0	485	176	
0	0	0	0	0	485	176	
1	0	0	0	0	485	176	
2	0	0	0	0	485	176	
3	0	0	0	0	486	176	
4	0	0	0	0	487	176	
5	0	0	0	0	485	176	
6	0	0	0	0	485	176	
7	0	0	0	0	486	176	
8	0	0	0	0	487	176	
9	0	0	0	0	487	176	
10	0	0	0	0	488	176	
11	0	0	0	0	489	176	
12	0	0	0	0	490	176	
13	0	0	0	0	490	176	
14	0	0	0	0	489	176	
15	0	0	0	0	489	176	
0	0	0	0	0	488	176	
1	0	0	0	0	487	176	
2	0	0	0	0	488	176	
3	0	0	0	0	488	177	
4	0	0	0	0	487	176	
5	0	0	0	0	488	176	
6	0	0	0	0	489	176	
7	0	0	0	0	491	176	
8	0	0	0	0	492	176	
9	0	0	0	0	492	176	
10	0	0	0	0	493	176	
11	0	0	0	0	495	176	
12	0	0	0	0	497	176	
13	0	0	0	0	497	176	
14	0	0	0	0	497	176	
15	0	0	0	0	498	176	
0	0	0	0	0	498	176	
1	0	0	0	0	498	176	
2	0	0	0	0	497	176	
3	0	0	0	0	496	177	
4	0	0	0	0	497	176	
5	0	0	0	0	497	176	
6	0	0	0	0	498	176	
7	0	0	0	0	498	176	
8	0	0	0	0	498	176	
9	0	0	0	0	499	176	
10	0	0	0	0	498	176	
11	0	0	0	0	497	176	
12	0	0	0	0	497	176	
13	0	0	0	0	499	176	
14	0	0	0	0	498	176	
15	0	0	0	0	498	176	
0	0	0	0	0	497	176	
1	0	0	0	0	498	176	
2	0	0	0	0	499	176	
3	0	0	0	0	501	176	
4	0	0	0	0	502	176	
5	0	0	0	0	503	177	
6	0	0	0	0	503	176	
7	0	0	0	0	503	176	
8	0	0	0	0	503	176	
9	0	0	0	0	504	176	
10	0	0	0	0	504	176	
11	0	0	0	0	505	176	
12	0	0	0	0	507	176	
13	0	0	0	0	507	177	
14	0	0	0	0	507	176	
15	0	0	0	0	507	176	
0	0	0	0	0	505	176	
1	0	0	0	0	504	176	
2	0	0	0	0	503	176	
3	0	0	0	0	502	176	
4	0	0	0	0	502	176	
5	0	0	0	0	502	176	
6	0	0	0	0	502	177	
7	0	0	0	0	502	176	
8	0	0	0	0	502	176	
9	0	0	0	0	504	176	
10	0	0	0	0	506	176	
11	0	0	0	0	508	176	
12	0	0	0	0	508	176	
13	0	0	0	0	507	176	
14	0	0	0	0	507	176	
15	0	0	0	0	506	176	
0	0	0	0	0	508	176	
1	0	0	0	0	508	176	
2	0	0	0	0	507	176	
3	0	0	0	0	506	176	
4	0	0	0	0	504	176	
5	0	0	0	0	502	176	
6	0	0	0	0	499	176	
7	0	0	0	0	496	176	
8	0	0	0	0	492	176	
9	0	0	0	0	489	176	
10	0	0	0	0	487	176	
11	0	0	0	0	486	176	
12	0	0	0	0	485	177	
13	0	0	0	0	485	176	
14	0	0	0	0	484	177	
15	0	0	0	0	483	176	
0	0	0	0	0	481	176	
1	0	0	0	0	480	176	
2	0	0	0	0	480	176	
3	0	0	0	0	479	176	
4	0	0	0	0	479	176	
5	0	0	0	0	478	176	
6	0	0	0	0	477	176	
7	0	0	0	0	475	177	
8	0	0	0	0	473	176	
9	0	0	0	0	472	177	
10	0	0	0	0	470	176	
11	0	0	0	0	467	176	
12	0	0	0	0	464	177	
13	0	0	0	0	462	176	
14	0	0	0	0	461	176	
15	0	0	0	0	461	176	
0	0	0	0	0	459	176	
1	0	0	0	0	459	176	
2	0	0	0	0	456	177	
3	0	0	0	0	455	176	
4	0	0	0	0	454	177	
5	0	0	0	0	454	176	
6	0	0	0	0	455	177	
7	0	0	0	0	455	176	
8	0	0	0	0	454	177	
9	0	0	0	0	454	176	
10	0	0	0	0	452	176	
11	0	0	0	0	451	177	
12	0	0	0	0	450	176	
13	0	0	0	0	449	177	
14	0	0	0	0	447	176	
15	0	0	0	0	445	177	
0	0	0	0	0	443	176	
1	0	0	0	0	443	177	
2	0	0	0	0	442	176	
3	0	0	0	0	441	177	
4	0	0	0	0	442	176	
5	0	0	0	0	444	177	
6	0	0	0	0	444	177	
7	0	0	0	0	445	176	
8	0	0	0	0	446	177	
9	0	0	0	0	446	176	
10	0	0	0	0	446	177	
11	0	0	0	0	446	176	
12	0	0	0	0	445	176	
13	0	0	0	0	443	177	
14	0	0	0	0	442	176	
15	0	0	0	0	442	177	
0	0	0	0	0	442	176	
1	0	0	0	0	442	177	
2	0	0	0	0	442	176	
3	0	0	0	0	442	177	
4	0	0	0	0	443	176	
5	0	0	0	0	443	176	
6	0	0	0	0	443	177	
7	0	0	0	0	444	176	
8	0	0	0	0	443	177	
9	0	0	0	0	445	176	
10	0	0	0	0	444	177	
11	0	0	0	0	443	176	
12	0	0	0	0	444	177	
13	0	0	0	0	444	176	
14	0	0	0	0	445	177	
15	0	0	0	0	444	176	
0	0	0	0	0	446	177	
1	0	0	0	0	447	176	
2	0	0	0	0	447	177	
3	0	0	0	0	447	176	
4	0	0	0	0	448	176	
5	0	0	0	0	447	177	
6	0	0	0	0	447	176	
7	0	0	0	0	447	176	
8	0	0	0	0	447	176	
9	0	0	0	0	447	177	
10	0	0	0	0	448	176	
11	0	0	0	0	451	177	
12	0	0	0	0	454	176	
13	0	0	0	0	456	177	
14	0	0	0	0	459	176	
15	0	0	0	0	461	177	
0	0	0	0	0	462	176	
1	0	0	0	0	461	177	
2	0	0	0	0	461	176	
3	0	0	0	0	460	176	
4	0	0	0	0	459	177	
5	0	0	0	0	458	176	
6	0	0	0	0	457	177	
7	0	0	0	0	456	176	
8	0	0	0	0	455	177	
9	0	0	0	0	454	176	
10	0	0	0	0	455	177	
11	0	0	0	0	455	176	
12	0	0	0	0	456	177	
13	0	0	0	0	458	177	
14	0	0	0	0	459	176	
15	0	0	0	0	460	177	
0	0	0	0	0	461	176	
1	0	0	0	0	461	177	
2	0	0	0	0	460	176	
3	0	0	0	0	460	177	
4	0	0	0	0	461	176	
5	0	0	0	0	461	177	
6	0	0	0	0	463	176	
7	0	0	0	0	465	177	
8	0	0	0	0	465	176	
9	0	0	0	0	467	176	
10	0	0	0	0	469	177	
11	0	0	0	0	471	176	
12	0	0	0	0	472	176	
13	0	0	0	0	472	176	
14	0	0	0	0	471	177	
15	0	0	0	0	471	176	
0	0	0	0	0	471	177	
1	0	0	0	0	470	176	
2	0	0	0	0	470	176	
3	0	0	0	0	469	177	
4	0	0	0	0	469	176	
5	0	0	0	0	471	177	
6	0	0	0	0	472	176	
7	0	0	0	0	472	177	
8	0	0	0	0	470	176	
9	0	0	0	0	469	176	
10	0	0	0	0	467	176	
11	0	0	0	0	467	177	
12	0	0	0	0	467	176	
13	0	0	0	0	466	177	
14	0	0	0	0	467	176	
15	0	0	0	0	470	176	
0	0	0	0	0	472	177	
1	0	0	0	0	473	176	
2	0	0	0	0	474	177	
3	0	0	0	0	474	176	
4	0	0	0	0	476	177	
5	0	0	0	0	477	176	
6	0	0	0	0	476	177	
7	0	0	0	0	476	176	
8	0	0	0	0	478	177	
9	0	0	0	0	480	177	
10	0	0	0	0	482	176	
11	0	0	0	0	483	177	
12	0	0	0	0	484	176	
13	0	0	0	0	485	176	
14	0	0	0	0	486	176	
15	0	0	0	0	487	176	
0	0	0	0	0	487	176	
1	0	0	0	0	488	177	
2	0	0	0	0	489	176	
3	0	0	0	0	490	177	
4	0	0	0	0	491	176	
5	0	0	0	0	491	176	
6	0	0	0	0	491	176	
7	0	0	0	0	490	176	
8	0	0	0	0	488	177	
9	0	0	0	0	487	176	
10	0	0	0	0	487	176	
11	0	0	0	0	486	176	
12	0	0	0	0	486	177	
13	0	0	0	0	486	176	
14	0	0	0	0	485	177	
15	0	0	0	0	485	176	
0	0	0	0	0	485	177	
1	0	0	0	0	486	176	
2	0	0	0	0	486	177	
3	0	0	0	0	487	176	
4	0	0	0	0	487	176	
5	0	0	0	0	488	177	
6	0	0	0	0	488	176	
7	0	0	0	0	489	176	
8	0	0	0	0	486	176	
9	0	0	0	0	486	176	
10	0	0	0	0	486	176	
11	0	0	0	0	485	176	
12	0	0	0	0	486	176	
13	0	0	0	0	485	177	
14	0	0	0	0	486	176	
15	0	0	0	0	488	176	
0	0	0	0	0	490	176	
1	0	0	0	0	491	177	
2	0	0	0	0	493	176	
3	0	0	0	0	495	177	
4	0	0	0	0	495	176	
5	0	0	0	0	496	177	
6	0	0	0	0	497	176	
7	0	0	0	0	497	176	
8	0	0	0	0	496	177	
9	0	0	0	0	496	176	
10	0	0	0	0	496	176	
11	0	0	0	0	496	176	
12	0	0	0	0	496	177	
13	0	0	0	0	496	176	
14	0	0	0	0	495	176	
15	0	0	0	0	493	176	
0	0	0	0	0	492	176	
1	0	0	0	0	492	176	
2	0	0	0	0	490	176	
3	0	0	0	0	489	177	
4	0	0	0	0	487	176	
5	0	0	0	0	488	177	
6	0	0	0	0	487	176	
7	0	0	0	0	487	177	
8	0	0	0	0	487	176	
9	0	0	0	0	487	176	
10	0	0	0	0	487	177	
11	0	0	0	0	487	176	
12	0	0	0	0	487	177	
13	0	0	0	0	488	176	
14	0	0	0	0	488	176	
15	0	0	0	0	488	176	
0	0	0	0	0	489	177	
1	0	0	0	0	489	176	
2	0	0	0	0	488	176	
3	0	0	0	0	487	176	
4	0	0	0	0	487	177	
5	0	0	0	0	487	176	
6	0	0	0	0	486	177	
7	0	0	0	0	486	176	
8	0	0	0	0	487	176	
9	0	0	0	0	487	176	
10	0	0	0	0	489	176	
11	0	0	0	0	491	176	
12	0	0	0	0	491	176	
13	0	0	0	0	491	177	
14	0	0	0	0	492	176	
15	0	0	0	0	492	177	
0	0	0	0	0	492	176	
1	0	0	0	0	492	176	
2	0	0	0	0	492	176	
3	0	0	0	0	492	177	
4	0	0	0	0	492	176	
5	0	0	0	0	492	176	
6	0	0	0	0	494	176	
7	0	0	0	0	495	176	
8	0	0	0	0	495	176	
9	0	0	0	0	495	176	
10	0	0	0	0	496	176	
11	0	0	0	0	496	177	
12	0	0	0	0	496	176	
13	0	0	0	0	496	177	
14	0	0	0	0	496	176	
15	0	0	0	0	496	177	
0	0	0	0	0	495	176	
1	0	0	0	0	494	177	
2	0	0	0	0	494	176	
3	0	0	0	0	495	176	
4	0	0	0	0	495	177	
5	0	0	0	0	495	176	
6	0	0	0	0	495	176	
7	0	0	0	0	494	176	
8	0	0	0	0	492	177	
9	0	0	0	0	491	176	
10	0	0	0	0	491	177	
11	0	0	0	0	491	176	
12	0	0	0	0	491	176	
13	0	0	0	0	491	176	
14	0	0	0	0	492	176	
15	0	0	0	0	493	177	
0	0	0	0	0	495	176	
1	0	0	0	0	496	177	
2	0	0	0	0	496	176	
3	0	0	0	0	496	177	
4	0	0	0	0	496	176	
5	0	0	0	0	498	177	
6	0	0	0	0	499	176	
7	0	0	0	0	500	176	
8	0	0	0	0	502	176	
9	0	0	0	0	502	176	
10	0	0	0	0	503	176	
11	0	0	0	0	504	176	
12	0	0	0	0	503	177	
13	0	0	0	0	504	176	
14	0	0	0	0	504	176	
15	0	0	0	0	503	176	
0	0	0	0	0	502	177	
1	0	0	0	0	500	177	
2	0	0	0	0	500	176	
3	0	0	0	0	499	177	
4	0	0	0	0	498	176	
5	0	0	0	0	498	177	
6	0	0	0	0	498	176	
7	0	0	0	0	497	177	
8	0	0	0	0	498	176	
9	0	0	0	0	497	176	
10	0	0	0	0	496	176	
11	0	0	0	0	497	176	
12	0	0	0	0	497	176	
13	0	0	0	0	498	176	
14	0	0	0	0	499	176	
15	0	0	0	0	499	176	
0	0	0	0	0	499	176	
1	0	0	0	0	499	176	
2	0	0	0	0	499	177	
3	0	0	0	0	498	176	
4	0	0	0	0	499	176	
5	0	0	0	0	499	176	
6	0	0	0	0	500	176	
7	0	0	0	0	503	177	
8	0	0	0	0	504	176	
9	0	0	0	0	504	176	
10	0	0	0	0	505	176	
11	0	0	0	0	506	176	
12	0	0	0	0	509	176	
13	0	0	0	0	510	176	
14	0	0	0	0	510	177	
15	0	0	0	0	509	176	
0	0	0	0	0	508	177	
1	0	0	0	0	507	176	
2	0	0	0	0	507	176	
3	0	0	0	0	507	176	
4	0	0	0	0	505	176	
5	0	0	0	0	505	177	
6	0	0	0	0	503	176	
7	0	0	0	0	502	176	
8	0	0	0	0	501	176	
9	0	0	0	0	500	177	
10	0	0	0	0	501	176	
11	0	0	0	0	502	176	
12	0	0	0	0	502	176	
13	0	0	0	0	503	176	
14	0	0	0	0	503	176	
15	0	0	0	0	503	176	
0	0	0	0	0	502	177	
1	0	0	0	0	502	176	
2	0	0	0	0	502	177	
3	0	0	0	0	501	176	
4	0	0	0	0	502	176	
5	0	0	0	0	501	177	
6	0	0	0	0	502	176	
7	0	0	0	0	502	176	
8	0	0	0	0	503	176	
9	0	0	0	0	503	177	
10	0	0	0	0	503	176	
11	0	0	0	0	502	177	
12	0	0	0	0	503	176	
13	0	0	0	0	503	176	
14	0	0	0	0	504	176	
15	0	0	0	0	504	176	
0	0	0	0	0	505	176	
1	0	0	0	0	505	176	
2	0	0	0	0	504	176	
3	0	0	0	0	504	176	
4	0	0	0	0	503	177	
5	0	0	0	0	503	176	
6	0	0	0	0	503	177	
7	0	0	0	0	503	176	
8	0	0	0	0	503	176	
9	0	0	0	0	504	176	
10	0	0	0	0	505	176	
11	0	0	0	0	506	177	
12	0	0	0	0	507	176	
13	0	0	0	0	507	176	
14	0	0	0	0	507	176	
15	0	0	0	0	506	177	
0	0	0	0	0	506	176	
1	0	0	0	0	506	176	
2	0	0	0	0	506	176	
3	0	0	0	0	505	176	
4	0	0	0	0	504	176	
5	0	0	0	0	504	176	
6	0	0	0	0	504	176	
7	0	0	0	0	505	176	
8	0	0	0	0	507	177	
9	0	0	0	0	508	176	
10	0	0	0	0	510	176	
11	0	0	0	0	511	176	
12	0	0	0	0	512	176	
13	0	0	0	0	511	177	
14	0	0	0	0	511	176	
15	0	0	0	0	510	176	
0	0	0	0	0	508	176	
1	0	0	0	0	507	176	
2	0	0	0	0	505	176	
3	0	0	0	0	504	177	
4	0	0	0	0	503	176	
5	0	0	0	0	504	177	
6	0	0	0	0	504	176	
7	0	0	0	0	504	177	
8	0	0	0	0	504	176	
9	0	0	0	0	506	176	
10	0	0	0	0	506	176	
11	0	0	0	0	505	176	
12	0	0	0	0	506	177	
13	0	0	0	0	506	176	
14	0	0	0	0	507	176	
15	0	0	0	0	508	176	
0	0	0	0	0	508	176	
1	0	0	0	0	508	176	
2	0	0	0	0	508	176	
3	0	0	0	0	510	176	
4	0	0	0	0	509	177	
5	0	0	0	0	509	176	
6	0	0	0	0	509	177	
7	0	0	0	0	509	176	
8	0	0	0	0	510	177	
9	0	0	0	0	509	176	
10	0	0	0	0	510	176	
11	0	0	0	0	510	176	
12	0	0	0	0	511	177	
13	0	0	0	0	511	176	
14	0	0	0	0	511	177	
15	0	0	0	0	510	176	
0	0	0	0	0	509	177	
1	0	0	0	0	508	176	
2	0	0	0	0	508	176	
3	0	0	0	0	509	176	
4	0	0	0	0	510	177	
5	0	0	0	0	510	176	
6	0	0	0	0	509	177	
7	0	0	0	0	509	176	
8	0	0	0	0	508	176	
9	0	0	0	0	507	176	
10	0	0	0	0	508	176	
11	0	0	0	0	509	176	
12	0	0	0	0	511	176	
13	0	0	0	0	511	176	
14	0	0	0	0	512	176	
15	0	0	0	0	515	176	
0	0	0	0	0	516	176	
1	0	0	0	0	516	176	
2	0	0	0	0	516	176	
3	0	0	0	0	515	176	
4	0	0	0	0	515	176	
5	0	0	0	0	514	176	
6	0	0	0	0	513	176	
7	0	0	0	0	511	176	
8	0	0	0	0	509	176	
9	0	0	0	0	508	176	
10	0	0	0	0	508	176	
11	0	0	0	0	510	176	
12	0	0	0	0	510	176	
13	0	0	0	0	512	176	
14	0	0	0	0	512	176	
15	0	0	0	0	512	176	
0	0	0	0	0	513	177	
1	0	0	0	0	513	176	
2	0	0	0	0	513	176	
3	0	0	0	0	513	176	
4	0	0	0	0	513	176	
5	0	0	0	0	512	176	
6	0	0	0	0	512	176	
7	0	0	0	0	512	176	
8	0	0	0	0	512	176	
9	0	0	0	0	512	177	
10	0	0	0	0	513	176	
11	0	0	0	0	512	176	
12	0	0	0	0	511	176	
13	0	0	0	0	510	176	
14	0	0	0	0	510	176	
15	0	0	0	0	509	176	
0	0	0	0	0	508	177	
1	0	0	0	0	511	176	
2	0	0	0	0	512	177	
3	0	0	0	0	512	176	
4	0	0	0	0	512	176	
5	0	0	0	0	512	176	
6	0	0	0	0	513	176	
7	0	0	0	0	515	176	
8	0	0	0	0	514	176	
9	0	0	0	0	513	176	
10	0	0	0	0	513	176	
11	0	0	0	0	512	176	
12	0	0	0	0	513	176	
13	0	0	0	0	512	176	
14	0	0	0	0	511	176	
15	0	0	0	0	509	176	
0	0	0	0	0	508	176	
1	0	0	0	0	507	177	
2	0	0	0	0	507	176	
3	0	0	0	0	507	177	
4	0	0	0	0	507	176	
5	0	0	0	0	507	177	
6	0	0	0	0	507	176	
7	0	0	0	0	507	176	
8	0	0	0	0	508	176	
9	0	0	0	0	509	176	
10	0	0	0	0	511	176	
11	0	0	0	0	511	176	
12	0	0	0	0	512	176	
13	0	0	0	0	513	176	
14	0	0	0	0	513	177	
15	0	0	0	0	513	176	
0	0	0	0	0	514	176	
1	0	0	0	0	514	176	
2	0	0	0	0	513	176	
3	0	0	0	0	513	176	
4	0	0	0	0	513	176	
5	0	0	0	0	512	176	
6	0	0	0	0	512	176	
7	0	0	0	0	514	177	
8	0	0	0	0	514	176	
9	0	0	0	0	514	176	
10	0	0	0	0	514	176	
11	0	0	0	0	515	175	
12	0	0	0	0	515	176	
13	0	0	0	0	515	176	
14	0	0	0	0	516	176	
15	0	0	0	0	515	176	
0	0	0	0	0	515	176	
1	0	0	0	0	513	176	
2	0	0	0	0	513	177	
3	0	0	0	0	513	176	
4	0	0	0	0	514	176	
5	0	0	0	0	515	176	
6	0	0	0	0	516	176	
7	0	0	0	0	515	176	
8	0	0	0	0	515	176	
9	0	0	0	0	514	176	
10	0	0	0	0	515	176	
11	0	0	0	0	516	177	
12	0	0	0	0	517	176	
13	0	0	0	0	518	176	
14	0	0	0	0	519	176	
15	0	0	0	0	519	176	
0	0	0	0	0	519	176	
1	0	0	0	0	519	176	
2	0	0	0	0	519	177	
3	0	0	0	0	518	176	
4	0	0	0	0	516	176	
5	0	0	0	0	515	176	
6	0	0	0	0	514	176	
7	0	0	0	0	514	176	
8	0	0	0	0	513	176	
9	0	0	0	0	514	176	
10	0	0	0	0	513	176	
11	0	0	0	0	512	176	
12	0	0	0	0	511	176	
13	0	0	0	0	511	177	
14	0	0	0	0	510	176	
15	0	0	0	0	510	177	
0	0	0	0	0	509	176	
1	0	0	0	0	509	176	
2	0	0	0	0	510	176	
3	0	0	0	0	509	176	
4	0	0	0	0	510	176	
5	0	0	0	0	509	176	
6	0	0	0	0	510	177	
7	0	0	0	0	510	176	
8	0	0	0	0	510	176	
9	0	0	0	0	511	176	
10	0	0	0	0	511	176	
11	0	0	0	0	511	176	
12	0	0	0	0	511	176	
13	0	0	0	0	511	176	
14	0	0	0	0	511	176	
15	0	0	0	0	511	176	
0	0	0	0	0	511	176	
1	0	0	0	0	511	176	
2	0	0	0	0	510	176	
3	0	0	0	0	508	176	
4	0	0	0	0	506	176	
5	0	0	0	0	506	177	
6	0	0	0	0	506	176	
7	0	0	0	0	505	176	
8	0	0	0	0	505	176	
9	0	0	0	0	504	176	
10	0	0	0	0	504	176	
11	0	0	0	0	505	176	
12	0	0	0	0	505	176	
13	0	0	0	0	505	176	
14	0	0	0	0	505	176	
15	0	0	0	0	505	176	
0	0	0	0	0	505	176	
1	0	0	0	0	505	176	
2	0	0	0	0	508	176	
3	0	0	0	0	508	176	
4	0	0	0	0	510	176	
5	0	0	0	0	510	176	
6	0	0	0	0	508	176	
7	0	0	0	0	506	177	
8	0	0	0	0	506	176	
9	0	0	0	0	505	176	
10	0	0	0	0	504	176	
11	0	0	0	0	505	176	
12	0	0	0	0	505	176	
13	0	0	0	0	505	176	
14	0	0	0	0	506	176	
15	0	0	0	0	508	176	
0	0	0	0	0	508	176	
1	0	0	0	0	509	176	
2	0	0	0	0	511	176	
3	0	0	0	0	512	176	
4	0	0	0	0	511	176	
5	0	0	0	0	510	176	
6	0	0	0	0	508	176	
7	0	0	0	0	505	176	
8	0	0	0	0	504	176	
9	0	0	0	0	504	176	
10	0	0	0	0	504	176	
11	0	0	0	0	503	177	
12	0	0	0	0	503	176	
13	0	0	0	0	504	176	
14	0	0	0	0	504	176	
15	0	0	0	0	505	176	
0	0	0	0	0	506	176	
1	0	0	0	0	506	176	
2	0	0	0	0	508	177	
3	0	0	0	0	508	176	
4	0	0	0	0	508	176	
5	0	0	0	0	508	176	
6	0	0	0	0	509	176	
7	0	0	0	0	510	176	
8	0	0	0	0	510	176	
9	0	0	0	0	511	176	
10	0	0	0	0	511	176	
11	0	0	0	0	511	176	
12	0	0	0	0	510	176	
13	0	0	0	0	510	176	
14	0	0	0	0	509	175	
15	0	0	0	0	509	176	
0	0	0	0	0	507	175	
1	0	0	0	0	506	176	
2	0	0	0	0	505	176	
3	0	0	0	0	504	176	
4	0	0	0	0	504	176	
5	0	0	0	0	504	176	
6	0	0	0	0	504	176	
7	0	0	0	0	504	177	
8	0	0	0	0	504	176	
9	0	0	0	0	505	176	
10	0	0	0	0	507	176	
11	0	0	0	0	508	176	
12	0	0	0	0	508	176	
13	0	0	0	0	508	176	
14	0	0	0	0	508	176	
15	0	0	0	0	510	176	
0	0	0	0	0	510	176	
1	0	0	0	0	511	176	
2	0	0	0	0	511	176	
3	0	0	0	0	511	176	
4	0	0	0	0	510	176	
5	0	0	0	0	509	176	
6	0	0	0	0	508	177	
7	0	0	0	0	507	176	
8	0	0	0	0	507	176	
9	0	0	0	0	507	176	
10	0	0	0	0	508	176	
11	0	0	0	0	510	176	
12	0	0	0	0	511	177	
13	0	0	0	0	512	176	
14	0	0	0	0	512	176	
15	0	0	0	0	512	176	
0	0	0	0	0	512	175	
1	0	0	0	0	512	176	
2	0	0	0	0	512	176	
3	0	0	0	0	511	176	
4	0	0	0	0	510	176	
5	0	0	0	0	509	176	
6	0	0	0	0	507	176	
7	0	0	0	0	506	176	
8	0	0	0	0	507	176	
9	0	0	0	0	507	176	
10	0	0	0	0	506	176	
11	0	0	0	0	507	176	
12	0	0	0	0	507	176	
13	0	0	0	0	508	176	
14	0	0	0	0	509	176	
15	0	0	0	0	510	175	
0	0	0	0	0	511	176	
1	0	0	0	0	511	176	
2	0	0	0	0	511	176	
3	0	0	0	0	511	176	
4	0	0	0	0	512	176	
5	0	0	0	0	513	176	
6	0	0	0	0	516	176	
7	0	0	0	0	518	176	
8	0	0	0	0	519	176	
9	0	0	0	0	519	176	
10	0	0	0	0	518	176	
11	0	0	0	0	519	176	
12	0	0	0	0	520	175	
13	0	0	0	0	519	176	
14	0	0	0	0	517	176	
15	0	0	0	0	515	177	
0	0	0	0	0	515	176	
1	0	0	0	0	514	177	
2	0	0	0	0	513	176	
3	0	0	0	0	513	177	
4	0	0	0	0	513	176	
5	0	0	0	0	512	175	
6	0	0	0	0	514	176	
7	0	0	0	0	516	176	
8	0	0	0	0	518	176	
9	0	0	0	0	520	176	
10	0	0	0	0	523	176	
11	0	0	0	0	524	176	
12	0	0	0	0	524	176	
13	0	0	0	0	525	176	
14	0	0	0	0	526	175	
15	0	0	0	0	526	176	
0	0	0	0	0	526	175	
1	0	0	0	0	525	176	
2	0	0	0	0	524	176	
3	0	0	0	0	520	176	
4	0	0	0	0	518	176	
5	0	0	0	0	516	176	
6	0	0	0	0	513	176	
7	0	0	0	0	512	176	
8	0	0	0	0	512	176	
9	0	0	0	0	512	176	
10	0	0	0	0	512	176	
11	0	0	0	0	510	176	
12	0	0	0	0	510	176	
13	0	0	0	0	511	176	
14	0	0	0	0	512	175	
15	0	0	0	0	513	176	
0	0	0	0	0	513	176	
1	0	0	0	0	515	176	
2	0	0	0	0	516	176	
3	0	0	0	0	518	176	
4	0	0	0	0	519	176	
5	0	0	0	0	519	176	
6	0	0	0	0	518	176	
7	0	0	0	0	516	176	
8	0	0	0	0	514	176	
9	0	0	0	0	512	176	
10	0	0	0	0	509	176	
11	0	0	0	0	507	176	
12	0	0	0	0	506	176	
13	0	0	0	0	505	176	
14	0	0	0	0	505	177	
15	0	0	0	0	505	176	
0	0	0	0	0	505	176	
1	0	0	0	0	504	176	
2	0	0	0	0	504	176	
3	0	0	0	0	503	176	
4	0	0	0	0	502	176	
5	0	0	0	0	502	176	
6	0	0	0	0	501	176	
7	0	0	0	0	501	176	
8	0	0	0	0	501	176	
9	0	0	0	0	500	176	
10	0	0	0	0	500	176	
11	0	0	0	0	501	176	
12	0	0	0	0	502	176	
13	0	0	0	0	504	176	
14	0	0	0	0	505	176	
15	0	0	0	0	506	176	
0	0	0	0	0	507	176	
1	0	0	0	0	507	176	
2	0	0	0	0	505	176	
3	0	0	0	0	505	176	
4	0	0	0	0	506	177	
5	0	0	0	0	506	176	
6	0	0	0	0	506	176	
7	0	0	0	0	508	176	
8	0	0	0	0	509	176	
9	0	0	0	0	511	176	
10	0	0	0	0	512	176	
11	0	0	0	0	513	176	
12	0	0	0	0	512	176	
13	0	0	0	0	511	176	
14	0	0	0	0	509	176	
15	0	0	0	0	507	176	
0	0	0	0	0	506	176	
1	0	0	0	0	504	176	
2	0	0	0	0	504	176	
3	0	0	0	0	504	176	
4	0	0	0	0	504	176	
5	0	0	0	0	504	176	
6	0	0	0	0	504	176	
7	0	0	0	0	502	176	
8	0	0	0	0	501	176	
9	0	0	0	0	502	176	
10	0	0	0	0	502	176	
11	0	0	0	0	503	176	
12	0	0	0	0	504	176	
13	0	0	0	0	505	176	
14	0	0	0	0	507	176	
15	0	0	0	0	508	176	
0	0	0	0	0	508	176	
1	0	0	0	0	509	176	
2	0	0	0	0	509	176	
3	0	0	0	0	510	176	
4	0	0	0	0	509	177	
5	0	0	0	0	509	176	
6	0	0	0	0	508	176	
7	0	0	0	0	508	176	
8	0	0	0	0	508	176	
9	0	0	0	0	508	176	
10	0	0	0	0	505	175	
11	0	0	0	0	504	176	
12	0	0	0	0	503	176	
13	0	0	0	0	501	176	
14	0	0	0	0	499	176	
15	0	0	0	0	498	176	
0	0	0	0	0	497	176	
1	0	0	0	0	496	176	
2	0	0	0	0	495	176	
3	0	0	0	0	496	176	
4	0	0	0	0	497	176	
5	0	0	0	0	499	176	
6	0	0	0	0	501	176	
7	0	0	0	0	505	176	
8	0	0	0	0	510	176	
9	0	0	0	0	517	176	
10	0	0	0	0	527	176	
11	0	0	0	0	536	176	
12	0	0	0	0	546	175	
13	0	0	0	0	557	176	
14	0	0	0	0	568	175	
15	0	0	0	0	579	176	
0	0	0	0	0	591	175	
1	0	0	0	0	602	176	
2	0	0	0	0	611	176	
3	0	0	0	0	618	175	
4	0	0	0	0	624	176	
5	0	0	0	0	627	175	
6	0	0	0	0	630	176	
7	0	0	0	0	632	176	
8	0	0	0	0	632	175	
9	0	0	0	0	632	176	
10	0	0	0	0	631	176	
11	0	0	0	0	629	176	
12	0	0	0	0	627	175	
13	0	0	0	0	625	176	
14	0	0	0	0	622	175	
15	0	0	0	0	618	176	
0	0	0	0	0	613	175	
1	0	0	0	0	608	176	
2	0	0	0	0	600	175	
3	0	0	0	0	593	176	
4	0	0	0	0	587	175	
5	0	0	0	0	580	176	
6	0	0	0	0	572	176	
7	0	0	0	0	563	176	
8	0	0	0	0	554	176	
9	0	0	0	0	546	175	
10	0	0	0	0	537	176	
11	0	0	0	0	527	175	
12	0	0	0	0	516	176	
13	0	0	0	0	506	176	
14	0	0	0	0	496	176	
15	0	0	0	0	488	176	
0	0	0	0	0	483	176	
1	0	0	0	0	478	176	
2	0	0	0	0	473	176	
3	0	0	0	0	470	176	
4	0	0	0	0	467	176	
5	0	0	0	0	464	176	
6	0	0	0	0	463	176	
7	0	0	0	0	460	177	
8	0	0	0	0	459	176	
9	0	0	0	0	459	177	
10	0	0	0	0	459	176	
11	0	0	0	0	461	176	
12	0	0	0	0	463	176	
13	0	0	0	0	465	176	
14	0	0	0	0	467	176	
15	0	0	0	0	469	176	
0	0	0	0	0	471	176	
1	0	0	0	0	473	176	
2	0	0	0	0	475	176	
3	0	0	0	0	477	176	
4	0	0	0	0	478	176	
5	0	0	0	0	478	176	
6	0	0	0	0	477	176	
7	0	0	0	0	476	176	
8	0	0	0	0	474	176	
9	0	0	0	0	474	176	
10	0	0	0	0	474	176	
11	0	0	0	0	475	176	
12	0	0	0	0	476	176	
13	0	0	0	0	476	176	
14	0	0	0	0	476	176	
15	0	0	0	0	476	176	
0	0	0	0	0	478	176	
1	0	0	0	0	479	176	
2	0	0	0	0	479	176	
3	0	0	0	0	479	176	
4	0	0	0	0	480	176	
5	0	0	0	0	481	176	
6	0	0	0	0	481	177	
7	0	0	0	0	482	176	
8	0	0	0	0	483	176	
9	0	0	0	0	485	176	
10	0	0	0	0	485	176	
11	0	0	0	0	486	176	
12	0	0	0	0	486	176	
13	0	0	0	0	487	176	
14	0	0	0	0	487	176	
15	0	0	0	0	487	176	
0	0	0	0	0	488	176	
1	0	0	0	0	488	175	
2	0	0	0	0	487	176	
3	0	0	0	0	486	176	
4	0	0	0	0	484	176	
5	0	0	0	0	484	176	
6	0	0	0	0	483	176	
7	0	0	0	0	483	176	
8	0	0	0	0	481	176	
9	0	0	0	0	481	176	
10	0	0	0	0	480	176	
11	0	0	0	0	481	176	
12	0	0	0	0	482	176	
13	0	0	0	0	484	176	
14	0	0	0	0	484	176	
15	0	0	0	0	485	176	
0	0	0	0	0	487	176	
1	0	0	0	0	487	176	
2	0	0	0	0	487	176	
3	0	0	0	0	488	176	
4	0	0	0	0	489	176	
5	0	0	0	0	489	176	
6	0	0	0	0	490	176	
7	0	0	0	0	491	177	
8	0	0	0	0	492	176	
9	0	0	0	0	493	176	
10	0	0	0	0	493	176	
11	0	0	0	0	494	176	
12	0	0	0	0	495	176	
13	0	0	0	0	496	176	
14	0	0	0	0	497	176	
15	0	0	0	0	497	176	
0	0	0	0	0	497	176	
1	0	0	0	0	497	176	
2	0	0	0	0	496	176	
3	0	0	0	0	496	176	
4	0	0	0	0	496	176	
5	0	0	0	0	496	176	
6	0	0	0	0	494	175	
7	0	0	0	0	492	176	
8	0	0	0	0	491	176	
9	0	0	0	0	489	176	
10	0	0	0	0	489	176	
11	0	0	0	0	489	177	
12	0	0	0	0	490	176	
13	0	0	0	0	491	176	
14	0	0	0	0	492	176	
15	0	0	0	0	493	177	
0	0	0	0	0	494	176	
1	0	0	0	0	495	176	
2	0	0	0	0	497	176	
3	0	0	0	0	498	176	
4	0	0	0	0	499	176	
5	0	0	0	0	500	176	
6	0	0	0	0	502	176	
7	0	0	0	0	503	176	
8	0	0	0	0	503	176	
9	0	0	0	0	503	175	
10	0	0	0	0	502	176	
11	0	0	0	0	502	176	
12	0	0	0	0	501	176	
13	0	0	0	0	500	175	
14	0	0	0	0	499	176	
15	0	0	0	0	499	176	
0	0	0	0	0	499	176	
1	0	0	0	0	500	176	
2	0	0	0	0	501	176	
3	0	0	0	0	503	176	
4	0	0	0	0	504	176	
5	0	0	0	0	505	176	
6	0	0	0	0	505	176	
7	0	0	0	0	504	176	
8	0	0	0	0	502	176	
9	0	0	0	0	502	176	
10	0	0	0	0	502	176	
11	0	0	0	0	502	176	
12	0	0	0	0	503	176	
13	0	0	0	0	504	176	
14	0	0	0	0	504	176	
15	0	0	0	0	505	176	
0	0	0	0	0	505	176	
1	0	0	0	0	504	176	
2	0	0	0	0	504	176	
3	0	0	0	0	504	176	
4	0	0	0	0	503	176	
5	0	0	0	0	502	176	
6	0	0	0	0	501	176	
7	0	0	0	0	500	176	
8	0	0	0	0	500	176	
9	0	0	0	0	500	176	
10	0	0	0	0	501	176	
11	0	0	0	0	502	176	
12	0	0	0	0	504	176	
13	0	0	0	0	506	175	
14	0	0	0	0	508	176	
15	0	0	0	0	508	176	
0	0	0	0	0	508	176	
1	0	0	0	0	508	176	
2	0	0	0	0	508	176	
3	0	0	0	0	506	176	
4	0	0	0	0	505	176	
5	0	0	0	0	504	176	
6	0	0	0	0	504	176	
7	0	0	0	0	506	176	
8	0	0	0	0	507	176	
9	0	0	0	0	507	176	
10	0	0	0	0	508	176	
11	0	0	0	0	510	176	
12	0	0	0	0	512	176	
13	0	0	0	0	513	175	
14	0	0	0	0	513	176	
15	0	0	0	0	512	175	
0	0	0	0	0	513	176	
1	0	0	0	0	513	176	
2	0	0	0	0	514	176	
3	0	0	0	0	514	176	
4	0	0	0	0	515	176	
5	0	0	0	0	516	176	
6	0	0	0	0	516	175	
7	0	0	0	0	516	176	
8	0	0	0	0	515	176	
9	0	0	0	0	514	176	
10	0	0	0	0	514	176	
11	0	0	0	0	514	176	
12	0	0	0	0	515	176	
13	0	0	0	0	516	175	
14	0	0	0	0	515	176	
15	0	0	0	0	515	176	
0	0	0	0	0	513	176	
1	0	0	0	0	513	176	
2	0	0	0	0	512	176	
3	0	0	0	0	512	176	
4	0	0	0	0	511	175	
5	0	0	0	0	510	176	
6	0	0	0	0	510	176	
7	0	0	0	0	511	176	
8	0	0	0	0	512	176	
9	0	0	0	0	514	175	
10	0	0	0	0	515	176	
11	0	0	0	0	515	176	
12	0	0	0	0	515	176	
13	0	0	0	0	515	176	
14	0	0	0	0	516	176	
15	0	0	0	0	517	176	
0	0	0	0	0	517	176	
1	0	0	0	0	519	175	
2	0	0	0	0	519	176	
3	0	0	0	0	522	175	
4	0	0	0	0	523	176	
5	0	0	0	0	523	176	
6	0	0	0	0	524	176	
7	0	0	0	0	524	176	
8	0	0	0	0	524	175	
9	0	0	0	0	524	176	
10	0	0	0	0	525	175	
11	0	0	0	0	526	176	
12	0	0	0	0	527	176	
13	0	0	0	0	526	176	
14	0	0	0	0	525	176	
15	0	0	0	0	524	175	
0	0	0	0	0	525	176	
1	0	0	0	0	525	176	
2	0	0	0	0	526	176	
3	0	0	0	0	527	176	
4	0	0	0	0	527	175	
5	0	0	0	0	527	176	
6	0	0	0	0	529	176	
7	0	0	0	0	531	176	
8	0	0	0	0	531	176	
9	0	0	0	0	534	175	
10	0	0	0	0	536	176	
11	0	0	0	0	537	175	
12	0	0	0	0	538	176	
13	0	0	0	0	539	176	
14	0	0	0	0	539	176	
15	0	0	0	0	539	176	
0	0	0	0	0	538	175	
1	0	0	0	0	537	176	
2	0	0	0	0	536	175	
3	0	0	0	0	536	176	
4	0	0	0	0	538	176	
5	0	0	0	0	539	176	
6	0	0	0	0	538	176	
7	0	0	0	0	537	175	
8	0	0	0	0	537	176	
9	0	0	0	0	538	175	
10	0	0	0	0	538	176	
11	0	0	0	0	538	175	
12	0	0	0	0	537	176	
13	0	0	0	0	536	175	
14	0	0	0	0	536	176	
15	0	0	0	0	536	175	
0	0	0	0	0	536	176	
1	0	0	0	0	537	176	
2	0	0	0	0	537	175	
3	0	0	0	0	536	176	
4	0	0	0	0	535	175	
5	0	0	0	0	535	176	
6	0	0	0	0	535	176	
7	0	0	0	0	534	175	
8	0	0	0	0	534	176	
9	0	0	0	0	534	175	
10	0	0	0	0	532	176	
11	0	0	0	0	530	176	
12	0	0	0	0	528	175	
13	0	0	0	0	528	176	
14	0	0	0	0	527	175	
15	0	0	0	0	527	176	
0	0	0	0	0	527	176	
1	0	0	0	0	527	176	
2	0	0	0	0	526	176	
3	0	0	0	0	523	175	
4	0	0	0	0	521	176	
5	0	0	0	0	520	176	
6	0	0	0	0	521	176	
7	0	0	0	0	519	176	
8	0	0	0	0	519	175	
9	0	0	0	0	519	176	
10	0	0	0	0	517	176	
11	0	0	0	0	514	176	
12	0	0	0	0	512	176	
13	0	0	0	0	510	176	
14	0	0	0	0	507	176	
15	0	0	0	0	504	176	
0	0	0	0	0	501	176	
1	0	0	0	0	498	176	
2	0	0	0	0	497	176	
3	0	0	0	0	496	175	
4	0	0	0	0	495	176	
5	0	0	0	0	493	176	
6	0	0	0	0	492	176	
7	0	0	0	0	491	176	
8	0	0	0	0	489	176	
9	0	0	0	0	487	176	
10	0	0	0	0	486	175	
11	0	0	0	0	485	176	
12	0	0	0	0	483	176	
13	0	0	0	0	482	176	
14	0	0	0	0	479	176	
15	0	0	0	0	477	176	
0	0	0	0	0	475	176	
1	0	0	0	0	474	175	
2	0	0	0	0	473	176	
3	0	0	0	0	472	176	
4	0	0	0	0	472	176	
5	0	0	0	0	473	176	
6	0	0	0	0	473	176	
7	0	0	0	0	474	176	
8	0	0	0	0	473	176	
9	0	0	0	0	474	176	
10	0	0	0	0	475	176	
11	0	0	0	0	475	176	
12	0	0	0	0	476	176	
13	0	0	0	0	475	176	
14	0	0	0	0	475	176	
15	0	0	0	0	474	176	
0	0	0	0	0	473	176	
1	0	0	0	0	472	176	
2	0	0	0	0	470	176	
3	0	0	0	0	469	176	
4	0	0	0	0	468	176	
5	0	0	0	0	467	176	
6	0	0	0	0	467	176	
7	0	0	0	0	467	176	
8	0	0	0	0	468	176	
9	0	0	0	0	468	176	
10	0	0	0	0	469	176	
11	0	0	0	0	470	176	
12	0	0	0	0	470	176	
13	0	0	0	0	470	176	
14	0	0	0	0	470	176	
15	0	0	0	0	472	176	
0	0	0	0	0	473	176	
1	0	0	0	0	473	176	
2	0	0	0	0	473	176	
3	0	0	0	0	472	176	
4	0	0	0	0	472	176	
5	0	0	0	0	472	176	
6	0	0	0	0	471	176	
7	0	0	0	0	472	176	
8	0	0	0	0	472	176	
9	0	0	0	0	473	176	
10	0	0	0	0	474	176	
11	0	0	0	0	475	176	
12	0	0	0	0	478	176	
13	0	0	0	0	480	176	
14	0	0	0	0	480	176	
15	0	0	0	0	480	176	
0	0	0	0	0	480	176	
1	0	0	0	0	480	176	
2	0	0	0	0	480	176	
3	0	0	0	0	480	176	
4	0	0	0	0	481	176	
5	0	0	0	0	482	176	
6	0	0	0	0	482	176	
7	0	0	0	0	481	176	
8	0	0	0	0	480	176	
9	0	0	0	0	480	176	
10	0	0	0	0	478	176	
11	0	0	0	0	478	175	
12	0	0	0	0	478	176	
13	0	0	0	0	479	176	
14	0	0	0	0	479	176	
15	0	0	0	0	479	176	
0	0	0	0	0	478	175	
1	0	0	0	0	479	176	
2	0	0	0	0	480	176	
3	0	0	0	0	482	176	
4	0	0	0	0	484	176	
5	0	0	0	0	487	176	
6	0	0	0	0	489	176	
7	0	0	0	0	491	175	
8	0	0	0	0	492	176	
9	0	0	0	0	493	176	
10	0	0	0	0	494	176	
11	0	0	0	0	496	176	
12	0	0	0	0	497	176	
13	0	0	0	0	497	176	
14	0	0	0	0	497	176	
15	0	0	0	0	497	176	
0	0	0	0	0	497	176	
1	0	0	0	0	497	176	
2	0	0	0	0	496	176	
3	0	0	0	0	494	176	
4	0	0	0	0	492	175	
5	0	0	0	0	491	176	
6	0	0	0	0	488	175	
7	0	0	0	0	487	176	
8	0	0	0	0	487	175	
9	0	0	0	0	487	176	
10	0	0	0	0	487	176	
11	0	0	0	0	487	176	
12	0	0	0	0	488	176	
13	0	0	0	0	489	176	
14	0	0	0	0	489	176	
15	0	0	0	0	489	175	
0	0	0	0	0	489	176	
1	0	0	0	0	490	176	
2	0	0	0	0	491	176	
3	0	0	0	0	492	176	
4	0	0	0	0	494	175	
5	0	0	0	0	496	176	
6	0	0	0	0	497	176	
7	0	0	0	0	497	176	
8	0	0	0	0	496	176	
9	0	0	0	0	499	176	
10	0	0	0	0	499	176	
11	0	0	0	0	498	175	
12	0	0	0	0	497	176	
13	0	0	0	0	497	175	
14	0	0	0	0	497	176	
15	0	0	0	0	497	175	
0	0	0	0	0	497	176	
1	0	0	0	0	497	175	
2	0	0	0	0	498	176	
3	0	0	0	0	500	175	
4	0	0	0	0	502	176	
5	0	0	0	0	503	176	
6	0	0	0	0	503	176	
7	0	0	0	0	503	176	
8	0	0	0	0	502	176	
9	0	0	0	0	502	176	
10	0	0	0	0	503	175	
11	0	0	0	0	503	176	
12	0	0	0	0	504	175	
13	0	0	0	0	504	176	
14	0	0	0	0	504	176	
15	0	0	0	0	503	176	
0	0	0	0	0	502	176	
1	0	0	0	0	500	176	
2	0	0	0	0	500	176	
3	0	0	0	0	500	176	
4	0	0	0	0	500	176	
5	0	0	0	0	500	175	
6	0	0	0	0	500	176	
7	0	0	0	0	502	176	
8	0	0	0	0	501	176	
9	0	0	0	0	500	176	
10	0	0	0	0	500	175	
11	0	0	0	0	500	176	
12	0	0	0	0	498	175	
13	0	0	0	0	498	176	
14	0	0	0	0	497	176	
15	0	0	0	0	497	176	
0	0	0	0	0	499	176	
1	0	0	0	0	500	175	
2	0	0	0	0	501	176	
3	0	0	0	0	503	175	
4	0	0	0	0	504	176	
5	0	0	0	0	505	176	
6	0	0	0	0	505	176	
7	0	0	0	0	506	176	
8	0	0	0	0	507	176	
9	0	0	0	0	507	176	
10	0	0	0	0	508	175	
11	0	0	0	0	508	176	
12	0	0	0	0	507	175	
13	0	0	0	0	507	176	
14	0	0	0	0	508	176	
15	0	0	0	0	508	176	
0	0	0	0	0	507	176	
1	0	0	0	0	506	175	
2	0	0	0	0	507	176	
3	0	0	0	0	508	176	
4	0	0	0	0	509	176	
5	0	0	0	0	510	176	
6	0	0	0	0	510	175	
7	0	0	0	0	510	176	
8	0	0	0	0	511	175	
9	0	0	0	0	513	176	
10	0	0	0	0	513	175	
11	0	0	0	0	515	176	
12	0	0	0	0	515	176	
13	0	0	0	0	514	176	
14	0	0	0	0	513	176	
15	0	0	0	0	511	175	
0	0	0	0	0	507	176	
1	0	0	0	0	504	175	
2	0	0	0	0	502	176	
3	0	0	0	0	502	175	
4	0	0	0	0	502	176	
5	0	0	0	0	504	175	
6	0	0	0	0	505	176	
7	0	0	0	0	505	176	
8	0	0	0	0	507	176	
9	0	0	0	0	507	176	
10	0	0	0	0	509	176	
11	0	0	0	0	511	176	
12	0	0	0	0	512	176	
13	0	0	0	0	511	176	
14	0	0	0	0	510	175	
15	0	0	0	0	508	176	
0	0	0	0	0	508	176	
1	0	0	0	0	507	176	
2	0	0	0	0	505	176	
3	0	0	0	0	505	176	
4	0	0	0	0	504	176	
5	0	0	0	0	505	175	
6	0	0	0	0	504	176	
7	0	0	0	0	504	175	
8	0	0	0	0	505	176	
9	0	0	0	0	507	175	
10	0	0	0	0	509	176	
11	0	0	0	0	511	175	
12	0	0	0	0	512	176	
13	0	0	0	0	513	175	
14	0	0	0	0	513	176	
15	0	0	0	0	513	176	
0	0	0	0	0	514	176	
1	0	0	0	0	514	176	
2	0	0	0	0	513	176	
3	0	0	0	0	512	176	
4	0	0	0	0	511	176	
5	0	0	0	0	511	176	
6	0	0	0	0	511	176	
7	0	0	0	0	510	176	
8	0	0	0	0	510	175	
9	0	0	0	0	508	176	
10	0	0	0	0	508	175	
11	0	0	0	0	508	176	
12	0	0	0	0	510	176	
13	0	0	0	0	512	176	
14	0	0	0	0	512	176	
15	0	0	0	0	512	176	
0	0	0	0	0	512	176	
1	0	0	0	0	512	176	
2	0	0	0	0	513	176	
3	0	0	0	0	512	176	
4	0	0	0	0	511	176	
5	0	0	0	0	512	175	
6	0	0	0	0	512	176	
7	0	0	0	0	513	175	
8	0	0	0	0	513	176	
9	0	0	0	0	515	175	
10	0	0	0	0	515	176	
11	0	0	0	0	516	176	
12	0	0	0	0	517	176	
13	0	0	0	0	517	176	
14	0	0	0	0	518	176	
15	0	0	0	0	518	176	
0	0	0	0	0	518	175	
1	0	0	0	0	516	176	
2	0	0	0	0	516	176	
3	0	0	0	0	515	176	
4	0	0	0	0	513	176	
5	0	0	0	0	512	176	
6	0	0	0	0	511	176	
7	0	0	0	0	512	175	
8	0	0	0	0	512	176	
9	0	0	0	0	513	175	
10	0	0	0	0	512	176	
11	0	0	0	0	512	175	
12	0	0	0	0	512	176	
13	0	0	0	0	512	176	
14	0	0	0	0	513	176	
15	0	0	0	0	513	176	
0	0	0	0	0	513	175	
1	0	0	0	0	512	176	
2	0	0	0	0	510	176	
3	0	0	0	0	511	176	
4	0	0	0	0	512	176	
5	0	0	0	0	512	175	
6	0	0	0	0	513	176	
7	0	0	0	0	514	175	
8	0	0	0	0	516	176	
9	0	0	0	0	517	176	
10	0	0	0	0	517	175	
11	0	0	0	0	516	176	
12	0	0	0	0	515	175	
13	0	0	0	0	514	176	
14	0	0	0	0	512	175	
15	0	0	0	0	510	176	
0	0	0	0	0	510	175	
1	0	0	0	0	509	176	
2	0	0	0	0	508	175	
3	0	0	0	0	507	176	
4	0	0	0	0	507	176	
5	0	0	0	0	508	176	
6	0	0	0	0	506	176	
7	0	0	0	0	507	176	
8	0	0	0	0	508	175	
9	0	0	0	0	509	176	
10	0	0	0	0	509	175	
11	0	0	0	0	508	176	
12	0	0	0	0	508	175	
13	0	0	0	0	508	176	
14	0	0	0	0	505	176	
15	0	0	0	0	505	176	
0	0	0	0	0	505	176	
1	0	0	0	0	506	176	
2	0	0	0	0	507	176	
3	0	0	0	0	510	175	
4	0	0	0	0	512	176	
5	0	0	0	0	515	175	
6	0	0	0	0	516	176	
7	0	0	0	0	516	175	
8	0	0	0	0	515	176	
9	0	0	0	0	514	176	
10	0	0	0	0	513	176	
11	0	0	0	0	513	176	
12	0	0	0	0	513	175	
13	0	0	0	0	513	176	
14	0	0	0	0	514	175	
15	0	0	0	0	515	176	
0	0	0	0	0	516	175	
1	0	0	0	0	517	176	
2	0	0	0	0	516	176	
3	0	0	0	0	515	175	
4	0	0	0	0	515	176	
5	0	0	0	0	515	175	
6	0	0	0	0	513	176	
7	0	0	0	0	512	176	
8	0	0	0	0	512	176	
9	0	0	0	0	512	176	
10	0	0	0	0	512	176	
11	0	0	0	0	511	176	
12	0	0	0	0	511	175	
13	0	0	0	0	511	176	
14	0	0	0	0	512	175	
15	0	0	0	0	511	176	
0	0	0	0	0	511	175	
1	0	0	0	0	511	176	
2	0	0	0	0	511	176	
3	0	0	0	0	509	176	
4	0	0	0	0	509	176	
5	0	0	0	0	510	176	
6	0	0	0	0	510	176	
7	0	0	0	0	510	176	
8	0	0	0	0	510	176	
9	0	0	0	0	510	175	
10	0	0	0	0	510	176	
11	0	0	0	0	509	175	
12	0	0	0	0	508	176	
13	0	0	0	0	508	176	
14	0	0	0	0	507	176	
15	0	0	0	0	506	176	
0	0	0	0	0	506	176	
1	0	0	0	0	506	176	
2	0	0	0	0	505	176	
3	0	0	0	0	504	176	
4	0	0	0	0	504	175	
5	0	0	0	0	504	176	
6	0	0	0	0	506	176	
7	0	0	0	0	507	176	
8	0	0	0	0	509	176	
9	0	0	0	0	511	176	
10	0	0	0	0	512	176	
11	0	0	0	0	512	175	
12	0	0	0	0	512	176	
13	0	0	0	0	511	175	
14	0	0	0	0	510	176	
15	0	0	0	0	509	176	
0	0	0	0	0	509	176	
1	0	0	0	0	508	176	
2	0	0	0	0	509	176	
3	0	0	0	0	509	176	
4	0	0	0	0	509	175	
5	0	0	0	0	509	176	
6	0	0	0	0	508	175	
7	0	0	0	0	507	176	
8	0	0	0	0	506	176	
9	0	0	0	0	505	176	
10	0	0	0	0	505	176	
11	0	0	0	0	505	175	
12	0	0	0	0	505	176	
13	0	0	0	0	504	175	
14	0	0	0	0	503	176	
15	0	0	0	0	504	176	
0	0	0	0	0	504	176	
1	0	0	0	0	504	176	
2	0	0	0	0	503	175	
3	0	0	0	0	503	176	
4	0	0	0	0	503	175	
5	0	0	0	0	503	176	
6	0	0	0	0	502	176	
7	0	0	0	0	502	176	
8	0	0	0	0	503	176	
9	0	0	0	0	504	176	
10	0	0	0	0	504	176	
11	0	0	0	0	504	176	
12	0	0	0	0	506	176	
13	0	0	0	0	507	175	
14	0	0	0	0	508	176	
15	0	0	0	0	506	175	
0	0	0	0	0	505	176	
1	0	0	0	0	504	176	
2	0	0	0	0	501	176	
3	0	0	0	0	500	176	
4	0	0	0	0	500	176	
5	0	0	0	0	500	176	
6	0	0	0	0	499	175	
7	0	0	0	0	499	176	
8	0	0	0	0	499	175	
9	0	0	0	0	499	176	
10	0	0	0	0	500	176	
11	0	0	0	0	500	176	
12	0	0	0	0	501	176	
13	0	0	0	0	501	175	
14	0	0	0	0	501	176	
15	0	0	0	0	501	175	
0	0	0	0	0	500	176	
1	0	0	0	0	501	175	
2	0	0	0	0	503	176	
3	0	0	0	0	504	175	
4	0	0	0	0	505	176	
5	0	0	0	0	507	176	
6	0	0	0	0	508	176	
7	0	0	0	0	508	176	
8	0	0	0	0	509	176	
9	0	0	0	0	510	176	
10	0	0	0	0	509	176	
11	0	0	0	0	509	176	
12	0	0	0	0	509	175	
13	0	0	0	0	508	176	
14	0	0	0	0	507	175	
15	0	0	0	0	506	176	
0	0	0	0	0	504	175	
1	0	0	0	0	504	176	
2	0	0	0	0	503	176	
3	0	0	0	0	502	176	
4	0	0	0	0	500	176	
5	0	0	0	0	499	176	
6	0	0	0	0	500	175	
7	0	0	0	0	501	176	
8	0	0	0	0	502	175	
9	0	0	0	0	503	176	
10	0	0	0	0	504	175	
11	0	0	0	0	506	176	
12	0	0	0	0	508	176	
13	0	0	0	0	510	176	
14	0	0	0	0	509	176	
15	0	0	0	0	509	175	
0	0	0	0	0	509	176	
1	0	0	0	0	509	175	
2	0	0	0	0	510	176	
3	0	0	0	0	510	175	
4	0	0	0	0	509	176	
5	0	0	0	0	509	175	
6	0	0	0	0	508	176	
7	0	0	0	0	508	176	
8	0	0	0	0	510	176	
9	0	0	0	0	509	176	
10	0	0	0	0	508	175	
11	0	0	0	0	508	176	
12	0	0	0	0	507	175	
13	0	0	0	0	507	176	
14	0	0	0	0	506	175	
15	0	0	0	0	507	176	
0	0	0	0	0	506	176	
1	0	0	0	0	507	176	
2	0	0	0	0	506	176	
3	0	0	0	0	505	175	
4	0	0	0	0	506	176	
5	0	0	0	0	506	175	
6	0	0	0	0	505	176	
7	0	0	0	0	508	176	
8	0	0	0	0	509	176	
9	0	0	0	0	510	176	
10	0	0	0	0	511	176	
11	0	0	0	0	512	176	
12	0	0	0	0	513	175	
13	0	0	0	0	513	176	
14	0	0	0	0	513	175	
15	0	0	0	0	514	176	
0	0	0	0	0	513	176	
1	0	0	0	0	513	176	
2	0	0	0	0	512	176	
3	0	0	0	0	512	176	
4	0	0	0	0	512	176	
5	0	0	0	0	513	175	
6	0	0	0	0	512	176	
7	0	0	0	0	511	175	
8	0	0	0	0	511	176	
9	0	0	0	0	511	176	
10	0	0	0	0	510	176	
11	0	0	0	0	508	175	
12	0	0	0	0	508	176	
13	0	0	0	0	508	175	
14	0	0	0	0	507	176	
15	0	0	0	0	505	175	
0	0	0	0	0	503	176	
1	0	0	0	0	502	176	
2	0	0	0	0	502	176	
3	0	0	0	0	502	176	
4	0	0	0	0	503	175	
5	0	0	0	0	504	176	
6	0	0	0	0	506	175	
7	0	0	0	0	508	176	
8	0	0	0	0	508	176	
9	0	0	0	0	509	176	
10	0	0	0	0	510	176	
11	0	0	0	0	512	175	
12	0	0	0	0	514	176	
13	0	0	0	0	515	175	
14	0	0	0	0	515	176	
15	0	0	0	0	515	176	
0	0	0	0	0	515	176	
1	0	0	0	0	515	176	
2	0	0	0	0	514	176	
3	0	0	0	0	513	176	
4	0	0	0	0	510	176	
5	0	0	0	0	508	176	
6	0	0	0	0	508	176	
7	0	0	0	0	508	176	
8	0	0	0	0	510	176	
9	0	0	0	0	510	176	
10	0	0	0	0	510	175	
11	0	0	0	0	510	176	
12	0	0	0	0	511	176	
13	0	0	0	0	512	176	
14	0	0	0	0	512	176	
15	0	0	0	0	512	175	
0	0	0	0	0	511	176	
1	0	0	0	0	512	175	
2	0	0	0	0	513	176	
3	0	0	0	0	512	176	
4	0	0	0	0	510	176	
5	0	0	0	0	509	176	
6	0	0	0	0	508	175	
7	0	0	0	0	509	176	
8	0	0	0	0	510	175	
9	0	0	0	0	509	176	
10	0	0	0	0	509	176	
11	0	0	0	0	508	176	
12	0	0	0	0	507	176	
13	0	0	0	0	508	175	
14	0	0	0	0	510	176	
15	0	0	0	0	511	175	
0	0	0	0	0	512	176	
1	0	0	0	0	514	176	
2	0	0	0	0	516	176	
3	0	0	0	0	516	176	
4	0	0	0	0	516	175	
5	0	0	0	0	515	176	
6	0	0	0	0	514	175	
7	0	0	0	0	513	176	
8	0	0	0	0	512	176	
9	0	0	0	0	512	176	
10	0	0	0	0	513	176	
11	0	0	0	0	512	175	
12	0	0	0	0	511	176	
13	0	0	0	0	510	175	
14	0	0	0	0	509	176	
15	0	0	0	0	509	176	
0	0	0	0	0	508	176	
1	0	0	0	0	507	176	
2	0	0	0	0	506	176	
3	0	0	0	0	505	176	
4	0	0	0	0	505	176	
5	0	0	0	0	505	176	
6	0	0	0	0	506	176	
7	0	0	0	0	506	176	
8	0	0	0	0	507	175	
9	0	0	0	0	508	176	
10	0	0	0	0	509	176	
11	0	0	0	0	510	176	
12	0	0	0	0	509	176	
13	0	0	0	0	509	176	
14	0	0	0	0	508	176	
15	0	0	0	0	508	175	
0	0	0	0	0	508	176	
1	0	0	0	0	507	175	
2	0	0	0	0	506	176	
3	0	0	0	0	505	175	
4	0	0	0	0	505	176	
5	0	0	0	0	505	176	
6	0	0	0	0	506	176	
7	0	0	0	0	507	176	
8	0	0	0	0	506	175	
9	0	0	0	0	507	176	
10	0	0	0	0	507	175	
11	0	0	0	0	509	176	
12	0	0	0	0	510	176	
13	0	0	0	0	509	176	
14	0	0	0	0	508	176	
15	0	0	0	0	508	176	
0	0	0	0	0	506	176	
1	0	0	0	0	506	176	
2	0	0	0	0	507	176	
3	0	0	0	0	507	176	
4	0	0	0	0	506	176	
5	0	0	0	0	504	175	
6	0	0	0	0	504	176	
7	0	0	0	0	504	175	
8	0	0	0	0	505	176	
9	0	0	0	0	507	175	
10	0	0	0	0	508	176	
11	0	0	0	0	510	175	
12	0	0	0	0	511	176	
13	0	0	0	0	511	176	
14	0	0	0	0	512	176	
15	0	0	0	0	513	175	
0	0	0	0	0	514	176	
1	0	0	0	0	515	175	
2	0	0	0	0	515	176	
3	0	0	0	0	516	175	
4	0	0	0	0	517	176	
5	0	0	0	0	517	176	
6	0	0	0	0	516	176	
7	0	0	0	0	516	176	
8	0	0	0	0	518	175	
9	0	0	0	0	517	176	
10	0	0	0	0	516	175	
11	0	0	0	0	513	176	
12	0	0	0	0	513	176	
13	0	0	0	0	513	176	
14	0	0	0	0	512	176	
15	0	0	0	0	511	175	
0	0	0	0	0	509	176	
1	0	0	0	0	509	175	
2	0	0	0	0	510	176	
3	0	0	0	0	511	176	
4	0	0	0	0	513	176	
5	0	0	0	0	512	176	
6	0	0	0	0	512	175	
7	0	0	0	0	513	176	
8	0	0	0	0	514	175	
9	0	0	0	0	514	176	
10	0	0	0	0	513	176	
11	0	0	0	0	512	175	
12	0	0	0	0	510	176	
13	0	0	0	0	509	175	
14	0	0	0	0	508	176	
15	0	0	0	0	508	176	
0	0	0	0	0	508	176	
1	0	0	0	0	509	175	
2	0	0	0	0	510	176	
3	0	0	0	0	510	176	
4	0	0	0	0	511	176	
5	0	0	0	0	511	176	
6	0	0	0	0	512	175	
7	0	0	0	0	512	176	
8	0	0	0	0	512	175	
9	0	0	0	0	512	176	
10	0	0	0	0	512	176	
11	0	0	0	0	512	176	
12	0	0	0	0	513	176	
13	0	0	0	0	514	175	
14	0	0	0	0	513	176	
15	0	0	0	0	512	175	
0	0	0	0	0	510	176	
1	0	0	0	0	508	175	
2	0	0	0	0	507	176	
3	0	0	0	0	507	176	
4	0	0	0	0	507	176	
5	0	0	0	0	508	176	
6	0	0	0	0	508	175	
7	0	0	0	0	510	176	
8	0	0	0	0	511	176	
9	0	0	0	0	512	176	
10	0	0	0	0	511	176	
11	0	0	0	0	511	176	
12	0	0	0	0	512	176	
13	0	0	0	0	511	175	
14	0	0	0	0	510	176	
15	0	0	0	0	508	175	
0	0	0	0	0	507	176	
1	0	0	0	0	507	175	
2	0	0	0	0	507	176	
3	0	0	0	0	508	176	
4	0	0	0	0	510	176	
5	0	0	0	0	511	176	
6	0	0	0	0	512	175	
7	0	0	0	0	512	176	
8	0	0	0	0	511	175	
9	0	0	0	0	511	176	
10	0	0	0	0	511	176	
11	0	0	0	0	512	175	
12	0	0	0	0	512	176	
13	0	0	0	0	513	175	
14	0	0	0	0	514	176	
15	0	0	0	0	514	176	
0	0	0	0	0	515	176	
1	0	0	0	0	515	176	
2	0	0	0	0	515	175	
3	0	0	0	0	515	176	
4	0	0	0	0	515	175	
5	0	0	0	0	514	176	
6	0	0	0	0	513	176	
7	0	0	0	0	512	175	
8	0	0	0	0	512	176	
9	0	0	0	0	512	176	
10	0	0	0	0	511	176	
11	0	0	0	0	509	176	
12	0	0	0	0	509	176	
13	0	0	0	0	510	176	
14	0	0	0	0	510	175	
15	0	0	0	0	511	176	
0	0	0	0	0	512	175	
1	0	0	0	0	512	176	
2	0	0	0	0	513	176	
3	0	0	0	0	512	175	
4	0	0	0	0	513	176	
5	0	0	0	0	514	175	
6	0	0	0	0	514	176	
7	0	0	0	0	515	175	
8	0	0	0	0	515	176	
9	0	0	0	0	516	175	
10	0	0	0	0	518	176	
11	0	0	0	0	519	176	
12	0	0	0	0	519	175	
13	0	0	0	0	519	176	
14	0	0	0	0	518	175	
15	0	0	0	0	516	176	
0	0	0	0	0	515	176	
1	0	0	0	0	513	175	
2	0	0	0	0	511	176	
3	0	0	0	0	511	175	
4	0	0	0	0	512	176	
5	0	0	0	0	511	176	
6	0	0	0	0	512	176	
7	0	0	0	0	512	176	
8	0	0	0	0	512	176	
9	0	0	0	0	512	176	
10	0	0	0	0	512	175	
11	0	0	0	0	512	176	
12	0	0	0	0	513	176	
13	0	0	0	0	515	176	
14	0	0	0	0	515	176	
15	0	0	0	0	516	175	
0	0	0	0	0	515	176	
1	0	0	0	0	513	175	
2	0	0	0	0	510	176	
3	0	0	0	0	509	176	
4	0	0	0	0	508	176	
5	0	0	0	0	507	176	
6	0	0	0	0	506	176	
7	0	0	0	0	505	176	
8	0	0	0	0	504	175	
9	0	0	0	0	504	176	
10	0	0	0	0	505	176	
11	0	0	0	0	506	176	
12	0	0	0	0	507	176	
13	0	0	0	0	508	176	
14	0	0	0	0	509	176	
15	0	0	0	0	508	175	
0	0	0	0	0	508	176	
1	0	0	0	0	508	175	
2	0	0	0	0	508	176	
3	0	0	0	0	509	175	
4	0	0	0	0	511	176	
5	0	0	0	0	512	176	
6	0	0	0	0	514	175	
7	0	0	0	0	513	176	
8	0	0	0	0	513	176	
9	0	0	0	0	512	176	
10	0	0	0	0	512	176	
11	0	0	0	0	512	176	
12	0	0	0	0	512	176	
13	0	0	0	0	512	176	
14	0	0	0	0	512	176	
15	0	0	0	0	512	175	
0	0	0	0	0	513	176	
1	0	0	0	0	513	176	
2	0	0	0	0	512	176	
3	0	0	0	0	512	176	
4	0	0	0	0	512	176	
5	0	0	0	0	511	176	
6	0	0	0	0	511	176	
7	0	0	0	0	512	176	
8	0	0	0	0	512	175	
9	0	0	0	0	512	176	
10	0	0	0	0	513	176	
11	0	0	0	0	514	176	
12	0	0	0	0	516	176	
13	0	0	0	0	516	175	
14	0	0	0	0	516	176	
15	0	0	0	0	517	176	
0	0	0	0	0	518	176	
1	0	0	0	0	519	176	
2	0	0	0	0	520	176	
3	0	0	0	0	520	176	
4	0	0	0	0	520	175	
5	0	0	0	0	519	176	
6	0	0	0	0	519	175	
7	0	0	0	0	519	176	
8	0	0	0	0	519	176	
9	0	0	0	0	518	176	
10	0	0	0	0	519	176	
11	0	0	0	0	519	176	
12	0	0	0	0	519	176	
13	0	0	0	0	519	175	
14	0	0	0	0	519	176	
15	0	0	0	0	519	176	
0	0	0	0	0	519	176	
1	0	0	0	0	520	176	
2	0	0	0	0	522	175	
3	0	0	0	0	523	176	
4	0	0	0	0	523	175	
5	0	0	0	0	524	176	
6	0	0	0	0	526	176	
7	0	0	0	0	527	176	
8	0	0	0	0	528	176	
9	0	0	0	0	527	175	
10	0	0	0	0	527	176	
11	0	0	0	0	526	175	
12	0	0	0	0	523	176	
13	0	0	0	0	521	176	
14	0	0	0	0	520	176	
15	0	0	0	0	519	176	
0	0	0	0	0	519	176	
1	0	0	0	0	519	176	
2	0	0	0	0	519	176	
3	0	0	0	0	519	176	
4	0	0	0	0	519	175	
5	0	0	0	0	518	176	
6	0	0	0	0	518	175	
7	0	0	0	0	518	176	
8	0	0	0	0	519	175	
9	0	0	0	0	518	176	
10	0	0	0	0	517	175	
11	0	0	0	0	516	176	
12	0	0	0	0	515	175	
13	0	0	0	0	516	176	
14	0	0	0	0	515	176	
15	0	0	0	0	517	176	
0	0	0	0	0	518	176	
1	0	0	0	0	519	175	
2	0	0	0	0	520	176	
3	0	0	0	0	520	175	
4	0	0	0	0	522	176	
5	0	0	0	0	523	175	
6	0	0	0	0	523	176	
7	0	0	0	0	521	176	
8	0	0	0	0	519	176	
9	0	0	0	0	518	176	
10	0	0	0	0	516	176	
11	0	0	0	0	515	176	
12	0	0	0	0	513	176	
13	0	0	0	0	512	176	
14	0	0	0	0	513	176	
15	0	0	0	0	512	176	
0	0	0	0	0	511	176	
1	0	0	0	0	508	176	
2	0	0	0	0	506	175	
3	0	0	0	0	505	176	
4	0	0	0	0	504	175	
5	0	0	0	0	504	176	
6	0	0	0	0	504	176	
7	0	0	0	0	504	176	
8	0	0	0	0	505	176	
9	0	0	0	0	504	175	
10	0	0	0	0	504	176	
11	0	0	0	0	502	175	
12	0	0	0	0	503	176	
13	0	0	0	0	502	176	
14	0	0	0	0	502	176	
15	0	0	0	0	502	176	
0	0	0	0	0	503	175	
1	0	0	0	0	502	176	
2	0	0	0	0	503	176	
3	0	0	0	0	504	176	
4	0	0	0	0	505	176	
5	0	0	0	0	504	176	
6	0	0	0	0	503	176	
7	0	0	0	0	502	176	
8	0	0	0	0	501	176	
9	0	0	0	0	499	176	
10	0	0	0	0	497	176	
11	0	0	0	0	496	176	
12	0	0	0	0	495	176	
13	0	0	0	0	496	175	
14	0	0	0	0	496	176	
15	0	0	0	0	498	175	
0	0	0	0	0	499	176	
1	0	0	0	0	501	175	
2	0	0	0	0	502	176	
3	0	0	0	0	503	176	
4	0	0	0	0	504	176	
5	0	0	0	0	504	176	
6	0	0	0	0	504	176	
7	0	0	0	0	504	176	
8	0	0	0	0	504	175	
9	0	0	0	0	503	176	
10	0	0	0	0	503	175	
11	0	0	0	0	503	176	
12	0	0	0	0	503	176	
13	0	0	0	0	504	176	
14	0	0	0	0	504	176	
15	0	0	0	0	503	175	
0	0	0	0	0	501	176	
1	0	0	0	0	501	175	
2	0	0	0	0	500	176	
3	0	0	0	0	498	176	
4	0	0	0	0	497	176	
5	0	0	0	0	497	176	
6	0	0	0	0	498	176	
7	0	0	0	0	499	176	
8	0	0	0	0	497	176	
9	0	0	0	0	496	176	
10	0	0	0	0	495	175	
11	0	0	0	0	494	176	
12	0	0	0	0	492	175	
13	0	0	0	0	492	176	
14	0	0	0	0	492	176	
15	0	0	0	0	493	176	
0	0	0	0	0	494	176	
1	0	0	0	0	495	176	
2	0	0	0	0	496	175	
3	0	0	0	0	498	176	
4	0	0	0	0	500	176	
5	0	0	0	0	504	176	
6	0	0	0	0	508	176	
7	0	0	0	0	513	176	
8	0	0	0	0	521	176	
9	0	0	0	0	529	175	
10	0	0	0	0	537	176	
11	0	0	0	0	546	175	
12	0	0	0	0	556	176	
13	0	0	0	0	566	175	
14	0	0	0	0	576	176	
15	0	0	0	0	588	175	
0	0	0	0	0	596	176	
1	0	0	0	0	604	175	
2	0	0	0	0	612	176	
3	0	0	0	0	617	176	
4	0	0	0	0	620	175	
5	0	0	0	0	624	176	
6	0	0	0	0	626	175	
7	0	0	0	0	629	176	
8	0	0	0	0	631	175	
9	0	0	0	0	630	176	
10	0	0	0	0	630	175	
11	0	0	0	0	629	175	
12	0	0	0	0	628	176	
13	0	0	0	0	625	175	
14	0	0	0	0	623	176	
15	0	0	0	0	617	175	
0	0	0	0	0	611	176	
1	0	0	0	0	605	175	
2	0	0	0	0	597	176	
3	0	0	0	0	590	175	
4	0	0	0	0	584	176	
5	0	0	0	0	578	175	
6	0	0	0	0	570	176	
7	0	0	0	0	561	176	
8	0	0	0	0	552	176	
9	0	0	0	0	543	176	
10	0	0	0	0	535	175	
11	0	0	0	0	524	176	
12	0	0	0	0	514	176	
13	0	0	0	0	504	176	
14	0	0	0	0	495	176	
15	0	0	0	0	487	176	
0	0	0	0	0	482	176	
1	0	0	0	0	478	176	
2	0	0	0	0	474	176	
3	0	0	0	0	471	176	
4	0	0	0	0	469	176	
5	0	0	0	0	468	176	
6	0	0	0	0	468	177	
7	0	0	0	0	467	176	
8	0	0	0	0	466	177	
9	0	0	0	0	465	176	
10	0	0	0	0	466	177	
11	0	0	0	0	467	176	
12	0	0	0	0	467	177	
13	0	0	0	0	469	176	
14	0	0	0	0	469	176	
15	0	0	0	0	471	176	
0	0	0	0	0	473	176	
1	0	0	0	0	475	176	
2	0	0	0	0	476	176	
3	0	0	0	0	477	176	
4	0	0	0	0	477	176	
5	0	0	0	0	477	176	
6	0	0	0	0	477	176	
7	0	0	0	0	478	176	
8	0	0	0	0	478	176	
9	0	0	0	0	478	176	
10	0	0	0	0	477	176	
11	0	0	0	0	478	176	
12	0	0	0	0	478	176	
13	0	0	0	0	478	176	
14	0	0	0	0	479	176	
15	0	0	0	0	480	176	
0	0	0	0	0	481	176	
1	0	0	0	0	483	176	
2	0	0	0	0	485	176	
3	0	0	0	0	486	176	
4	0	0	0	0	485	176	
5	0	0	0	0	485	176	
6	0	0	0	0	484	176	
7	0	0	0	0	484	176	
8	0	0	0	0	483	176	
9	0	0	0	0	482	176	
10	0	0	0	0	482	176	
11	0	0	0	0	481	176	
12	0	0	0	0	481	177	
13	0	0	0	0	482	176	
14	0	0	0	0	482	176	
15	0	0	0	0	483	176	
0	0	0	0	0	483	176	
1	0	0	0	0	483	176	
2	0	0	0	0	485	176	
3	0	0	0	0	486	176	
4	0	0	0	0	486	176	
5	0	0	0	0	486	177	
6	0	0	0	0	486	176	
7	0	0	0	0	487	176	
8	0	0	0	0	489	176	
9	0	0	0	0	489	175	
10	0	0	0	0	491	176	
11	0	0	0	0	492	176	
12	0	0	0	0	492	176	
13	0	0	0	0	492	176	
14	0	0	0	0	492	176	
15	0	0	0	0	493	176	
0	0	0	0	0	493	176	
1	0	0	0	0	494	176	
2	0	0	0	0	496	176	
3	0	0	0	0	496	176	
4	0	0	0	0	496	176	
5	0	0	0	0	496	176	
6	0	0	0	0	495	176	
7	0	0	0	0	494	176	
8	0	0	0	0	494	176	
9	0	0	0	0	495	176	
10	0	0	0	0	496	176	
11	0	0	0	0	496	176	
12	0	0	0	0	495	176	
13	0	0	0	0	495	176	
14	0	0	0	0	496	176	
15	0	0	0	0	496	176	
0	0	0	0	0	496	176	
1	0	0	0	0	497	176	
2	0	0	0	0	497	176	
3	0	0	0	0	499	176	
4	0	0	0	0	498	176	
5	0	0	0	0	498	176	
6	0	0	0	0	496	176	
7	0	0	0	0	496	176	
8	0	0	0	0	495	176	
9	0	0	0	0	494	175	
10	0	0	0	0	495	176	
11	0	0	0	0	496	176	
12	0	0	0	0	497	176	
13	0	0	0	0	497	175	
14	0	0	0	0	497	176	
15	0	0	0	0	498	176	
0	0	0	0	0	498	176	
1	0	0	0	0	499	176	
2	0	0	0	0	499	176	
3	0	0	0	0	499	176	
4	0	0	0	0	499	176	
5	0	0	0	0	499	176	
6	0	0	0	0	498	176	
7	0	0	0	0	498	176	
8	0	0	0	0	498	176	
9	0	0	0	0	498	176	
10	0	0	0	0	499	175	
11	0	0	0	0	499	176	
12	0	0	0	0	500	175	
13	0	0	0	0	500	176	
14	0	0	0	0	500	176	
15	0	0	0	0	501	176	
0	0	0	0	0	503	176	
1	0	0	0	0	503	176	
2	0	0	0	0	503	176	
3	0	0	0	0	503	175	
4	0	0	0	0	503	176	
5	0	0	0	0	503	176	
6	0	0	0	0	504	176	
7	0	0	0	0	504	175	
8	0	0	0	0	504	176	
9	0	0	0	0	503	175	
10	0	0	0	0	503	176	
11	0	0	0	0	504	175	
12	0	0	0	0	504	176	
13	0	0	0	0	504	175	
14	0	0	0	0	504	176	
15	0	0	0	0	504	176	
0	0	0	0	0	504	176	
1	0	0	0	0	505	176	
2	0	0	0	0	506	176	
3	0	0	0	0	507	176	
4	0	0	0	0	507	176	
5	0	0	0	0	508	176	
6	0	0	0	0	508	176	
7	0	0	0	0	509	176	
8	0	0	0	0	508	176	
9	0	0	0	0	508	176	
10	0	0	0	0	507	176	
11	0	0	0	0	507	176	
12	0	0	0	0	507	176	
13	0	0	0	0	508	176	
14	0	0	0	0	508	176	
15	0	0	0	0	509	176	
0	0	0	0	0	509	176	
1	0	0	0	0	509	176	
2	0	0	0	0	510	176	
3	0	0	0	0	510	176	
4	0	0	0	0	510	176	
5	0	0	0	0	510	176	
6	0	0	0	0	512	176	
7	0	0	0	0	513	177	
8	0	0	0	0	515	176	
9	0	0	0	0	516	176	
10	0	0	0	0	516	176	
11	0	0	0	0	516	176	
12	0	0	0	0	515	176	
13	0	0	0	0	514	175	
14	0	0	0	0	513	176	
15	0	0	0	0	512	175	
0	0	0	0	0	511	176	
1	0	0	0	0	510	176	
2	0	0	0	0	510	176	
3	0	0	0	0	510	176	
4	0	0	0	0	510	176	
5	0	0	0	0	511	176	
6	0	0	0	0	513	175	
7	0	0	0	0	514	176	
8	0	0	0	0	516	176	
9	0	0	0	0	517	176	
10	0	0	0	0	517	176	
11	0	0	0	0	517	176	
12	0	0	0	0	517	176	
13	0	0	0	0	517	176	
14	0	0	0	0	518	176	
15	0	0	0	0	519	175	
0	0	0	0	0	518	176	
1	0	0	0	0	518	175	
2	0	0	0	0	519	176	
3	0	0	0	0	519	176	
4	0	0	0	0	519	176	
5	0	0	0	0	520	176	
6	0	0	0	0	520	176	
7	0	0	0	0	521	176	
8	0	0	0	0	523	176	
9	0	0	0	0	524	176	
10	0	0	0	0	524	175	
11	0	0	0	0	524	176	
12	0	0	0	0	524	175	
13	0	0	0	0	524	176	
14	0	0	0	0	524	175	
15	0	0	0	0	526	176	
0	0	0	0	0	526	175	
1	0	0	0	0	527	176	
2	0	0	0	0	527	175	
3	0	0	0	0	527	176	
4	0	0	0	0	527	176	
5	0	0	0	0	529	176	
6	0	0	0	0	530	176	
7	0	0	0	0	530	176	
8	0	0	0	0	531	176	
9	0	0	0	0	532	176	
10	0	0	0	0	531	176	
11	0	0	0	0	530	176	
12	0	0	0	0	530	176	
13	0	0	0	0	530	175	
14	0	0	0	0	529	176	
15	0	0	0	0	529	175	
0	0	0	0	0	529	176	
1	0	0	0	0	531	175	
2	0	0	0	0	532	176	
3	0	0	0	0	534	175	
4	0	0	0	0	536	176	
5	0	0	0	0	537	175	
6	0	0	0	0	539	176	
7	0	0	0	0	540	175	
8	0	0	0	0	540	176	
9	0	0	0	0	540	175	
10	0	0	0	0	540	176	
11	0	0	0	0	539	176	
12	0	0	0	0	538	176	
13	0	0	0	0	538	176	
14	0	0	0	0	537	175	
15	0	0	0	0	537	176	
0	0	0	0	0	536	176	
1	0	0	0	0	534	176	
2	0	0	0	0	533	176	
3	0	0	0	0	533	175	
4	0	0	0	0	534	176	
5	0	0	0	0	534	176	
6	0	0	0	0	535	176	
7	0	0	0	0	534	176	
8	0	0	0	0	535	175	
9	0	0	0	0	535	176	
10	0	0	0	0	535	175	
11	0	0	0	0	535	176	
12	0	0	0	0	536	176	
13	0	0	0	0	537	176	
14	0	0	0	0	537	176	
15	0	0	0	0	539	175	
0	0	0	0	0	539	176	
1	0	0	0	0	539	175	
2	0	0	0	0	541	176	
3	0	0	0	0	541	176	
4	0	0	0	0	539	175	
5	0	0	0	0	539	176	
6	0	0	0	0	538	175	
7	0	0	0	0	537	176	
8	0	0	0	0	535	176	
9	0	0	0	0	532	176	
10	0	0	0	0	530	176	
11	0	0	0	0	529	175	
12	0	0	0	0	527	176	
13	0	0	0	0	526	175	
14	0	0	0	0	525	176	
15	0	0	0	0	523	176	
0	0	0	0	0	522	176	
1	0	0	0	0	521	176	
2	0	0	0	0	521	175	
3	0	0	0	0	520	176	
4	0	0	0	0	519	176	
5	0	0	0	0	519	177	
6	0	0	0	0	519	176	
7	0	0	0	0	519	175	
8	0	0	0	0	519	176	
9	0	0	0	0	519	175	
10	0	0	0	0	519	176	
11	0	0	0	0	518	175	
12	0	0	0	0	517	176	
13	0	0	0	0	515	176	
14	0	0	0	0	513	176	
15	0	0	0	0	511	176	
0	0	0	0	0	508	175	
1	0	0	0	0	505	176	
2	0	0	0	0	503	176	
3	0	0	0	0	500	176	
4	0	0	0	0	498	176	
5	0	0	0	0	496	176	
6	0	0	0	0	495	176	
7	0	0	0	0	492	176	
8	0	0	0	0	489	176	
9	0	0	0	0	487	176	
10	0	0	0	0	486	176	
11	0	0	0	0	485	176	
12	0	0	0	0	484	176	
13	0	0	0	0	482	176	
14	0	0	0	0	480	176	
15	0	0	0	0	479	176	
0	0	0	0	0	477	176	
1	0	0	0	0	476	176	
2	0	0	0	0	474	176	
3	0	0	0	0	472	176	
4	0	0	0	0	470	176	
5	0	0	0	0	470	177	
6	0	0	0	0	469	176	
7	0	0	0	0	468	176	
8	0	0	0	0	467	176	
9	0	0	0	0	466	176	
10	0	0	0	0	466	176	
11	0	0	0	0	464	176	
12	0	0	0	0	463	176	
13	0	0	0	0	463	176	
14	0	0	0	0	463	176	
15	0	0	0	0	464	176	
0	0	0	0	0	464	176	
1	0	0	0	0	463	176	
2	0	0	0	0	462	176	
3	0	0	0	0	462	176	
4	0	0	0	0	461	177	
5	0	0	0	0	461	176	
6	0	0	0	0	461	176	
7	0	0	0	0	461	176	
8	0	0	0	0	461	176	
9	0	0	0	0	462	176	
10	0	0	0	0	460	176	
11	0	0	0	0	459	176	
12	0	0	0	0	460	176	
13	0	0	0	0	460	177	
14	0	0	0	0	462	176	
15	0	0	0	0	464	176	
0	0	0	0	0	465	176	
1	0	0	0	0	467	176	
2	0	0	0	0	469	176	
3	0	0	0	0	470	176	
4	0	0	0	0	468	176	
5	0	0	0	0	467	176	
6	0	0	0	0	467	177	
7	0	0	0	0	467	176	
8	0	0	0	0	467	176	
9	0	0	0	0	467	176	
10	0	0	0	0	468	176	
11	0	0	0	0	468	176	
12	0	0	0	0	470	176	
13	0	0	0	0	472	177	
14	0	0	0	0	472	176	
15	0	0	0	0	472	176	
0	0	0	0	0	472	176	
1	0	0	0	0	472	176	
2	0	0	0	0	473	176	
3	0	0	0	0	473	177	
4	0	0	0	0	473	176	
5	0	0	0	0	473	176	
6	0	0	0	0	472	176	
7	0	0	0	0	472	176	
8	0	0	0	0	471	176	
9	0	0	0	0	471	176	
10	0	0	0	0	471	177	
11	0	0	0	0	472	176	
12	0	0	0	0	473	176	
13	0	0	0	0	475	176	
14	0	0	0	0	477	176	
15	0	0	0	0	478	176	
0	0	0	0	0	479	176	
1	0	0	0	0	480	176	
2	0	0	0	0	480	176	
3	0	0	0	0	481	176	
4	0	0	0	0	483	176	
5	0	0	0	0	483	176	
6	0	0	0	0	483	176	
7	0	0	0	0	485	176	
8	0	0	0	0	486	176	
9	0	0	0	0	487	176	
10	0	0	0	0	488	176	
11	0	0	0	0	490	176	
12	0	0	0	0	490	176	
13	0	0	0	0	491	176	
14	0	0	0	0	490	176	
15	0	0	0	0	488	177	
0	0	0	0	0	487	176	
1	0	0	0	0	487	176	
2	0	0	0	0	487	176	
3	0	0	0	0	487	176	
4	0	0	0	0	487	176	
5	0	0	0	0	488	176	
6	0	0	0	0	488	176	
7	0	0	0	0	488	176	
8	0	0	0	0	489	176	
9	0	0	0	0	490	176	
10	0	0	0	0	490	176	
11	0	0	0	0	490	176	
12	0	0	0	0	489	176	
13	0	0	0	0	488	176	
14	0	0	0	0	487	176	
15	0	0	0	0	486	176	
0	0	0	0	0	486	176	
1	0	0	0	0	486	176	
2	0	0	0	0	487	176	
3	0	0	0	0	489	176	
4	0	0	0	0	491	176	
5	0	0	0	0	491	176	
6	0	0	0	0	491	176	
7	0	0	0	0	489	176	
8	0	0	0	0	489	176	
9	0	0	0	0	491	176	
10	0	0	0	0	490	176	
11	0	0	0	0	492	176	
12	0	0	0	0	492	176	
13	0	0	0	0	494	175	
14	0	0	0	0	495	176	
15	0	0	0	0	496	176	
0	0	0	0	0	497	176	
1	0	0	0	0	497	176	
2	0	0	0	0	499	176	
3	0	0	0	0	500	176	
4	0	0	0	0	500	176	
5	0	0	0	0	500	176	
6	0	0	0	0	500	176	
7	0	0	0	0	501	176	
8	0	0	0	0	503	176	
9	0	0	0	0	502	175	
10	0	0	0	0	503	176	
11	0	0	0	0	505	175	
12	0	0	0	0	505	176	
13	0	0	0	0	505	176	
14	0	0	0	0	504	176	
15	0	0	0	0	504	176	
0	0	0	0	0	503	176	
1	0	0	0	0	502	176	
2	0	0	0	0	502	175	
3	0	0	0	0	501	176	
4	0	0	0	0	500	176	
5	0	0	0	0	501	176	
6	0	0	0	0	501	176	
7	0	0	0	0	500	176	
8	0	0	0	0	499	176	
9	0	0	0	0	500	175	
10	0	0	0	0	499	176	
11	0	0	0	0	500	176	
12	0	0	0	0	501	176	
13	0	0	0	0	501	176	
14	0	0	0	0	501	176	
15	0	0	0	0	502	176	
0	0	0	0	0	504	176	
1	0	0	0	0	504	176	
2	0	0	0	0	505	176	
3	0	0	0	0	508	176	
4	0	0	0	0	510	176	
5	0	0	0	0	510	176	
6	0	0	0	0	510	176	
7	0	0	0	0	508	176	
8	0	0	0	0	508	176	
9	0	0	0	0	507	176	
10	0	0	0	0	507	176	
11	0	0	0	0	507	176	
12	0	0	0	0	507	176	
13	0	0	0	0	508	176	
14	0	0	0	0	507	176	
15	0	0	0	0	508	176	
0	0	0	0	0	511	176	
1	0	0	0	0	511	176	
2	0	0	0	0	512	176	
3	0	0	0	0	513	176	
4	0	0	0	0	514	175	
5	0	0	0	0	515	176	
6	0	0	0	0	516	176	
7	0	0	0	0	516	176	
8	0	0	0	0	515	176	
9	0	0	0	0	514	176	
10	0	0	0	0	513	176	
11	0	0	0	0	512	175	
12	0	0	0	0	512	176	
13	0	0	0	0	513	175	
14	0	0	0	0	513	176	
15	0	0	0	0	512	175	
0	0	0	0	0	512	176	
1	0	0	0	0	512	176	
2	0	0	0	0	513	176	
3	0	0	0	0	512	176	
4	0	0	0	0	513	176	
5	0	0	0	0	513	176	
6	0	0	0	0	513	176	
7	0	0	0	0	512	176	
8	0	0	0	0	510	176	
9	0	0	0	0	508	176	
10	0	0	0	0	507	176	
11	0	0	0	0	508	176	
12	0	0	0	0	508	176	
13	0	0	0	0	507	176	
14	0	0	0	0	508	176	
15	0	0	0	0	509	176	
0	0	0	0	0	508	176	
1	0	0	0	0	508	176	
2	0	0	0	0	508	176	
3	0	0	0	0	508	175	
4	0	0	0	0	508	176	
5	0	0	0	0	508	176	
6	0	0	0	0	508	176	
7	0	0	0	0	507	176	
8	0	0	0	0	508	176	
9	0	0	0	0	508	176	
10	0	0	0	0	507	176	
11	0	0	0	0	508	176	
12	0	0	0	0	507	176	
13	0	0	0	0	507	176	
14	0	0	0	0	507	176	
15	0	0	0	0	508	176	
0	0	0	0	0	508	176	
1	0	0	0	0	507	176	
2	0	0	0	0	508	176	
3	0	0	0	0	508	176	
4	0	0	0	0	509	175	
5	0	0	0	0	509	176	
6	0	0	0	0	509	176	
7	0	0	0	0	508	176	
8	0	0	0	0	506	176	
9	0	0	0	0	505	176	
10	0	0	0	0	504	176	
11	0	0	0	0	504	176	
12	0	0	0	0	504	176	
13	0	0	0	0	504	176	
14	0	0	0	0	503	176	
15	0	0	0	0	503	176	
0	0	0	0	0	505	176	
1	0	0	0	0	508	176	
2	0	0	0	0	508	175	
3	0	0	0	0	508	176	
4	0	0	0	0	507	176	
5	0	0	0	0	506	176	
6	0	0	0	0	506	176	
7	0	0	0	0	504	176	
8	0	0	0	0	504	176	
9	0	0	0	0	504	176	
10	0	0	0	0	504	176	
11	0	0	0	0	504	176	
12	0	0	0	0	504	176	
13	0	0	0	0	505	176	
14	0	0	0	0	505	176	
15	0	0	0	0	505	176	
0	0	0	0	0	505	176	
1	0	0	0	0	506	176	
2	0	0	0	0	507	176	
3	0	0	0	0	508	176	
4	0	0	0	0	508	176	
5	0	0	0	0	508	176	
6	0	0	0	0	506	176	
7	0	0	0	0	506	176	
8	0	0	0	0	507	176	
9	0	0	0	0	507	176	
10	0	0	0	0	507	176	
11	0	0	0	0	506	176	
12	0	0	0	0	506	176	
13	0	0	0	0	505	176	
14	0	0	0	0	504	176	
15	0	0	0	0	503	176	
0	0	0	0	0	504	176	
1	0	0	0	0	504	176	
2	0	0	0	0	505	176	
3	0	0	0	0	505	176	
4	0	0	0	0	506	176	
5	0	0	0	0	506	176	
6	0	0	0	0	505	176	
7	0	0	0	0	506	176	
8	0	0	0	0	506	176	
9	0	0	0	0	505	176	
10	0	0	0	0	505	176	
11	0	0	0	0	505	176	
12	0	0	0	0	505	176	
13	0	0	0	0	504	176	
14	0	0	0	0	504	176	
15	0	0	0	0	504	176	
0	0	0	0	0	503	176	
1	0	0	0	0	504	176	
2	0	0	0	0	506	176	
3	0	0	0	0	507	176	
4	0	0	0	0	508	176	
5	0	0	0	0	510	176	
6	0	0	0	0	510	176	
7	0	0	0	0	511	176	
8	0	0	0	0	511	175	
9	0	0	0	0	509	176	
10	0	0	0	0	507	176	
11	0	0	0	0	507	176	
12	0	0	0	0	506	176	
13	0	0	0	0	504	176	
14	0	0	0	0	502	176	
15	0	0	0	0	501	176	
0	0	0	0	0	502	176	
1	0	0	0	0	502	176	
2	0	0	0	0	503	176	
3	0	0	0	0	504	176	
4	0	0	0	0	506	175	
5	0	0	0	0	506	176	
6	0	0	0	0	505	176	
7	0	0	0	0	505	176	
8	0	0	0	0	507	176	
9	0	0	0	0	506	176	
10	0	0	0	0	507	176	
11	0	0	0	0	506	175	
12	0	0	0	0	506	176	
13	0	0	0	0	507	176	
14	0	0	0	0	506	177	
15	0	0	0	0	506	176	
0	0	0	0	0	507	176	
1	0	0	0	0	508	176	
2	0	0	0	0	505	176	
3	0	0	0	0	502	176	
4	0	0	0	0	501	176	
5	0	0	0	0	502	176	
6	0	0	0	0	502	176	
7	0	0	0	0	503	176	
8	0	0	0	0	504	176	
9	0	0	0	0	506	176	
10	0	0	0	0	507	176	
11	0	0	0	0	507	176	
12	0	0	0	0	507	176	
13	0	0	0	0	505	176	
14	0	0	0	0	505	176	
15	0	0	0	0	505	176	
0	0	0	0	0	505	175	
1	0	0	0	0	505	176	
2	0	0	0	0	506	176	
3	0	0	0	0	505	176	
4	0	0	0	0	505	176	
5	0	0	0	0	504	176	
6	0	0	0	0	504	176	
7	0	0	0	0	505	176	
8	0	0	0	0	505	176	
9	0	0	0	0	505	176	
10	0	0	0	0	507	176	
11	0	0	0	0	508	176	
12	0	0	0	0	509	176	
13	0	0	0	0	510	176	
14	0	0	0	0	511	176	
15	0	0	0	0	511	176	
0	0	0	0	0	511	176	
1	0	0	0	0	509	176	
2	0	0	0	0	508	176	
3	0	0	0	0	509	176	
4	0	0	0	0	512	176	
5	0	0	0	0	512	176	
6	0	0	0	0	512	176	
7	0	0	0	0	513	176	
8	0	0	0	0	512	176	
9	0	0	0	0	512	176	
10	0	0	0	0	511	176	
11	0	0	0	0	511	176	
12	0	0	0	0	510	176	
13	0	0	0	0	511	176	
14	0	0	0	0	511	176	
15	0	0	0	0	512	176	
0	0	0	0	0	513	176	
1	0	0	0	0	513	176	
2	0	0	0	0	513	176	
3	0	0	0	0	512	176	
4	0	0	0	0	510	176	
5	0	0	0	0	510	176	
6	0	0	0	0	510	176	
7	0	0	0	0	512	176	
8	0	0	0	0	513	176	
9	0	0	0	0	514	176	
10	0	0	0	0	515	176	
11	0	0	0	0	515	176	
12	0	0	0	0	515	176	
13	0	0	0	0	515	176	
14	0	0	0	0	514	176	
15	0	0	0	0	513	176	
0	0	0	0	0	513	176	
1	0	0	0	0	514	175	
2	0	0	0	0	514	176	
3	0	0	0	0	514	176	
4	0	0	0	0	513	176	
5	0	0	0	0	512	176	
6	0	0	0	0	511	176	
7	0	0	0	0	512	176	
8	0	0	0	0	512	175	
9	0	0	0	0	513	176	
10	0	0	0	0	514	176	
11	0	0	0	0	516	176	
12	0	0	0	0	516	176	
13	0	0	0	0	514	176	
14	0	0	0	0	513	176	
15	0	0	0	0	512	175	
0	0	0	0	0	512	176	
1	0	0	0	0	511	176	
2	0	0	0	0	511	177	
3	0	0	0	0	510	176	
4	0	0	0	0	509	177	
5	0	0	0	0	510	176	
6	0	0	0	0	510	176	
7	0	0	0	0	511	176	
8	0	0	0	0	511	176	
9	0	0	0	0	511	176	
10	0	0	0	0	512	176	
11	0	0	0	0	512	177	
12	0	0	0	0	512	176	
13	0	0	0	0	513	175	
14	0	0	0	0	513	176	
15	0	0	0	0	512	176	
0	0	0	0	0	513	176	
1	0	0	0	0	514	176	
2	0	0	0	0	515	176	
3	0	0	0	0	515	176	
4	0	0	0	0	516	176	
5	0	0	0	0	518	176	
6	0	0	0	0	518	176	
7	0	0	0	0	517	176	
8	0	0	0	0	516	176	
9	0	0	0	0	517	176	
10	0	0	0	0	516	176	
11	0	0	0	0	516	176	
12	0	0	0	0	516	176	
13	0	0	0	0	516	176	
14	0	0	0	0	515	176	
15	0	0	0	0	515	176	
0	0	0	0	0	516	176	
1	0	0	0	0	517	176	
2	0	0	0	0	517	176	
3	0	0	0	0	516	176	
4	0	0	0	0	514	176	
5	0	0	0	0	512	176	
6	0	0	0	0	512	176	
7	0	0	0	0	512	176	
8	0	0	0	0	512	176	
9	0	0	0	0	512	176	
10	0	0	0	0	512	176	
11	0	0	0	0	514	176	
12	0	0	0	0	515	176	
13	0	0	0	0	516	177	
14	0	0	0	0	519	176	
15	0	0	0	0	521	176	
0	0	0	0	0	522	176	
1	0	0	0	0	524	175	
2	0	0	0	0	524	176	
3	0	0	0	0	525	176	
4	0	0	0	0	525	176	
5	0	0	0	0	526	176	
6	0	0	0	0	526	176	
7	0	0	0	0	526	175	
8	0	0	0	0	526	176	
9	0	0	0	0	525	176	
10	0	0	0	0	524	176	
11	0	0	0	0	523	176	
12	0	0	0	0	521	177	
13	0	0	0	0	519	176	
14	0	0	0	0	518	175	
15	0	0	0	0	517	176	
0	0	0	0	0	517	176	
1	0	0	0	0	517	176	
2	0	0	0	0	517	176	
3	0	0	0	0	518	176	
4	0	0	0	0	518	176	
5	0	0	0	0	519	175	
6	0	0	0	0	519	176	
7	0	0	0	0	517	176	
8	0	0	0	0	516	176	
9	0	0	0	0	515	176	
10	0	0	0	0	515	176	
11	0	0	0	0	516	176	
12	0	0	0	0	517	177	
13	0	0	0	0	519	176	
14	0	0	0	0	520	176	
15	0	0	0	0	521	176	
0	0	0	0	0	523	175	
1	0	0	0	0	524	176	
2	0	0	0	0	525	176	
3	0	0	0	0	526	176	
4	0	0	0	0	527	176	
5	0	0	0	0	527	176	
6	0	0	0	0	527	176	
7	0	0	0	0	525	176	
8	0	0	0	0	524	176	
9	0	0	0	0	524	176	
10	0	0	0	0	524	176	
11	0	0	0	0	524	176	
12	0	0	0	0	524	177	
13	0	0	0	0	523	176	
14	0	0	0	0	522	177	
15	0	0	0	0	521	176	
0	0	0	0	0	519	175	
1	0	0	0	0	516	176	
2	0	0	0	0	515	176	
3	0	0	0	0	514	176	
4	0	0	0	0	513	176	
5	0	0	0	0	514	176	
6	0	0	0	0	514	176	
7	0	0	0	0	513	176	
8	0	0	0	0	513	176	
9	0	0	0	0	513	176	
10	0	0	0	0	514	176	
11	0	0	0	0	513	176	
12	0	0	0	0	513	176	
13	0	0	0	0	514	176	
14	0	0	0	0	514	176	
15	0	0	0	0	515	176	
0	0	0	0	0	515	177	
1	0	0	0	0	515	176	
2	0	0	0	0	514	176	
3	0	0	0	0	514	176	
4	0	0	0	0	514	176	
5	0	0	0	0	514	176	
6	0	0	0	0	513	176	
7	0	0	0	0	513	177	
8	0	0	0	0	513	176	
9	0	0	0	0	514	176	
10	0	0	0	0	512	176	
11	0	0	0	0	510	176	
12	0	0	0	0	511	176	
13	0	0	0	0	511	176	
14	0	0	0	0	512	177	
15	0	0	0	0	511	176	
0	0	0	0	0	511	176	
1	0	0	0	0	512	176	
2	0	0	0	0	512	176	
3	0	0	0	0	512	177	
4	0	0	0	0	512	176	
5	0	0	0	0	513	176	
6	0	0	0	0	514	176	
7	0	0	0	0	515	176	
8	0	0	0	0	514	176	
9	0	0	0	0	512	176	
10	0	0	0	0	511	176	
11	0	0	0	0	510	176	
12	0	0	0	0	510	176	
13	0	0	0	0	511	176	
14	0	0	0	0	511	176	
15	0	0	0	0	512	176	
0	0	0	0	0	512	176	
1	0	0	0	0	511	176	
2	0	0	0	0	511	176	
3	0	0	0	0	511	177	
4	0	0	0	0	511	176	
5	0	0	0	0	509	177	
6	0	0	0	0	508	176	
7	0	0	0	0	508	176	
8	0	0	0	0	508	176	
9	0	0	0	0	510	176	
10	0	0	0	0	510	176	
11	0	0	0	0	510	176	
12	0	0	0	0	510	176	
13	0	0	0	0	509	176	
14	0	0	0	0	509	177	
15	0	0	0	0	509	176	
0	0	0	0	0	509	176	
1	0	0	0	0	511	176	
2	0	0	0	0	511	176	
3	0	0	0	0	511	177	
4	0	0	0	0	509	176	
5	0	0	0	0	508	177	
6	0	0	0	0	510	176	
7	0	0	0	0	512	176	
8	0	0	0	0	513	176	
9	0	0	0	0	515	176	
10	0	0	0	0	517	176	
11	0	0	0	0	517	176	
12	0	0	0	0	519	176	
13	0	0	0	0	519	176	
14	0	0	0	0	520	176	
15	0	0	0	0	522	176	
0	0	0	0	0	524	176	
1	0	0	0	0	522	176	
2	0	0	0	0	522	176	
3	0	0	0	0	521	176	
4	0	0	0	0	520	176	
5	0	0	0	0	521	176	
6	0	0	0	0	521	176	
7	0	0	0	0	519	176	
8	0	0	0	0	519	176	
9	0	0	0	0	519	176	
10	0	0	0	0	519	176	
11	0	0	0	0	518	176	
12	0	0	0	0	518	176	
13	0	0	0	0	517	177	
14	0	0	0	0	516	176	
15	0	0	0	0	515	177	
0	0	0	0	0	513	176	
1	0	0	0	0	513	176	
2	0	0	0	0	512	176	
3	0	0	0	0	510	176	
4	0	0	0	0	510	176	
5	0	0	0	0	511	176	
6	0	0	0	0	512	176	
7	0	0	0	0	514	176	
8	0	0	0	0	514	176	
9	0	0	0	0	515	176	
10	0	0	0	0	515	177	
11	0	0	0	0	515	176	
12	0	0	0	0	516	176	
13	0	0	0	0	517	176	
14	0	0	0	0	520	176	
15	0	0	0	0	521	177	
0	0	0	0	0	521	176	
1	0	0	0	0	521	176	
2	0	0	0	0	520	176	
3	0	0	0	0	521	176	
4	0	0	0	0	521	176	
5	0	0	0	0	520	176	
6	0	0	0	0	519	177	
7	0	0	0	0	518	176	
8	0	0	0	0	518	177	
9	0	0	0	0	517	176	
10	0	0	0	0	518	176	
11	0	0	0	0	519	176	
12	0	0	0	0	519	176	
13	0	0	0	0	518	176	
14	0	0	0	0	518	176	
15	0	0	0	0	519	177	
0	0	0	0	0	519	176	
1	0	0	0	0	518	176	
2	0	0	0	0	519	176	
3	0	0	0	0	520	176	
4	0	0	0	0	521	177	
5	0	0	0	0	523	176	
6	0	0	0	0	522	176	
7	0	0	0	0	521	176	
8	0	0	0	0	520	176	
9	0	0	0	0	519	177	
10	0	0	0	0	519	176	
11	0	0	0	0	519	177	
12	0	0	0	0	518	176	
13	0	0	0	0	517	176	
14	0	0	0	0	517	176	
15	0	0	0	0	520	176	
0	0	0	0	0	522	176	
1	0	0	0	0	523	176	
2	0	0	0	0	523	177	
3	0	0	0	0	524	176	
4	0	0	0	0	524	176	
5	0	0	0	0	525	176	
6	0	0	0	0	527	176	
7	0	0	0	0	527	177	
8	0	0	0	0	527	176	
9	0	0	0	0	528	176	
10	0	0	0	0	527	176	
11	0	0	0	0	526	176	
12	0	0	0	0	525	176	
13	0	0	0	0	524	176	
14	0	0	0	0	522	177	
15	0	0	0	0	523	176	
0	0	0	0	0	523	176	
1	0	0	0	0	523	176	
2	0	0	0	0	523	176	
3	0	0	0	0	525	176	
4	0	0	0	0	524	176	
5	0	0	0	0	524	177	
6	0	0	0	0	525	176	
7	0	0	0	0	525	176	
8	0	0	0	0	524	176	
9	0	0	0	0	524	176	
10	0	0	0	0	525	177	
11	0	0	0	0	525	176	
12	0	0	0	0	526	177	
13	0	0	0	0	527	176	
14	0	0	0	0	526	177	
15	0	0	0	0	525	176	
0	0	0	0	0	524	177	
1	0	0	0	0	524	176	
2	0	0	0	0	524	176	
3	0	0	0	0	524	176	
4	0	0	0	0	524	176	
5	0	0	0	0	525	176	
6	0	0	0	0	527	176	
7	0	0	0	0	528	177	
8	0	0	0	0	529	176	
9	0	0	0	0	530	177	
10	0	0	0	0	529	176	
11	0	0	0	0	529	176	
12	0	0	0	0	529	176	
13	0	0	0	0	529	176	
14	0	0	0	0	530	176	
15	0	0	0	0	530	176	
0	0	0	0	0	528	177	
1	0	0	0	0	526	176	
2	0	0	0	0	524	177	
3	0	0	0	0	522	176	
4	0	0	0	0	522	176	
5	0	0	0	0	523	176	
6	0	0	0	0	526	176	
7	0	0	0	0	528	177	
8	0	0	0	0	529	176	
9	0	0	0	0	530	177	
10	0	0	0	0	529	176	
11	0	0	0	0	528	176	
12	0	0	0	0	527	176	
13	0	0	0	0	526	176	
14	0	0	0	0	526	177	
15	0	0	0	0	526	176	
0	0	0	0	0	524	177	
1	0	0	0	0	524	176	
2	0	0	0	0	524	176	
3	0	0	0	0	525	176	
4	0	0	0	0	526	176	
5	0	0	0	0	526	177	
6	0	0	0	0	525	176	
7	0	0	0	0	523	176	
8	0	0	0	0	522	177	
9	0	0	0	0	521	176	
10	0	0	0	0	521	177	
11	0	0	0	0	521	176	
12	0	0	0	0	523	176	
13	0	0	0	0	524	177	
14	0	0	0	0	524	176	
15	0	0	0	0	524	176	
0	0	0	0	0	526	176	
1	0	0	0	0	528	177	
2	0	0	0	0	530	176	
3	0	0	0	0	532	177	
4	0	0	0	0	533	176	
5	0	0	0	0	532	177	
6	0	0	0	0	532	176	
7	0	0	0	0	532	176	
8	0	0	0	0	532	176	
9	0	0	0	0	531	177	
10	0	0	0	0	531	176	
11	0	0	0	0	530	176	
12	0	0	0	0	529	176	
13	0	0	0	0	528	176	
14	0	0	0	0	528	176	
15	0	0	0	0	529	176	
0	0	0	0	0	530	177	
1	0	0	0	0	531	176	
2	0	0	0	0	531	176	
3	0	0	0	0	532	176	
4	0	0	0	0	532	176	
5	0	0	0	0	532	177	
6	0	0	0	0	531	176	
7	0	0	0	0	530	177	
8	0	0	0	0	531	176	
9	0	0	0	0	532	176	
10	0	0	0	0	533	176	
11	0	0	0	0	533	176	
12	0	0	0	0	534	177	
13	0	0	0	0	535	176	
14	0	0	0	0	536	176	
15	0	0	0	0	537	176	
0	0	0	0	0	537	176	
1	0	0	0	0	537	176	
2	0	0	0	0	536	176	
3	0	0	0	0	536	177	
4	0	0	0	0	536	176	
5	0	0	0	0	533	177	
6	0	0	0	0	530	176	
7	0	0	0	0	528	177	
8	0	0	0	0	526	177	
9	0	0	0	0	526	176	
10	0	0	0	0	527	177	
11	0	0	0	0	527	176	
12	0	0	0	0	526	177	
13	0	0	0	0	526	176	
14	0	0	0	0	525	176	
15	0	0	0	0	524	177	
0	0	0	0	0	525	176	
1	0	0	0	0	525	177	
2	0	0	0	0	524	176	
3	0	0	0	0	524	176	
4	0	0	0	0	524	177	
5	0	0	0	0	523	176	
6	0	0	0	0	522	177	
7	0	0	0	0	520	176	
8	0	0	0	0	519	176	
9	0	0	0	0	519	177	
10	0	0	0	0	519	176	
11	0	0	0	0	519	177	
12	0	0	0	0	519	177	
13	0	0	0	0	518	176	
14	0	0	0	0	516	177	
15	0	0	0	0	515	176	
0	0	0	0	0	514	177	
1	0	0	0	0	513	177	
2	0	0	0	0	513	176	
3	0	0	0	0	512	177	
4	0	0	0	0	511	176	
5	0	0	0	0	511	177	
6	0	0	0	0	511	176	
7	0	0	0	0	513	176	
8	0	0	0	0	514	177	
9	0	0	0	0	513	176	
10	0	0	0	0	513	177	
11	0	0	0	0	514	176	
12	0	0	0	0	514	176	
13	0	0	0	0	514	177	
14	0	0	0	0	514	176	
15	0	0	0	0	515	177	
0	0	0	0	0	516	176	
1	0	0	0	0	517	177	
2	0	0	0	0	517	177	
3	0	0	0	0	516	176	
4	0	0	0	0	516	177	
5	0	0	0	0	516	176	
6	0	0	0	0	516	176	
7	0	0	0	0	515	177	
8	0	0	0	0	514	176	
9	0	0	0	0	512	177	
10	0	0	0	0	514	176	
11	0	0	0	0	516	176	
12	0	0	0	0	516	177	
13	0	0	0	0	515	176	
14	0	0	0	0	512	177	
15	0	0	0	0	512	176	
0	0	0	0	0	513	177	
1	0	0	0	0	513	176	
2	0	0	0	0	513	177	
3	0	0	0	0	514	177	
4	0	0	0	0	515	176	
5	0	0	0	0	516	177	
6	0	0	0	0	519	176	
7	0	0	0	0	520	177	
8	0	0	0	0	520	176	
9	0	0	0	0	521	177	
10	0	0	0	0	521	176	
11	0	0	0	0	520	177	
12	0	0	0	0	519	176	
13	0	0	0	0	517	177	
14	0	0	0	0	517	176	
15	0	0	0	0	517	176	
0	0	0	0	0	516	177	
1	0	0	0	0	515	176	
2	0	0	0	0	515	177	
3	0	0	0	0	514	176	
4	0	0	0	0	512	177	
5	0	0	0	0	511	176	
6	0	0	0	0	509	176	
7	0	0	0	0	508	177	
8	0	0	0	0	507	176	
9	0	0	0	0	506	177	
10	0	0	0	0	503	176	
11	0	0	0	0	501	177	
12	0	0	0	0	499	176	
13	0	0	0	0	498	176	
14	0	0	0	0	499	177	
15	0	0	0	0	499	176	
0	0	0	0	0	502	177	
1	0	0	0	0	504	176	
2	0	0	0	0	506	177	
3	0	0	0	0	506	176	
4	0	0	0	0	505	177	
5	0	0	0	0	505	177	
6	0	0	0	0	504	176	
7	0	0	0	0	504	177	
8	0	0	0	0	505	176	
9	0	0	0	0	509	177	
10	0	0	0	0	515	176	
11	0	0	0	0	524	177	
12	0	0	0	0	532	176	
13	0	0	0	0	540	177	
14	0	0	0	0	549	176	
15	0	0	0	0	559	176	
0	0	0	0	0	569	177	
1	0	0	0	0	580	176	
2	0	0	0	0	589	177	
3	0	0	0	0	599	176	
4	0	0	0	0	605	176	
5	0	0	0	0	611	176	
6	0	0	0	0	618	175	
7	0	0	0	0	624	176	
8	0	0	0	0	627	175	
9	0	0	0	0	628	176	
10	0	0	0	0	629	176	
11	0	0	0	0	628	176	
12	0	0	0	0	627	176	
13	0	0	0	0	625	175	
14	0	0	0	0	623	176	
15	0	0	0	0	619	175	
0	0	0	0	0	614	176	
1	0	0	0	0	609	176	
2	0	0	0	0	604	177	
3	0	0	0	0	598	176	
4	0	0	0	0	591	177	
5	0	0	0	0	585	176	
6	0	0	0	0	580	176	
7	0	0	0	0	575	176	
8	0	0	0	0	567	176	
9	0	0	0	0	559	177	
10	0	0	0	0	551	176	
11	0	0	0	0	544	176	
12	0	0	0	0	534	177	
13	0	0	0	0	522	176	
14	0	0	0	0	511	177	
15	0	0	0	0	501	176	
0	0	0	0	0	492	177	
1	0	0	0	0	486	176	
2	0	0	0	0	481	177	
3	0	0	0	0	477	177	
4	0	0	0	0	472	176	
5	0	0	0	0	468	177	
6	0	0	0	0	465	177	
7	0	0	0	0	462	177	
8	0	0	0	0	459	177	
9	0	0	0	0	457	176	
10	0	0	0	0	455	177	
11	0	0	0	0	455	176	
12	0	0	0	0	455	177	
13	0	0	0	0	457	177	
14	0	0	0	0	459	177	
15	0	0	0	0	463	177	
0	0	0	0	0	466	176	
1	0	0	0	0	467	177	
2	0	0	0	0	467	176	
3	0	0	0	0	467	177	
4	0	0	0	0	467	176	
5	0	0	0	0	468	177	
6	0	0	0	0	469	176	
7	0	0	0	0	470	177	
8	0	0	0	0	470	177	
9	0	0	0	0	472	177	
10	0	0	0	0	473	177	
11	0	0	0	0	472	176	
12	0	0	0	0	471	177	
13	0	0	0	0	471	176	
14	0	0	0	0	471	177	
15	0	0	0	0	473	177	
0	0	0	0	0	477	176	
1	0	0	0	0	481	177	
2	0	0	0	0	483	176	
3	0	0	0	0	486	177	
4	0	0	0	0	487	177	
5	0	0	0	0	487	176	
6	0	0	0	0	488	177	
7	0	0	0	0	487	176	
8	0	0	0	0	488	177	
9	0	0	0	0	487	177	
10	0	0	0	0	487	176	
11	0	0	0	0	487	177	
12	0	0	0	0	486	176	
13	0	0	0	0	484	177	
14	0	0	0	0	483	177	
15	0	0	0	0	482	176	
0	0	0	0	0	481	177	
1	0	0	0	0	481	176	
2	0	0	0	0	483	177	
3	0	0	0	0	486	177	
4	0	0	0	0	487	176	
5	0	0	0	0	488	177	
6	0	0	0	0	488	176	
7	0	0	0	0	491	177	
8	0	0	0	0	492	176	
9	0	0	0	0	494	177	
10	0	0	0	0	495	176	
11	0	0	0	0	497	177	
12	0	0	0	0	497	176	
13	0	0	0	0	496	177	
14	0	0	0	0	495	177	
15	0	0	0	0	493	176	
0	0	0	0	0	492	177	
1	0	0	0	0	493	176	
2	0	0	0	0	492	177	
3	0	0	0	0	491	176	
4	0	0	0	0	491	177	
5	0	0	0	0	491	176	
6	0	0	0	0	490	177	
7	0	0	0	0	492	177	
8	0	0	0	0	495	177	
9	0	0	0	0	496	177	
10	0	0	0	0	498	176	
11	0	0	0	0	500	177	
12	0	0	0	0	500	176	
13	0	0	0	0	501	177	
14	0	0	0	0	502	176	
15	0	0	0	0	502	177	
0	0	0	0	0	501	176	
1	0	0	0	0	501	177	
2	0	0	0	0	502	177	
3	0	0	0	0	503	176	
4	0	0	0	0	504	177	
5	0	0	0	0	505	176	
6	0	0	0	0	504	177	
7	0	0	0	0	504	177	
8	0	0	0	0	504	176	
9	0	0	0	0	504	177	
10	0	0	0	0	502	176	
11	0	0	0	0	500	177	
12	0	0	0	0	499	176	
13	0	0	0	0	499	177	
14	0	0	0	0	499	176	
15	0	0	0	0	499	177	
0	0	0	0	0	499	177	
1	0	0	0	0	500	176	
2	0	0	0	0	500	177	
3	0	0	0	0	501	176	
4	0	0	0	0	502	177	
5	0	0	0	0	503	176	
6	0	0	0	0	504	177	
7	0	0	0	0	504	176	
8	0	0	0	0	504	177	
9	0	0	0	0	505	176	
10	0	0	0	0	505	177	
11	0	0	0	0	506	177	
12	0	0	0	0	507	176	
13	0	0	0	0	507	177	
14	0	0	0	0	507	177	
15	0	0	0	0	508	177	
0	0	0	0	0	507	176	
1	0	0	0	0	507	177	
2	0	0	0	0	508	176	
3	0	0	0	0	510	177	
4	0	0	0	0	511	176	
5	0	0	0	0	512	177	
6	0	0	0	0	512	177	
7	0	0	0	0	513	176	
8	0	0	0	0	514	177	
9	0	0	0	0	513	176	
10	0	0	0	0	513	177	
11	0	0	0	0	512	177	
12	0	0	0	0	512	177	
13	0	0	0	0	511	177	
14	0	0	0	0	509	177	
15	0	0	0	0	507	176	
0	0	0	0	0	505	177	
1	0	0	0	0	505	176	
2	0	0	0	0	505	177	
3	0	0	0	0	506	176	
4	0	0	0	0	508	177	
5	0	0	0	0	512	177	
6	0	0	0	0	514	176	
7	0	0	0	0	517	177	
8	0	0	0	0	519	176	
9	0	0	0	0	521	177	
10	0	0	0	0	521	176	
11	0	0	0	0	521	177	
12	0	0	0	0	520	176	
13	0	0	0	0	520	177	
14	0	0	0	0	520	177	
15	0	0	0	0	519	176	
0	0	0	0	0	518	177	
1	0	0	0	0	518	176	
2	0	0	0	0	518	177	
3	0	0	0	0	519	176	
4	0	0	0	0	520	177	
5	0	0	0	0	523	177	
6	0	0	0	0	524	176	
7	0	0	0	0	524	177	
8	0	0	0	0	524	176	
9	0	0	0	0	524	177	
10	0	0	0	0	524	176	
11	0	0	0	0	524	176	
12	0	0	0	0	524	177	
13	0	0	0	0	523	176	
14	0	0	0	0	521	177	
15	0	0	0	0	521	176	
0	0	0	0	0	520	177	
1	0	0	0	0	521	176	
2	0	0	0	0	521	177	
3	0	0	0	0	521	176	
4	0	0	0	0	521	177	
5	0	0	0	0	521	177	
6	0	0	0	0	521	176	
7	0	0	0	0	521	177	
8	0	0	0	0	521	176	
9	0	0	0	0	521	177	
10	0	0	0	0	520	176	
11	0	0	0	0	520	177	
12	0	0	0	0	520	177	
13	0	0	0	0	520	176	
14	0	0	0	0	520	177	
15	0	0	0	0	520	176	
0	0	0	0	0	521	177	
1	0	0	0	0	520	176	
2	0	0	0	0	522	176	
3	0	0	0	0	522	177	
4	0	0	0	0	522	176	
5	0	0	0	0	523	177	
6	0	0	0	0	524	176	
7	0	0	0	0	526	177	
8	0	0	0	0	526	176	
9	0	0	0	0	527	177	
10	0	0	0	0	528	176	
11	0	0	0	0	529	177	
12	0	0	0	0	529	176	
13	0	0	0	0	526	176	
14	0	0	0	0	524	177	
15	0	0	0	0	523	176	
0	0	0	0	0	522	177	
1	0	0	0	0	522	176	
2	0	0	0	0	521	177	
3	0	0	0	0	521	177	
4	0	0	0	0	521	177	
5	0	0	0	0	521	176	
6	0	0	0	0	521	177	
7	0	0	0	0	524	177	
8	0	0	0	0	527	176	
9	0	0	0	0	530	177	
10	0	0	0	0	532	176	
11	0	0	0	0	533	177	
12	0	0	0	0	533	176	
13	0	0	0	0	534	177	
14	0	0	0	0	535	176	
15	0	0	0	0	536	177	
0	0	0	0	0	539	176	
1	0	0	0	0	541	177	
2	0	0	0	0	543	176	
3	0	0	0	0	542	177	
4	0	0	0	0	542	176	
5	0	0	0	0	542	177	
6	0	0	0	0	543	177	
7	0	0	0	0	544	177	
8	0	0	0	0	543	177	
9	0	0	0	0	543	176	
10	0	0	0	0	543	177	
11	0	0	0	0	543	176	
12	0	0	0	0	544	177	
13	0	0	0	0	545	176	
14	0	0	0	0	546	177	
15	0	0	0	0	546	177	
0	0	0	0	0	545	176	
1	0	0	0	0	544	177	
2	0	0	0	0	544	176	
3	0	0	0	0	545	177	
4	0	0	0	0	545	176	
5	0	0	0	0	546	177	
6	0	0	0	0	546	176	
7	0	0	0	0	546	177	
8	0	0	0	0	547	177	
9	0	0	0	0	549	177	
10	0	0	0	0	550	177	
11	0	0	0	0	552	176	
12	0	0	0	0	551	177	
13	0	0	0	0	551	176	
14	0	0	0	0	552	177	
15	0	0	0	0	552	176	
0	0	0	0	0	552	177	
1	0	0	0	0	553	176	
2	0	0	0	0	552	177	
3	0	0	0	0	551	176	
4	0	0	0	0	551	177	
5	0	0	0	0	550	177	
6	0	0	0	0	549	177	
7	0	0	0	0	549	176	
8	0	0	0	0	549	177	
9	0	0	0	0	550	177	
10	0	0	0	0	550	176	
11	0	0	0	0	550	177	
12	0	0	0	0	550	176	
13	0	0	0	0	549	177	
14	0	0	0	0	549	176	
15	0	0	0	0	547	177	
0	0	0	0	0	545	177	
1	0	0	0	0	543	176	
2	0	0	0	0	542	177	
3	0	0	0	0	540	176	
4	0	0	0	0	539	177	
5	0	0	0	0	537	176	
6	0	0	0	0	536	177	
7	0	0	0	0	533	176	
8	0	0	0	0	532	177	
9	0	0	0	0	531	177	
10	0	0	0	0	531	176	
11	0	0	0	0	530	177	
12	0	0	0	0	528	176	
13	0	0	0	0	527	177	
14	0	0	0	0	526	176	
15	0	0	0	0	525	177	
0	0	0	0	0	525	176	
1	0	0	0	0	524	177	
2	0	0	0	0	522	176	
3	0	0	0	0	520	177	
4	0	0	0	0	519	176	
5	0	0	0	0	518	177	
6	0	0	0	0	516	176	
7	0	0	0	0	514	177	
8	0	0	0	0	513	177	
9	0	0	0	0	514	177	
10	0	0	0	0	513	177	
11	0	0	0	0	513	176	
12	0	0	0	0	513	177	
13	0	0	0	0	513	176	
14	0	0	0	0	511	177	
15	0	0	0	0	510	177	
0	0	0	0	0	510	177	
1	0	0	0	0	509	177	
2	0	0	0	0	508	177	
3	0	0	0	0	507	177	
4	0	0	0	0	506	176	
5	0	0	0	0	505	177	
6	0	0	0	0	505	176	
7	0	0	0	0	507	177	
8	0	0	0	0	508	176	
9	0	0	0	0	510	177	
10	0	0	0	0	510	177	
11	0	0	0	0	510	177	
12	0	0	0	0	511	177	
13	0	0	0	0	511	177	
14	0	0	0	0	511	177	
15	0	0	0	0	512	177	
0	0	0	0	0	512	177	
1	0	0	0	0	514	176	
2	0	0	0	0	514	177	
3	0	0	0	0	512	176	
4	0	0	0	0	512	177	
5	0	0	0	0	512	176	
6	0	0	0	0	512	177	
7	0	0	0	0	512	176	
8	0	0	0	0	513	177	
9	0	0	0	0	515	177	
10	0	0	0	0	517	177	
11	0	0	0	0	516	177	
12	0	0	0	0	515	176	
13	0	0	0	0	513	177	
14	0	0	0	0	513	176	
15	0	0	0	0	512	177	
0	0	0	0	0	511	176	
1	0	0	0	0	511	177	
2	0	0	0	0	511	177	
3	0	0	0	0	510	177	
4	0	0	0	0	509	177	
5	0	0	0	0	509	177	
6	0	0	0	0	509	177	
7	0	0	0	0	509	176	
8	0	0	0	0	511	177	
9	0	0	0	0	512	176	
10	0	0	0	0	514	177	
11	0	0	0	0	515	176	
12	0	0	0	0	516	177	
13	0	0	0	0	518	177	
14	0	0	0	0	519	177	
15	0	0	0	0	520	177	
0	0	0	0	0	521	176	
1	0	0	0	0	521	177	
2	0	0	0	0	520	176	
3	0	0	0	0	519	177	
4	0	0	0	0	519	176	
5	0	0	0	0	519	177	
6	0	0	0	0	519	177	
7	0	0	0	0	519	177	
8	0	0	0	0	519	177	
9	0	0	0	0	518	176	
10	0	0	0	0	518	177	
11	0	0	0	0	518	176	
12	0	0	0	0	518	177	
13	0	0	0	0	519	176	
14	0	0	0	0	520	177	
15	0	0	0	0	520	176	
0	0	0	0	0	520	177	
1	0	0	0	0	521	177	
2	0	0	0	0	523	177	
3	0	0	0	0	524	177	
4	0	0	0	0	524	176	
5	0	0	0	0	527	177	
6	0	0	0	0	528	176	
7	0	0	0	0	531	177	
8	0	0	0	0	531	177	
9	0	0	0	0	529	177	
10	0	0	0	0	528	177	
11	0	0	0	0	528	176	
12	0	0	0	0	527	177	
13	0	0	0	0	528	176	
14	0	0	0	0	530	177	
15	0	0	0	0	531	176	
0	0	0	0	0	532	177	
1	0	0	0	0	534	176	
2	0	0	0	0	536	177	
3	0	0	0	0	537	177	
4	0	0	0	0	538	176	
5	0	0	0	0	539	177	
6	0	0	0	0	539	176	
7	0	0	0	0	539	177	
8	0	0	0	0	540	176	
9	0	0	0	0	543	177	
10	0	0	0	0	545	176	
11	0	0	0	0	548	177	
12	0	0	0	0	550	176	
13	0	0	0	0	550	177	
14	0	0	0	0	550	176	
15	0	0	0	0	552	177	
0	0	0	0	0	555	176	
1	0	0	0	0	557	177	
2	0	0	0	0	560	177	
3	0	0	0	0	562	176	
4	0	0	0	0	564	177	
5	0	0	0	0	566	176	
6	0	0	0	0	568	177	
7	0	0	0	0	569	176	
8	0	0	0	0	573	177	
9	0	0	0	0	576	176	
10	0	0	0	0	579	177	
11	0	0	0	0	583	177	
12	0	0	0	0	586	176	
13	0	0	0	0	589	177	
14	0	0	0	0	591	176	
15	0	0	0	0	593	177	
0	0	0	0	0	595	176	
1	0	0	0	0	597	177	
2	0	0	0	0	598	177	
3	0	0	0	0	599	176	
4	0	0	0	0	600	177	
5	0	0	0	0	601	176	
6	0	0	0	0	601	177	
7	0	0	0	0	603	176	
8	0	0	0	0	603	177	
9	0	0	0	0	603	176	
10	0	0	0	0	605	177	
11	0	0	0	0	605	176	
12	0	0	0	0	605	176	
13	0	0	0	0	605	177	
14	0	0	0	0	605	176	
15	0	0	0	0	607	177	
0	0	0	0	0	609	176	
1	0	0	0	0	612	177	
2	0	0	0	0	615	176	
3	0	0	0	0	615	177	
4	0	0	0	0	615	176	
5	0	0	0	0	616	177	
6	0	0	0	0	616	176	
7	0	0	0	0	618	177	
8	0	0	0	0	619	176	
9	0	0	0	0	622	176	
10	0	0	0	0	625	177	
11	0	0	0	0	626	176	
12	0	0	0	0	625	177	
13	0	0	0	0	624	176	
14	0	0	0	0	625	177	
15	0	0	0	0	625	176	
0	0	0	0	0	626	177	
1	0	0	0	0	628	176	
2	0	0	0	0	629	177	
3	0	0	0	0	631	176	
4	0	0	0	0	632	176	
5	0	0	0	0	634	177	
6	0	0	0	0	636	176	
7	0	0	0	0	637	177	
8	0	0	0	0	639	176	
9	0	0	0	0	640	177	
10	0	0	0	0	640	176	
11	0	0	0	0	640	177	
12	0	0	0	0	640	176	
13	0	0	0	0	639	176	
14	0	0	0	0	638	177	
15	0	0	0	0	637	176	
0	0	0	0	0	637	177	
1	0	0	0	0	636	176	
2	0	0	0	0	636	177	
3	0	0	0	0	635	176	
4	0	0	0	0	634	176	
5	0	0	0	0	633	177	
6	0	0	0	0	632	176	
7	0	0	0	0	632	177	
8	0	0	0	0	632	176	
9	0	0	0	0	632	177	
10	0	0	0	0	632	176	
11	0	0	0	0	631	176	
12	0	0	0	0	631	177	
13	0	0	0	0	630	176	
14	0	0	0	0	629	177	
15	0	0	0	0	629	176	
0	0	0	0	0	627	177	
1	0	0	0	0	627	176	
2	0	0	0	0	626	177	
3	0	0	0	0	624	176	
4	0	0	0	0	624	177	
5	0	0	0	0	622	176	
6	0	0	0	0	621	177	
7	0	0	0	0	620	176	
8	0	0	0	0	620	177	
9	0	0	0	0	621	177	
10	0	0	0	0	620	176	
11	0	0	0	0	621	177	
12	0	0	0	0	620	176	
13	0	0	0	0	619	177	
14	0	0	0	0	618	176	
15	0	0	0	0	616	177	
0	0	0	0	0	615	177	
1	0	0	0	0	615	177	
2	0	0	0	0	614	176	
3	0	0	0	0	614	177	
4	0	0	0	0	613	176	
5	0	0	0	0	612	177	
6	0	0	0	0	611	177	
7	0	0	0	0	608	176	
8	0	0	0	0	605	177	
9	0	0	0	0	603	176	
10	0	0	0	0	600	177	
11	0	0	0	0	597	177	
12	0	0	0	0	595	176	
13	0	0	0	0	594	177	
14	0	0	0	0	593	176	
15	0	0	0	0	593	177	
0	0	0	0	0	592	176	
1	0	0	0	0	591	177	
2	0	0	0	0	589	176	
3	0	0	0	0	588	177	
4	0	0	0	0	586	177	
5	0	0	0	0	583	177	
6	0	0	0	0	580	177	
7	0	0	0	0	580	177	
8	0	0	0	0	581	176	
9	0	0	0	0	584	177	
10	0	0	0	0	587	177	
11	0	0	0	0	590	176	
12	0	0	0	0	591	177	
13	0	0	0	0	591	176	
14	0	0	0	0	592	177	
15	0	0	0	0	593	176	
0	0	0	0	0	592	177	
1	0	0	0	0	592	177	
2	0	0	0	0	591	176	
3	0	0	0	0	589	177	
4	0	0	0	0	585	176	
5	0	0	0	0	582	177	
6	0	0	0	0	577	176	
7	0	0	0	0	575	176	
8	0	0	0	0	573	177	
9	0	0	0	0	571	176	
10	0	0	0	0	570	177	
11	0	0	0	0	570	176	
12	0	0	0	0	571	177	
13	0	0	0	0	572	176	
14	0	0	0	0	572	177	
15	0	0	0	0	572	176	
0	0	0	0	0	571	177	
1	0	0	0	0	569	177	
2	0	0	0	0	567	176	
3	0	0	0	0	566	177	
4	0	0	0	0	564	176	
5	0	0	0	0	563	177	
6	0	0	0	0	563	176	
7	0	0	0	0	562	177	
8	0	0	0	0	562	177	
9	0	0	0	0	563	177	
10	0	0	0	0	564	177	
11	0	0	0	0	565	176	
12	0	0	0	0	566	177	
13	0	0	0	0	565	176	
14	0	0	0	0	564	177	
15	0	0	0	0	563	176	
0	0	0	0	0	560	177	
1	0	0	0	0	559	177	
2	0	0	0	0	558	176	
3	0	0	0	0	556	177	
4	0	0	0	0	555	177	
5	0	0	0	0	554	177	
6	0	0	0	0	555	177	
7	0	0	0	0	555	176	
8	0	0	0	0	554	177	
9	0	0	0	0	555	176	
10	0	0	0	0	555	177	
11	0	0	0	0	554	177	
12	0	0	0	0	551	177	
13	0	0	0	0	550	177	
14	0	0	0	0	549	176	
15	0	0	0	0	549	177	
0	0	0	0	0	547	177	
1	0	0	0	0	546	177	
2	0	0	0	0	545	177	
3	0	0	0	0	544	176	
4	0	0	0	0	543	177	
5	0	0	0	0	542	177	
6	0	0	0	0	542	177	
7	0	0	0	0	543	177	
8	0	0	0	0	544	176	
9	0	0	0	0	546	177	
10	0	0	0	0	547	177	
11	0	0	0	0	548	177	
12	0	0	0	0	547	177	
13	0	0	0	0	547	176	
14	0	0	0	0	547	177	
15	0	0	0	0	548	177	
0	0	0	0	0	549	177	
1	0	0	0	0	549	177	
2	0	0	0	0	549	177	
3	0	0	0	0	549	177	
4	0	0	0	0	549	177	
5	0	0	0	0	548	177	
6	0	0	0	0	547	176	
7	0	0	0	0	545	177	
8	0	0	0	0	544	177	
9	0	0	0	0	543	177	
10	0	0	0	0	543	177	
11	0	0	0	0	543	176	
12	0	0	0	0	542	177	
13	0	0	0	0	542	176	
14	0	0	0	0	542	177	
15	0	0	0	0	542	177	
0	0	0	0	0	544	177	
1	0	0	0	0	546	177	
2	0	0	0	0	546	177	
3	0	0	0	0	547	177	
4	0	0	0	0	546	176	
5	0	0	0	0	545	177	
6	0	0	0	0	545	177	
7	0	0	0	0	544	177	
8	0	0	0	0	545	177	
9	0	0	0	0	544	176	
10	0	0	0	0	542	177	
11	0	0	0	0	540	176	
12	0	0	0	0	540	177	
13	0	0	0	0	540	177	
14	0	0	0	0	540	177	
15	0	0	0	0	540	177	
0	0	0	0	0	539	176	
1	0	0	0	0	537	177	
2	0	0	0	0	537	177	
3	0	0	0	0	536	177	
4	0	0	0	0	537	177	
5	0	0	0	0	536	177	
6	0	0	0	0	536	177	
7	0	0	0	0	537	177	
8	0	0	0	0	540	177	
9	0	0	0	0	540	176	
10	0	0	0	0	541	177	
11	0	0	0	0	541	176	
12	0	0	0	0	542	177	
13	0	0	0	0	543	177	
14	0	0	0	0	544	177	
15	0	0	0	0	545	177	
0	0	0	0	0	545	176	
1	0	0	0	0	546	177	
2	0	0	0	0	547	176	
3	0	0	0	0	547	177	
4	0	0	0	0	547	177	
5	0	0	0	0	548	177	
6	0	0	0	0	549	177	
7	0	0	0	0	549	177	
8	0	0	0	0	549	177	
9	0	0	0	0	550	176	
10	0	0	0	0	551	177	
11	0	0	0	0	553	176	
12	0	0	0	0	552	177	
13	0	0	0	0	553	176	
14	0	0	0	0	554	177	
15	0	0	0	0	554	177	
0	0	0	0	0	554	177	
1	0	0	0	0	553	177	
2	0	0	0	0	551	176	
3	0	0	0	0	550	177	
4	0	0	0	0	550	176	
5	0	0	0	0	550	177	
6	0	0	0	0	550	176	
7	0	0	0	0	551	177	
8	0	0	0	0	551	176	
9	0	0	0	0	552	177	
10	0	0	0	0	552	176	
11	0	0	0	0	551	177	
12	0	0	0	0	551	177	
13	0	0	0	0	551	177	
14	0	0	0	0	552	177	
15	0	0	0	0	554	177	
0	0	0	0	0	556	177	
1	0	0	0	0	558	176	
2	0	0	0	0	559	177	
3	0	0	0	0	561	176	
4	0	0	0	0	562	177	
5	0	0	0	0	562	176	
6	0	0	0	0	563	177	
7	0	0	0	0	564	177	
8	0	0	0	0	566	176	
9	0	0	0	0	567	177	
10	0	0	0	0	568	176	
11	0	0	0	0	570	177	
12	0	0	0	0	570	176	
13	0	0	0	0	568	177	
14	0	0	0	0	568	176	
15	0	0	0	0	567	177	
0	0	0	0	0	567	177	
1	0	0	0	0	568	177	
2	0	0	0	0	568	177	
3	0	0	0	0	567	176	
4	0	0	0	0	565	177	
5	0	0	0	0	564	176	
6	0	0	0	0	565	177	
7	0	0	0	0	565	176	
8	0	0	0	0	565	177	
9	0	0	0	0	566	177	
10	0	0	0	0	566	176	
11	0	0	0	0	566	177	
12	0	0	0	0	566	176	
13	0	0	0	0	567	177	
14	0	0	0	0	567	176	
15	0	0	0	0	566	177	
0	0	0	0	0	566	177	
1	0	0	0	0	564	177	
2	0	0	0	0	564	177	
3	0	0	0	0	563	176	
4	0	0	0	0	563	177	
5	0	0	0	0	563	176	
6	0	0	0	0	563	177	
7	0	0	0	0	563	176	
8	0	0	0	0	563	177	
9	0	0	0	0	563	177	
10	0	0	0	0	562	177	
11	0	0	0	0	562	176	
12	0	0	0	0	564	177	
13	0	0	0	0	564	176	
14	0	0	0	0	563	177	
15	0	0	0	0	562	177	
0	0	0	0	0	561	177	
1	0	0	0	0	561	177	
2	0	0	0	0	561	176	
3	0	0	0	0	562	177	
4	0	0	0	0	563	176	
5	0	0	0	0	563	177	
6	0	0	0	0	564	177	
7	0	0	0	0	563	177	
8	0	0	0	0	562	177	
9	0	0	0	0	561	177	
10	0	0	0	0	560	177	
11	0	0	0	0	561	176	
12	0	0	0	0	562	177	
13	0	0	0	0	564	176	
14	0	0	0	0	566	177	
15	0	0	0	0	567	177	
0	0	0	0	0	567	177	
1	0	0	0	0	568	177	
2	0	0	0	0	569	177	
3	0	0	0	0	571	177	
4	0	0	0	0	570	177	
5	0	0	0	0	571	177	
6	0	0	0	0	571	177	
7	0	0	0	0	570	177	
8	0	0	0	0	568	176	
9	0	0	0	0	566	177	
10	0	0	0	0	564	176	
11	0	0	0	0	562	177	
12	0	0	0	0	561	176	
13	0	0	0	0	560	177	
14	0	0	0	0	562	176	
15	0	0	0	0	564	177	
0	0	0	0	0	567	177	
1	0	0	0	0	569	177	
2	0	0	0	0	572	177	
3	0	0	0	0	574	177	
4	0	0	0	0	576	177	
5	0	0	0	0	577	176	
6	0	0	0	0	579	177	
7	0	0	0	0	579	176	
8	0	0	0	0	579	177	
9	0	0	0	0	578	176	
10	0	0	0	0	577	177	
11	0	0	0	0	575	177	
12	0	0	0	0	572	176	
13	0	0	0	0	571	177	
14	0	0	0	0	572	176	
15	0	0	0	0	573	177	
0	0	0	0	0	572	177	
1	0	0	0	0	573	177	
2	0	0	0	0	573	177	
3	0	0	0	0	573	177	
4	0	0	0	0	575	177	
5	0	0	0	0	579	177	
6	0	0	0	0	583	176	
7	0	0	0	0	584	177	
8	0	0	0	0	585	176	
9	0	0	0	0	586	177	
10	0	0	0	0	587	176	
11	0	0	0	0	588	177	
12	0	0	0	0	589	176	
13	0	0	0	0	590	177	
14	0	0	0	0	592	177	
15	0	0	0	0	594	177	
0	0	0	0	0	595	177	
1	0	0	0	0	595	177	
2	0	0	0	0	595	177	
3	0	0	0	0	595	177	
4	0	0	0	0	595	176	
5	0	0	0	0	595	177	
6	0	0	0	0	596	177	
7	0	0	0	0	597	176	
8	0	0	0	0	598	177	
9	0	0	0	0	599	176	
10	0	0	0	0	601	177	
11	0	0	0	0	600	176	
12	0	0	0	0	601	177	
13	0	0	0	0	601	177	
14	0	0	0	0	600	177	
15	0	0	0	0	599	177	
0	0	0	0	0	598	176	
1	0	0	0	0	598	177	
2	0	0	0	0	596	176	
3	0	0	0	0	593	177	
4	0	0	0	0	590	177	
5	0	0	0	0	587	176	
6	0	0	0	0	584	177	
7	0	0	0	0	583	176	
8	0	0	0	0	581	177	
9	0	0	0	0	583	176	
10	0	0	0	0	582	177	
11	0	0	0	0	583	177	
12	0	0	0	0	583	176	
13	0	0	0	0	585	177	
14	0	0	0	0	590	176	
15	0	0	0	0	593	177	
0	0	0	0	0	598	176	
1	0	0	0	0	600	177	
2	0	0	0	0	602	177	
3	0	0	0	0	601	176	
4	0	0	0	0	600	177	
5	0	0	0	0	598	176	
6	0	0	0	0	595	177	
7	0	0	0	0	594	176	
8	0	0	0	0	593	177	
9	0	0	0	0	593	176	
10	0	0	0	0	591	177	
11	0	0	0	0	588	177	
12	0	0	0	0	586	177	
13	0	0	0	0	584	177	
14	0	0	0	0	583	176	
15	0	0	0	0	583	177	
0	0	0	0	0	582	176	
1	0	0	0	0	582	177	
2	0	0	0	0	583	177	
3	0	0	0	0	584	177	
4	0	0	0	0	585	176	
5	0	0	0	0	587	177	
6	0	0	0	0	587	177	
7	0	0	0	0	588	176	
8	0	0	0	0	587	177	
9	0	0	0	0	586	176	
10	0	0	0	0	586	177	
11	0	0	0	0	585	176	
12	0	0	0	0	585	177	
13	0	0	0	0	584	176	
14	0	0	0	0	583	177	
15	0	0	0	0	582	177	
0	0	0	0	0	579	176	
1	0	0	0	0	576	177	
2	0	0	0	0	573	176	
3	0	0	0	0	572	177	
4	0	0	0	0	570	177	
5	0	0	0	0	569	177	
6	0	0	0	0	568	177	
7	0	0	0	0	568	176	
8	0	0	0	0	568	177	
9	0	0	0	0	565	176	
10	0	0	0	0	565	177	
11	0	0	0	0	565	177	
12	0	0	0	0	564	177	
13	0	0	0	0	566	177	
14	0	0	0	0	563	176	
15	0	0	0	0	563	177	
0	0	0	0	0	561	176	
1	0	0	0	0	559	177	
2	0	0	0	0	557	177	
3	0	0	0	0	556	177	
4	0	0	0	0	554	177	
5	0	0	0	0	551	177	
6	0	0	0	0	549	177	
7	0	0	0	0	548	177	
8	0	0	0	0	546	177	
9	0	0	0	0	544	177	
10	0	0	0	0	543	177	
11	0	0	0	0	543	176	
12	0	0	0	0	543	177	
13	0	0	0	0	541	177	
14	0	0	0	0	540	177	
15	0	0	0	0	539	177	
0	0	0	0	0	538	177	
1	0	0	0	0	536	177	
2	0	0	0	0	535	177	
3	0	0	0	0	534	177	
4	0	0	0	0	533	177	
5	0	0	0	0	531	177	
6	0	0	0	0	531	177	
7	0	0	0	0	530	177	
8	0	0	0	0	531	177	
9	0	0	0	0	531	176	
10	0	0	0	0	530	177	
11	0	0	0	0	529	177	
12	0	0	0	0	527	177	
13	0	0	0	0	527	177	
14	0	0	0	0	527	176	
15	0	0	0	0	527	177	
0	0	0	0	0	527	176	
1	0	0	0	0	526	177	
2	0	0	0	0	525	177	
3	0	0	0	0	524	177	
4	0	0	0	0	524	177	
5	0	0	0	0	523	177	
6	0	0	0	0	522	177	
7	0	0	0	0	521	177	
8	0	0	0	0	520	177	
9	0	0	0	0	520	177	
10	0	0	0	0	521	178	
11	0	0	0	0	521	177	
12	0	0	0	0	522	176	
13	0	0	0	0	523	177	
14	0	0	0	0	522	176	
15	0	0	0	0	523	177	
0	0	0	0	0	523	177	
1	0	0	0	0	524	177	
2	0	0	0	0	524	177	
3	0	0	0	0	524	178	
4	0	0	0	0	523	177	
5	0	0	0	0	523	177	
6	0	0	0	0	523	177	
7	0	0	0	0	524	177	
8	0	0	0	0	523	177	
9	0	0	0	0	523	177	
10	0	0	0	0	522	177	
11	0	0	0	0	523	177	
12	0	0	0	0	524	178	
13	0	0	0	0	524	177	
14	0	0	0	0	524	176	
15	0	0	0	0	524	177	
0	0	0	0	0	524	177	
1	0	0	0	0	523	177	
2	0	0	0	0	522	177	
3	0	0	0	0	522	177	
4	0	0	0	0	522	177	
5	0	0	0	0	523	177	
6	0	0	0	0	522	177	
7	0	0	0	0	522	177	
8	0	0	0	0	520	177	
9	0	0	0	0	519	177	
10	0	0	0	0	520	176	
11	0	0	0	0	519	177	
12	0	0	0	0	519	176	
13	0	0	0	0	519	177	
14	0	0	0	0	522	177	
15	0	0	0	0	525	177	
0	0	0	0	0	527	177	
1	0	0	0	0	529	177	
2	0	0	0	0	531	177	
3	0	0	0	0	532	176	
4	0	0	0	0	530	177	
5	0	0	0	0	529	177	
6	0	0	0	0	528	177	
7	0	0	0	0	527	177	
8	0	0	0	0	525	177	
9	0	0	0	0	524	177	
10	0	0	0	0	523	177	
11	0	0	0	0	522	177	
12	0	0	0	0	521	177	
13	0	0	0	0	519	176	
14	0	0	0	0	518	177	
15	0	0	0	0	518	176	
0	0	0	0	0	518	177	
1	0	0	0	0	519	177	
2	0	0	0	0	520	177	
3	0	0	0	0	521	176	
4	0	0	0	0	523	177	
5	0	0	0	0	524	177	
6	0	0	0	0	523	177	
7	0	0	0	0	523	177	
8	0	0	0	0	522	177	
9	0	0	0	0	521	177	
10	0	0	0	0	521	177	
11	0	0	0	0	521	177	
12	0	0	0	0	520	177	
13	0	0	0	0	520	177	
14	0	0	0	0	519	178	
15	0	0	0	0	518	177	
0	0	0	0	0	517	178	
1	0	0	0	0	515	177	
2	0	0	0	0	515	177	
3	0	0	0	0	513	177	
4	0	0	0	0	512	177	
5	0	0	0	0	512	177	
6	0	0	0	0	510	177	
7	0	0	0	0	509	178	
8	0	0	0	0	508	177	
9	0	0	0	0	508	178	
10	0	0	0	0	508	177	
11	0	0	0	0	507	177	
12	0	0	0	0	507	177	
13	0	0	0	0	506	177	
14	0	0	0	0	505	178	
15	0	0	0	0	505	177	
0	0	0	0	0	505	177	
1	0	0	0	0	504	177	
2	0	0	0	0	504	177	
3	0	0	0	0	504	177	
4	0	0	0	0	504	177	
5	0	0	0	0	503	178	
6	0	0	0	0	503	177	
7	0	0	0	0	502	177	
8	0	0	0	0	500	177	
9	0	0	0	0	500	177	
10	0	0	0	0	499	178	
11	0	0	0	0	501	177	
12	0	0	0	0	502	177	
13	0	0	0	0	504	177	
14	0	0	0	0	505	177	
15	0	0	0	0	507	177	
0	0	0	0	0	508	177	
1	0	0	0	0	510	178	
2	0	0	0	0	511	177	
3	0	0	0	0	512	177	
4	0	0	0	0	512	177	
5	0	0	0	0	513	177	
6	0	0	0	0	514	177	
7	0	0	0	0	515	177	
8	0	0	0	0	515	178	
9	0	0	0	0	515	177	
10	0	0	0	0	515	177	
11	0	0	0	0	515	177	
12	0	0	0	0	516	177	
13	0	0	0	0	518	177	
14	0	0	0	0	519	177	
15	0	0	0	0	521	177	
0	0	0	0	0	523	177	
1	0	0	0	0	522	177	
2	0	0	0	0	522	177	
3	0	0	0	0	524	178	
4	0	0	0	0	526	177	
5	0	0	0	0	527	177	
6	0	0	0	0	528	177	
7	0	0	0	0	530	176	
8	0	0	0	0	532	177	
9	0	0	0	0	535	177	
10	0	0	0	0	535	178	
11	0	0	0	0	534	177	
12	0	0	0	0	534	177	
13	0	0	0	0	533	177	
14	0	0	0	0	534	176	
15	0	0	0	0	535	177	
0	0	0	0	0	536	177	
1	0	0	0	0	537	177	
2	0	0	0	0	537	177	
3	0	0	0	0	538	178	
4	0	0	0	0	539	177	
5	0	0	0	0	539	176	
6	0	0	0	0	542	177	
7	0	0	0	0	544	177	
8	0	0	0	0	547	177	
9	0	0	0	0	550	177	
10	0	0	0	0	552	177	
11	0	0	0	0	555	177	
12	0	0	0	0	559	176	
13	0	0	0	0	563	177	
14	0	0	0	0	568	176	
15	0	0	0	0	571	177	
0	0	0	0	0	579	177	
1	0	0	0	0	587	177	
2	0	0	0	0	595	177	
3	0	0	0	0	603	177	
4	0	0	0	0	615	177	
5	0	0	0	0	627	176	
6	0	0	0	0	639	177	
7	0	0	0	0	651	176	
8	0	0	0	0	662	177	
9	0	0	0	0	673	176	
10	0	0	0	0	683	177	
11	0	0	0	0	690	176	
12	0	0	0	0	696	176	
13	0	0	0	0	701	176	
14	0	0	0	0	708	176	
15	0	0	0	0	715	177	
0	0	0	0	0	719	177	
1	0	0	0	0	719	177	
2	0	0	0	0	718	176	
3	0	0	0	0	718	177	
4	0	0	0	0	719	176	
5	0	0	0	0	718	177	
6	0	0	0	0	717	176	
7	0	0	0	0	713	176	
8	0	0	0	0	707	177	
9	0	0	0	0	701	176	
10	0	0	0	0	695	177	
11	0	0	0	0	689	176	
12	0	0	0	0	683	176	
13	0	0	0	0	679	177	
14	0	0	0	0	674	176	
15	0	0	0	0	666	177	
0	0	0	0	0	657	176	
1	0	0	0	0	647	177	
2	0	0	0	0	637	177	
3	0	0	0	0	627	176	
4	0	0	0	0	616	177	
5	0	0	0	0	608	176	
6	0	0	0	0	600	177	
7	0	0	0	0	594	176	
8	0	0	0	0	589	178	
9	0	0	0	0	586	177	
10	0	0	0	0	583	176	
11	0	0	0	0	580	177	
12	0	0	0	0	575	176	
13	0	0	0	0	572	177	
14	0	0	0	0	569	177	
15	0	0	0	0	569	177	
0	0	0	0	0	568	177	
1	0	0	0	0	569	177	
2	0	0	0	0	571	178	
3	0	0	0	0	573	177	
4	0	0	0	0	576	176	
5	0	0	0	0	580	177	
6	0	0	0	0	584	176	
7	0	0	0	0	590	177	
8	0	0	0	0	594	177	
9	0	0	0	0	598	176	
10	0	0	0	0	600	177	
11	0	0	0	0	601	177	
12	0	0	0	0	602	176	
13	0	0	0	0	603	177	
14	0	0	0	0	605	177	
15	0	0	0	0	606	177	
0	0	0	0	0	607	177	
1	0	0	0	0	609	176	
2	0	0	0	0	608	177	
3	0	0	0	0	609	176	
4	0	0	0	0	609	177	
5	0	0	0	0	608	176	
6	0	0	0	0	608	177	
7	0	0	0	0	608	177	
8	0	0	0	0	608	177	
9	0	0	0	0	611	177	
10	0	0	0	0	614	176	
11	0	0	0	0	617	177	
12	0	0	0	0	620	176	
13	0	0	0	0	623	177	
14	0	0	0	0	623	176	
15	0	0	0	0	623	177	
0	0	0	0	0	624	177	
1	0	0	0	0	623	176	
2	0	0	0	0	624	177	
3	0	0	0	0	623	176	
4	0	0	0	0	623	177	
5	0	0	0	0	624	177	
6	0	0	0	0	624	177	
7	0	0	0	0	624	177	
8	0	0	0	0	625	176	
9	0	0	0	0	627	177	
10	0	0	0	0	628	176	
11	0	0	0	0	628	177	
12	0	0	0	0	630	176	
13	0	0	0	0	631	177	
14	0	0	0	0	632	176	
15	0	0	0	0	632	177	
0	0	0	0	0	632	177	
1	0	0	0	0	632	176	
2	0	0	0	0	633	177	
