# OpenSignals Text File Format. Version 1
# {"98:D3:B1:FD:3D:90": {"position": 0, "device": "bitalino_rev", "device name": "98:D3:B1:FD:3D:90", "device connection": "BTH98:D3:B1:FD:3D:90", "sampling rate": 1000, "resolution": [4, 1, 1, 1, 1, 10, 10], "firmware version": 1281, "comments": "", "keywords": "", "mode": 0, "sync interval": 2, "date": "2022-3-24", "time": "20:32:41.9", "channels": [2, 3], "sensor": ["ECGBIT", "EDABITREV"], "label": ["A2", "A3"], "column": ["nSeq", "I1", "I2", "O1", "O2", "A2", "A3"], "special": [{}, {}], "digital IO": [0, 0, 1, 1]}}
# EndOfHeader
0	0	0	0	0	495	149	
1	0	0	0	0	493	148	
2	0	0	0	0	491	147	
3	0	0	0	0	489	148	
4	0	0	0	0	488	148	
5	0	0	0	0	487	149	
6	0	0	0	0	486	149	
7	0	0	0	0	484	148	
8	0	0	0	0	483	148	
9	0	0	0	0	479	149	
10	0	0	0	0	476	149	
11	0	0	0	0	473	149	
12	0	0	0	0	471	148	
13	0	0	0	0	469	148	
14	0	0	0	0	468	149	
15	0	0	0	0	467	149	
0	0	0	0	0	467	149	
1	0	0	0	0	468	148	
2	0	0	0	0	469	148	
3	0	0	0	0	470	148	
4	0	0	0	0	471	149	
5	0	0	0	0	472	149	
6	0	0	0	0	473	149	
7	0	0	0	0	476	148	
8	0	0	0	0	479	147	
9	0	0	0	0	482	148	
10	0	0	0	0	485	148	
11	0	0	0	0	486	149	
12	0	0	0	0	487	149	
13	0	0	0	0	487	148	
14	0	0	0	0	486	147	
15	0	0	0	0	487	148	
0	0	0	0	0	486	149	
1	0	0	0	0	483	149	
2	0	0	0	0	481	149	
3	0	0	0	0	480	148	
4	0	0	0	0	481	148	
5	0	0	0	0	481	148	
6	0	0	0	0	480	149	
7	0	0	0	0	480	149	
8	0	0	0	0	479	148	
9	0	0	0	0	479	148	
10	0	0	0	0	477	148	
11	0	0	0	0	476	149	
12	0	0	0	0	476	149	
13	0	0	0	0	475	148	
14	0	0	0	0	474	147	
15	0	0	0	0	473	148	
0	0	0	0	0	473	149	
1	0	0	0	0	472	149	
2	0	0	0	0	472	148	
3	0	0	0	0	472	148	
4	0	0	0	0	474	148	
5	0	0	0	0	476	149	
6	0	0	0	0	478	149	
7	0	0	0	0	479	149	
8	0	0	0	0	482	149	
9	0	0	0	0	483	148	
10	0	0	0	0	485	148	
11	0	0	0	0	488	148	
12	0	0	0	0	491	149	
13	0	0	0	0	493	149	
14	0	0	0	0	493	147	
15	0	0	0	0	492	148	
0	0	0	0	0	491	148	
1	0	0	0	0	491	149	
2	0	0	0	0	491	149	
3	0	0	0	0	489	148	
4	0	0	0	0	488	147	
5	0	0	0	0	488	147	
6	0	0	0	0	490	148	
7	0	0	0	0	492	148	
8	0	0	0	0	493	149	
9	0	0	0	0	494	149	
10	0	0	0	0	493	148	
11	0	0	0	0	493	147	
12	0	0	0	0	494	147	
13	0	0	0	0	494	148	
14	0	0	0	0	493	148	
15	0	0	0	0	492	149	
0	0	0	0	0	492	148	
1	0	0	0	0	492	147	
2	0	0	0	0	491	148	
3	0	0	0	0	489	148	
4	0	0	0	0	487	148	
5	0	0	0	0	487	149	
6	0	0	0	0	486	148	
7	0	0	0	0	485	148	
8	0	0	0	0	484	148	
9	0	0	0	0	484	149	
10	0	0	0	0	486	149	
11	0	0	0	0	490	148	
12	0	0	0	0	493	148	
13	0	0	0	0	496	148	
14	0	0	0	0	498	148	
15	0	0	0	0	503	149	
0	0	0	0	0	505	147	
1	0	0	0	0	509	148	
2	0	0	0	0	511	148	
3	0	0	0	0	511	148	
4	0	0	0	0	512	149	
5	0	0	0	0	513	147	
6	0	0	0	0	514	148	
7	0	0	0	0	513	148	
8	0	0	0	0	512	148	
9	0	0	0	0	510	148	
10	0	0	0	0	507	147	
11	0	0	0	0	506	148	
12	0	0	0	0	507	148	
13	0	0	0	0	507	149	
14	0	0	0	0	507	147	
15	0	0	0	0	508	148	
0	0	0	0	0	507	148	
1	0	0	0	0	505	149	
2	0	0	0	0	505	149	
3	0	0	0	0	504	148	
4	0	0	0	0	504	148	
5	0	0	0	0	504	148	
6	0	0	0	0	502	149	
7	0	0	0	0	501	147	
8	0	0	0	0	500	148	
9	0	0	0	0	499	148	
10	0	0	0	0	499	149	
11	0	0	0	0	497	148	
12	0	0	0	0	497	147	
13	0	0	0	0	496	148	
14	0	0	0	0	496	148	
15	0	0	0	0	496	149	
0	0	0	0	0	495	147	
1	0	0	0	0	494	148	
2	0	0	0	0	495	148	
3	0	0	0	0	495	148	
4	0	0	0	0	495	149	
5	0	0	0	0	496	147	
6	0	0	0	0	497	148	
7	0	0	0	0	499	148	
8	0	0	0	0	500	148	
9	0	0	0	0	503	149	
10	0	0	0	0	504	149	
11	0	0	0	0	504	147	
12	0	0	0	0	504	148	
13	0	0	0	0	505	148	
14	0	0	0	0	505	149	
15	0	0	0	0	506	147	
0	0	0	0	0	506	147	
1	0	0	0	0	507	148	
2	0	0	0	0	508	148	
3	0	0	0	0	508	148	
4	0	0	0	0	509	147	
5	0	0	0	0	509	148	
6	0	0	0	0	508	148	
7	0	0	0	0	508	148	
8	0	0	0	0	508	149	
9	0	0	0	0	508	147	
10	0	0	0	0	508	148	
11	0	0	0	0	508	148	
12	0	0	0	0	508	149	
13	0	0	0	0	507	149	
14	0	0	0	0	505	147	
15	0	0	0	0	504	148	
0	0	0	0	0	503	148	
1	0	0	0	0	503	149	
2	0	0	0	0	503	148	
3	0	0	0	0	501	147	
4	0	0	0	0	501	148	
5	0	0	0	0	501	148	
6	0	0	0	0	503	148	
7	0	0	0	0	507	149	
8	0	0	0	0	510	147	
9	0	0	0	0	512	148	
10	0	0	0	0	515	148	
11	0	0	0	0	518	148	
12	0	0	0	0	521	148	
13	0	0	0	0	523	147	
14	0	0	0	0	525	148	
15	0	0	0	0	526	148	
0	0	0	0	0	525	149	
1	0	0	0	0	524	147	
2	0	0	0	0	524	148	
3	0	0	0	0	522	148	
4	0	0	0	0	520	149	
5	0	0	0	0	519	147	
6	0	0	0	0	517	148	
7	0	0	0	0	516	148	
8	0	0	0	0	515	148	
9	0	0	0	0	513	148	
10	0	0	0	0	512	147	
11	0	0	0	0	510	148	
12	0	0	0	0	509	148	
13	0	0	0	0	508	149	
14	0	0	0	0	508	147	
15	0	0	0	0	508	147	
0	0	0	0	0	508	148	
1	0	0	0	0	507	149	
2	0	0	0	0	506	148	
3	0	0	0	0	505	147	
4	0	0	0	0	505	148	
5	0	0	0	0	504	148	
6	0	0	0	0	502	149	
7	0	0	0	0	501	148	
8	0	0	0	0	500	147	
9	0	0	0	0	499	148	
10	0	0	0	0	499	148	
11	0	0	0	0	499	149	
12	0	0	0	0	500	148	
13	0	0	0	0	502	148	
14	0	0	0	0	504	148	
15	0	0	0	0	505	148	
0	0	0	0	0	507	149	
1	0	0	0	0	507	147	
2	0	0	0	0	508	147	
3	0	0	0	0	508	148	
4	0	0	0	0	507	148	
5	0	0	0	0	506	149	
6	0	0	0	0	505	147	
7	0	0	0	0	504	147	
8	0	0	0	0	503	148	
9	0	0	0	0	503	148	
10	0	0	0	0	503	149	
11	0	0	0	0	502	148	
12	0	0	0	0	501	147	
13	0	0	0	0	499	148	
14	0	0	0	0	498	148	
15	0	0	0	0	497	148	
0	0	0	0	0	497	148	
1	0	0	0	0	497	147	
2	0	0	0	0	496	148	
3	0	0	0	0	496	149	
4	0	0	0	0	496	149	
5	0	0	0	0	496	148	
6	0	0	0	0	496	148	
7	0	0	0	0	495	148	
8	0	0	0	0	494	148	
9	0	0	0	0	492	149	
10	0	0	0	0	492	147	
11	0	0	0	0	494	148	
12	0	0	0	0	497	148	
13	0	0	0	0	499	148	
14	0	0	0	0	502	149	
15	0	0	0	0	504	148	
0	0	0	0	0	505	147	
1	0	0	0	0	507	148	
2	0	0	0	0	508	148	
3	0	0	0	0	510	148	
4	0	0	0	0	510	147	
5	0	0	0	0	510	148	
6	0	0	0	0	509	148	
7	0	0	0	0	508	148	
8	0	0	0	0	507	149	
9	0	0	0	0	507	147	
10	0	0	0	0	507	147	
11	0	0	0	0	506	147	
12	0	0	0	0	507	148	
13	0	0	0	0	507	148	
14	0	0	0	0	507	148	
15	0	0	0	0	506	149	
0	0	0	0	0	505	148	
1	0	0	0	0	505	147	
2	0	0	0	0	505	148	
3	0	0	0	0	505	148	
4	0	0	0	0	504	148	
5	0	0	0	0	503	149	
6	0	0	0	0	502	148	
7	0	0	0	0	500	147	
8	0	0	0	0	499	148	
9	0	0	0	0	497	148	
10	0	0	0	0	497	148	
11	0	0	0	0	497	148	
12	0	0	0	0	497	147	
13	0	0	0	0	496	148	
14	0	0	0	0	498	148	
15	0	0	0	0	500	148	
0	0	0	0	0	501	149	
1	0	0	0	0	503	149	
2	0	0	0	0	503	148	
3	0	0	0	0	503	147	
4	0	0	0	0	503	148	
5	0	0	0	0	502	148	
6	0	0	0	0	502	148	
7	0	0	0	0	502	149	
8	0	0	0	0	502	147	
9	0	0	0	0	504	148	
10	0	0	0	0	506	148	
11	0	0	0	0	508	148	
12	0	0	0	0	512	149	
13	0	0	0	0	514	148	
14	0	0	0	0	516	147	
15	0	0	0	0	516	147	
0	0	0	0	0	515	148	
1	0	0	0	0	513	148	
2	0	0	0	0	513	148	
3	0	0	0	0	511	149	
4	0	0	0	0	509	147	
5	0	0	0	0	507	148	
6	0	0	0	0	505	148	
7	0	0	0	0	504	148	
8	0	0	0	0	504	149	
9	0	0	0	0	504	147	
10	0	0	0	0	504	147	
11	0	0	0	0	504	148	
12	0	0	0	0	504	148	
13	0	0	0	0	503	148	
14	0	0	0	0	503	148	
15	0	0	0	0	502	147	
0	0	0	0	0	501	147	
1	0	0	0	0	501	147	
2	0	0	0	0	500	147	
3	0	0	0	0	501	148	
4	0	0	0	0	502	148	
5	0	0	0	0	504	148	
6	0	0	0	0	508	148	
7	0	0	0	0	509	149	
8	0	0	0	0	510	147	
9	0	0	0	0	511	148	
10	0	0	0	0	511	148	
11	0	0	0	0	511	148	
12	0	0	0	0	510	149	
13	0	0	0	0	509	147	
14	0	0	0	0	510	148	
15	0	0	0	0	508	148	
0	0	0	0	0	508	148	
1	0	0	0	0	508	148	
2	0	0	0	0	509	148	
3	0	0	0	0	509	148	
4	0	0	0	0	510	147	
5	0	0	0	0	510	147	
6	0	0	0	0	509	148	
7	0	0	0	0	509	148	
8	0	0	0	0	510	148	
9	0	0	0	0	510	149	
10	0	0	0	0	511	148	
11	0	0	0	0	511	147	
12	0	0	0	0	511	147	
13	0	0	0	0	511	148	
14	0	0	0	0	511	148	
15	0	0	0	0	510	149	
0	0	0	0	0	508	148	
1	0	0	0	0	505	147	
2	0	0	0	0	504	148	
3	0	0	0	0	504	148	
4	0	0	0	0	505	148	
5	0	0	0	0	507	149	
6	0	0	0	0	509	147	
7	0	0	0	0	511	147	
8	0	0	0	0	512	147	
9	0	0	0	0	512	148	
10	0	0	0	0	513	148	
11	0	0	0	0	513	148	
12	0	0	0	0	515	148	
13	0	0	0	0	516	147	
14	0	0	0	0	517	148	
15	0	0	0	0	518	148	
0	0	0	0	0	519	148	
1	0	0	0	0	519	149	
2	0	0	0	0	519	148	
3	0	0	0	0	519	147	
4	0	0	0	0	519	148	
5	0	0	0	0	519	148	
6	0	0	0	0	518	148	
7	0	0	0	0	516	148	
8	0	0	0	0	515	149	
9	0	0	0	0	513	148	
10	0	0	0	0	512	147	
11	0	0	0	0	512	147	
12	0	0	0	0	512	148	
13	0	0	0	0	512	148	
14	0	0	0	0	512	148	
15	0	0	0	0	512	148	
0	0	0	0	0	513	148	
1	0	0	0	0	512	147	
2	0	0	0	0	512	148	
3	0	0	0	0	512	148	
4	0	0	0	0	512	148	
5	0	0	0	0	513	149	
6	0	0	0	0	515	147	
7	0	0	0	0	517	147	
8	0	0	0	0	518	148	
9	0	0	0	0	517	148	
10	0	0	0	0	518	148	
11	0	0	0	0	517	148	
12	0	0	0	0	516	147	
13	0	0	0	0	515	148	
14	0	0	0	0	515	148	
15	0	0	0	0	515	149	
0	0	0	0	0	515	148	
1	0	0	0	0	515	147	
2	0	0	0	0	516	147	
3	0	0	0	0	516	148	
4	0	0	0	0	515	148	
5	0	0	0	0	514	148	
6	0	0	0	0	511	148	
7	0	0	0	0	510	147	
8	0	0	0	0	510	148	
9	0	0	0	0	510	149	
10	0	0	0	0	511	148	
11	0	0	0	0	510	148	
12	0	0	0	0	508	147	
13	0	0	0	0	507	147	
14	0	0	0	0	506	148	
15	0	0	0	0	505	148	
0	0	0	0	0	504	149	
1	0	0	0	0	504	148	
2	0	0	0	0	507	147	
3	0	0	0	0	509	148	
4	0	0	0	0	513	148	
5	0	0	0	0	515	148	
6	0	0	0	0	518	148	
7	0	0	0	0	520	148	
8	0	0	0	0	520	147	
9	0	0	0	0	520	148	
10	0	0	0	0	521	148	
11	0	0	0	0	523	148	
12	0	0	0	0	523	148	
13	0	0	0	0	524	147	
14	0	0	0	0	523	147	
15	0	0	0	0	522	148	
0	0	0	0	0	520	148	
1	0	0	0	0	518	148	
2	0	0	0	0	516	148	
3	0	0	0	0	512	149	
4	0	0	0	0	511	147	
5	0	0	0	0	510	147	
6	0	0	0	0	510	148	
7	0	0	0	0	510	148	
8	0	0	0	0	512	148	
9	0	0	0	0	514	149	
10	0	0	0	0	518	147	
11	0	0	0	0	519	147	
12	0	0	0	0	519	148	
13	0	0	0	0	518	148	
14	0	0	0	0	517	148	
15	0	0	0	0	517	148	
0	0	0	0	0	515	147	
1	0	0	0	0	516	147	
2	0	0	0	0	518	147	
3	0	0	0	0	519	148	
4	0	0	0	0	519	148	
5	0	0	0	0	520	149	
6	0	0	0	0	520	147	
7	0	0	0	0	519	147	
8	0	0	0	0	517	148	
9	0	0	0	0	517	148	
10	0	0	0	0	516	148	
11	0	0	0	0	516	148	
12	0	0	0	0	516	147	
13	0	0	0	0	516	148	
14	0	0	0	0	518	148	
15	0	0	0	0	518	148	
0	0	0	0	0	518	148	
1	0	0	0	0	515	148	
2	0	0	0	0	513	147	
3	0	0	0	0	511	148	
4	0	0	0	0	510	148	
5	0	0	0	0	508	148	
6	0	0	0	0	507	149	
7	0	0	0	0	505	147	
8	0	0	0	0	506	147	
9	0	0	0	0	508	148	
10	0	0	0	0	510	148	
11	0	0	0	0	513	148	
12	0	0	0	0	516	149	
13	0	0	0	0	521	148	
14	0	0	0	0	526	147	
15	0	0	0	0	528	147	
0	0	0	0	0	529	148	
1	0	0	0	0	530	148	
2	0	0	0	0	530	148	
3	0	0	0	0	529	148	
4	0	0	0	0	528	148	
5	0	0	0	0	526	147	
6	0	0	0	0	525	147	
7	0	0	0	0	524	148	
8	0	0	0	0	522	148	
9	0	0	0	0	520	148	
10	0	0	0	0	518	148	
11	0	0	0	0	518	148	
12	0	0	0	0	518	147	
13	0	0	0	0	517	147	
14	0	0	0	0	518	147	
15	0	0	0	0	519	148	
0	0	0	0	0	521	148	
1	0	0	0	0	520	148	
2	0	0	0	0	521	149	
3	0	0	0	0	521	147	
4	0	0	0	0	521	147	
5	0	0	0	0	520	148	
6	0	0	0	0	520	148	
7	0	0	0	0	519	148	
8	0	0	0	0	519	148	
9	0	0	0	0	518	148	
10	0	0	0	0	519	147	
11	0	0	0	0	519	147	
12	0	0	0	0	518	148	
13	0	0	0	0	516	148	
14	0	0	0	0	515	148	
15	0	0	0	0	516	148	
0	0	0	0	0	516	148	
1	0	0	0	0	516	147	
2	0	0	0	0	515	147	
3	0	0	0	0	515	148	
4	0	0	0	0	513	148	
5	0	0	0	0	512	148	
6	0	0	0	0	511	148	
7	0	0	0	0	511	149	
8	0	0	0	0	511	148	
9	0	0	0	0	511	147	
10	0	0	0	0	512	147	
11	0	0	0	0	513	147	
12	0	0	0	0	513	148	
13	0	0	0	0	513	148	
14	0	0	0	0	513	148	
15	0	0	0	0	513	148	
0	0	0	0	0	512	148	
1	0	0	0	0	512	147	
2	0	0	0	0	511	147	
3	0	0	0	0	512	148	
4	0	0	0	0	512	148	
5	0	0	0	0	513	148	
6	0	0	0	0	513	149	
7	0	0	0	0	513	147	
8	0	0	0	0	512	147	
9	0	0	0	0	512	148	
10	0	0	0	0	512	148	
11	0	0	0	0	512	148	
12	0	0	0	0	511	148	
13	0	0	0	0	511	147	
14	0	0	0	0	509	148	
15	0	0	0	0	508	148	
0	0	0	0	0	507	148	
1	0	0	0	0	506	148	
2	0	0	0	0	505	148	
3	0	0	0	0	504	148	
4	0	0	0	0	503	147	
5	0	0	0	0	502	147	
6	0	0	0	0	504	148	
7	0	0	0	0	506	148	
8	0	0	0	0	507	148	
9	0	0	0	0	508	149	
10	0	0	0	0	507	148	
11	0	0	0	0	504	147	
12	0	0	0	0	505	148	
13	0	0	0	0	509	148	
14	0	0	0	0	510	148	
15	0	0	0	0	510	148	
0	0	0	0	0	510	149	
1	0	0	0	0	510	148	
2	0	0	0	0	509	147	
3	0	0	0	0	508	148	
4	0	0	0	0	507	148	
5	0	0	0	0	508	148	
6	0	0	0	0	507	149	
7	0	0	0	0	507	147	
8	0	0	0	0	506	147	
9	0	0	0	0	505	148	
10	0	0	0	0	506	148	
11	0	0	0	0	507	149	
12	0	0	0	0	508	147	
13	0	0	0	0	512	148	
14	0	0	0	0	516	148	
15	0	0	0	0	520	148	
0	0	0	0	0	523	149	
1	0	0	0	0	524	148	
2	0	0	0	0	524	147	
3	0	0	0	0	522	148	
4	0	0	0	0	521	148	
5	0	0	0	0	520	148	
6	0	0	0	0	520	148	
7	0	0	0	0	520	147	
8	0	0	0	0	520	147	
9	0	0	0	0	519	148	
10	0	0	0	0	518	148	
11	0	0	0	0	516	148	
12	0	0	0	0	515	147	
13	0	0	0	0	513	147	
14	0	0	0	0	512	148	
15	0	0	0	0	510	148	
0	0	0	0	0	508	148	
1	0	0	0	0	508	148	
2	0	0	0	0	508	147	
3	0	0	0	0	508	148	
4	0	0	0	0	510	148	
5	0	0	0	0	509	149	
6	0	0	0	0	508	147	
7	0	0	0	0	508	147	
8	0	0	0	0	509	148	
9	0	0	0	0	510	148	
10	0	0	0	0	511	149	
11	0	0	0	0	510	147	
12	0	0	0	0	510	148	
13	0	0	0	0	510	148	
14	0	0	0	0	510	148	
15	0	0	0	0	508	148	
0	0	0	0	0	505	148	
1	0	0	0	0	504	147	
2	0	0	0	0	502	148	
3	0	0	0	0	502	148	
4	0	0	0	0	503	148	
5	0	0	0	0	505	148	
6	0	0	0	0	508	147	
7	0	0	0	0	511	147	
8	0	0	0	0	512	147	
9	0	0	0	0	512	148	
10	0	0	0	0	512	148	
11	0	0	0	0	512	148	
12	0	0	0	0	511	148	
13	0	0	0	0	510	147	
14	0	0	0	0	510	147	
15	0	0	0	0	509	148	
0	0	0	0	0	508	148	
1	0	0	0	0	508	149	
2	0	0	0	0	509	148	
3	0	0	0	0	508	147	
4	0	0	0	0	508	148	
5	0	0	0	0	507	148	
6	0	0	0	0	506	148	
7	0	0	0	0	505	148	
8	0	0	0	0	504	148	
9	0	0	0	0	502	147	
10	0	0	0	0	500	147	
11	0	0	0	0	498	148	
12	0	0	0	0	498	148	
13	0	0	0	0	499	148	
14	0	0	0	0	500	148	
15	0	0	0	0	501	148	
0	0	0	0	0	503	148	
1	0	0	0	0	504	149	
2	0	0	0	0	506	147	
3	0	0	0	0	507	147	
4	0	0	0	0	508	148	
5	0	0	0	0	507	148	
6	0	0	0	0	505	148	
7	0	0	0	0	504	149	
8	0	0	0	0	501	148	
9	0	0	0	0	500	147	
10	0	0	0	0	499	147	
11	0	0	0	0	499	148	
12	0	0	0	0	500	148	
13	0	0	0	0	502	148	
14	0	0	0	0	504	148	
15	0	0	0	0	507	148	
0	0	0	0	0	510	147	
1	0	0	0	0	511	148	
2	0	0	0	0	511	148	
3	0	0	0	0	511	148	
4	0	0	0	0	510	149	
5	0	0	0	0	510	147	
6	0	0	0	0	509	147	
7	0	0	0	0	509	148	
8	0	0	0	0	508	148	
9	0	0	0	0	508	148	
10	0	0	0	0	507	148	
11	0	0	0	0	506	147	
12	0	0	0	0	504	148	
13	0	0	0	0	502	148	
14	0	0	0	0	499	148	
15	0	0	0	0	498	149	
0	0	0	0	0	495	147	
1	0	0	0	0	493	148	
2	0	0	0	0	491	148	
3	0	0	0	0	491	148	
4	0	0	0	0	493	149	
5	0	0	0	0	495	148	
6	0	0	0	0	496	147	
7	0	0	0	0	498	147	
8	0	0	0	0	501	148	
9	0	0	0	0	504	148	
10	0	0	0	0	505	148	
11	0	0	0	0	506	147	
12	0	0	0	0	507	147	
13	0	0	0	0	508	148	
14	0	0	0	0	508	148	
15	0	0	0	0	509	148	
0	0	0	0	0	510	147	
1	0	0	0	0	510	147	
2	0	0	0	0	509	148	
3	0	0	0	0	510	148	
4	0	0	0	0	508	148	
5	0	0	0	0	508	149	
6	0	0	0	0	507	147	
7	0	0	0	0	505	147	
8	0	0	0	0	504	147	
9	0	0	0	0	504	148	
10	0	0	0	0	504	148	
11	0	0	0	0	504	148	
12	0	0	0	0	504	148	
13	0	0	0	0	504	147	
14	0	0	0	0	504	148	
15	0	0	0	0	507	148	
0	0	0	0	0	509	148	
1	0	0	0	0	512	148	
2	0	0	0	0	513	147	
3	0	0	0	0	514	148	
4	0	0	0	0	514	148	
5	0	0	0	0	513	148	
6	0	0	0	0	512	147	
7	0	0	0	0	512	147	
8	0	0	0	0	510	147	
9	0	0	0	0	508	148	
10	0	0	0	0	505	148	
11	0	0	0	0	503	148	
12	0	0	0	0	501	148	
13	0	0	0	0	499	147	
14	0	0	0	0	498	148	
15	0	0	0	0	498	148	
0	0	0	0	0	498	148	
1	0	0	0	0	499	148	
2	0	0	0	0	501	147	
3	0	0	0	0	504	147	
4	0	0	0	0	505	148	
5	0	0	0	0	506	148	
6	0	0	0	0	505	148	
7	0	0	0	0	505	148	
8	0	0	0	0	505	147	
9	0	0	0	0	504	148	
10	0	0	0	0	505	148	
11	0	0	0	0	506	148	
12	0	0	0	0	507	147	
13	0	0	0	0	509	147	
14	0	0	0	0	512	148	
15	0	0	0	0	513	148	
0	0	0	0	0	512	149	
1	0	0	0	0	512	147	
2	0	0	0	0	513	147	
3	0	0	0	0	512	148	
4	0	0	0	0	511	148	
5	0	0	0	0	511	148	
6	0	0	0	0	511	147	
7	0	0	0	0	511	148	
8	0	0	0	0	512	148	
9	0	0	0	0	512	148	
10	0	0	0	0	513	147	
11	0	0	0	0	513	147	
12	0	0	0	0	513	148	
13	0	0	0	0	513	148	
14	0	0	0	0	513	148	
15	0	0	0	0	515	147	
0	0	0	0	0	514	147	
1	0	0	0	0	513	147	
2	0	0	0	0	513	148	
3	0	0	0	0	514	148	
4	0	0	0	0	514	148	
5	0	0	0	0	515	147	
6	0	0	0	0	515	147	
7	0	0	0	0	515	148	
8	0	0	0	0	515	148	
9	0	0	0	0	516	147	
10	0	0	0	0	518	147	
11	0	0	0	0	519	148	
12	0	0	0	0	522	148	
13	0	0	0	0	525	148	
14	0	0	0	0	527	147	
15	0	0	0	0	529	147	
0	0	0	0	0	531	147	
1	0	0	0	0	531	148	
2	0	0	0	0	531	148	
3	0	0	0	0	529	148	
4	0	0	0	0	527	149	
5	0	0	0	0	526	147	
6	0	0	0	0	524	147	
7	0	0	0	0	521	148	
8	0	0	0	0	518	148	
9	0	0	0	0	516	148	
10	0	0	0	0	516	147	
11	0	0	0	0	518	147	
12	0	0	0	0	519	148	
13	0	0	0	0	520	148	
14	0	0	0	0	522	148	
15	0	0	0	0	525	147	
0	0	0	0	0	526	147	
1	0	0	0	0	527	148	
2	0	0	0	0	526	148	
3	0	0	0	0	525	148	
4	0	0	0	0	524	147	
5	0	0	0	0	523	147	
6	0	0	0	0	522	148	
7	0	0	0	0	522	148	
8	0	0	0	0	521	148	
9	0	0	0	0	519	147	
10	0	0	0	0	518	147	
11	0	0	0	0	516	148	
12	0	0	0	0	515	148	
13	0	0	0	0	515	148	
14	0	0	0	0	513	147	
15	0	0	0	0	511	147	
0	0	0	0	0	510	147	
1	0	0	0	0	509	148	
2	0	0	0	0	510	148	
3	0	0	0	0	509	148	
4	0	0	0	0	508	147	
5	0	0	0	0	507	147	
6	0	0	0	0	507	148	
7	0	0	0	0	506	148	
8	0	0	0	0	504	148	
9	0	0	0	0	503	147	
10	0	0	0	0	502	147	
11	0	0	0	0	501	147	
12	0	0	0	0	500	148	
13	0	0	0	0	499	148	
14	0	0	0	0	498	148	
15	0	0	0	0	497	148	
0	0	0	0	0	496	147	
1	0	0	0	0	496	147	
2	0	0	0	0	496	148	
3	0	0	0	0	496	148	
4	0	0	0	0	496	148	
5	0	0	0	0	496	147	
6	0	0	0	0	495	147	
7	0	0	0	0	494	148	
8	0	0	0	0	494	148	
9	0	0	0	0	495	148	
10	0	0	0	0	496	148	
11	0	0	0	0	496	147	
12	0	0	0	0	496	147	
13	0	0	0	0	496	148	
14	0	0	0	0	497	148	
15	0	0	0	0	497	148	
0	0	0	0	0	497	148	
1	0	0	0	0	498	148	
2	0	0	0	0	498	147	
3	0	0	0	0	496	147	
4	0	0	0	0	495	148	
5	0	0	0	0	495	148	
6	0	0	0	0	495	148	
7	0	0	0	0	493	148	
8	0	0	0	0	492	147	
9	0	0	0	0	493	148	
10	0	0	0	0	495	148	
11	0	0	0	0	496	148	
12	0	0	0	0	496	148	
13	0	0	0	0	495	148	
14	0	0	0	0	495	147	
15	0	0	0	0	495	147	
0	0	0	0	0	494	148	
1	0	0	0	0	494	148	
2	0	0	0	0	494	148	
3	0	0	0	0	493	148	
4	0	0	0	0	493	147	
5	0	0	0	0	492	148	
6	0	0	0	0	492	148	
7	0	0	0	0	491	148	
8	0	0	0	0	490	148	
9	0	0	0	0	489	148	
10	0	0	0	0	487	147	
11	0	0	0	0	487	147	
12	0	0	0	0	488	148	
13	0	0	0	0	490	148	
14	0	0	0	0	491	148	
15	0	0	0	0	491	148	
0	0	0	0	0	489	147	
1	0	0	0	0	489	147	
2	0	0	0	0	489	148	
3	0	0	0	0	490	148	
4	0	0	0	0	492	148	
5	0	0	0	0	493	148	
6	0	0	0	0	493	147	
7	0	0	0	0	495	147	
8	0	0	0	0	497	147	
9	0	0	0	0	500	148	
10	0	0	0	0	505	148	
11	0	0	0	0	511	148	
12	0	0	0	0	521	147	
13	0	0	0	0	532	147	
14	0	0	0	0	544	147	
15	0	0	0	0	557	148	
0	0	0	0	0	571	148	
1	0	0	0	0	587	148	
2	0	0	0	0	601	146	
3	0	0	0	0	615	147	
4	0	0	0	0	627	147	
5	0	0	0	0	635	148	
6	0	0	0	0	644	148	
7	0	0	0	0	651	146	
8	0	0	0	0	654	147	
9	0	0	0	0	660	148	
10	0	0	0	0	664	148	
11	0	0	0	0	669	147	
12	0	0	0	0	673	146	
13	0	0	0	0	675	147	
14	0	0	0	0	676	147	
15	0	0	0	0	679	148	
0	0	0	0	0	680	148	
1	0	0	0	0	680	147	
2	0	0	0	0	678	146	
3	0	0	0	0	671	147	
4	0	0	0	0	662	148	
5	0	0	0	0	651	148	
6	0	0	0	0	640	148	
7	0	0	0	0	630	147	
8	0	0	0	0	619	147	
9	0	0	0	0	609	147	
10	0	0	0	0	599	147	
11	0	0	0	0	587	148	
12	0	0	0	0	575	148	
13	0	0	0	0	562	148	
14	0	0	0	0	548	148	
15	0	0	0	0	536	147	
0	0	0	0	0	520	147	
1	0	0	0	0	506	148	
2	0	0	0	0	493	148	
3	0	0	0	0	482	148	
4	0	0	0	0	472	148	
5	0	0	0	0	465	147	
6	0	0	0	0	457	148	
7	0	0	0	0	451	148	
8	0	0	0	0	446	148	
9	0	0	0	0	443	148	
10	0	0	0	0	440	148	
11	0	0	0	0	438	148	
12	0	0	0	0	438	148	
13	0	0	0	0	438	148	
14	0	0	0	0	438	148	
15	0	0	0	0	440	148	
0	0	0	0	0	445	147	
1	0	0	0	0	449	148	
2	0	0	0	0	452	148	
3	0	0	0	0	455	148	
4	0	0	0	0	458	148	
5	0	0	0	0	462	147	
6	0	0	0	0	465	147	
7	0	0	0	0	468	148	
8	0	0	0	0	469	148	
9	0	0	0	0	470	148	
10	0	0	0	0	470	148	
11	0	0	0	0	470	147	
12	0	0	0	0	470	148	
13	0	0	0	0	470	148	
14	0	0	0	0	470	148	
15	0	0	0	0	470	148	
0	0	0	0	0	471	147	
1	0	0	0	0	472	148	
2	0	0	0	0	471	148	
3	0	0	0	0	470	148	
4	0	0	0	0	470	148	
5	0	0	0	0	470	147	
6	0	0	0	0	470	147	
7	0	0	0	0	471	148	
8	0	0	0	0	473	148	
9	0	0	0	0	474	148	
10	0	0	0	0	474	147	
11	0	0	0	0	473	147	
12	0	0	0	0	474	148	
13	0	0	0	0	476	148	
14	0	0	0	0	477	148	
15	0	0	0	0	478	148	
0	0	0	0	0	478	148	
1	0	0	0	0	479	147	
2	0	0	0	0	480	148	
3	0	0	0	0	480	148	
4	0	0	0	0	480	148	
5	0	0	0	0	481	147	
6	0	0	0	0	481	147	
7	0	0	0	0	480	147	
8	0	0	0	0	480	148	
9	0	0	0	0	479	148	
10	0	0	0	0	478	148	
11	0	0	0	0	478	147	
12	0	0	0	0	479	147	
13	0	0	0	0	479	148	
14	0	0	0	0	479	148	
15	0	0	0	0	481	148	
0	0	0	0	0	481	148	
1	0	0	0	0	482	147	
2	0	0	0	0	483	147	
3	0	0	0	0	484	148	
4	0	0	0	0	487	148	
5	0	0	0	0	489	148	
6	0	0	0	0	490	148	
7	0	0	0	0	491	147	
8	0	0	0	0	492	147	
9	0	0	0	0	495	148	
10	0	0	0	0	496	148	
11	0	0	0	0	499	148	
12	0	0	0	0	503	147	
13	0	0	0	0	504	147	
14	0	0	0	0	504	147	
15	0	0	0	0	504	148	
0	0	0	0	0	503	148	
1	0	0	0	0	504	148	
2	0	0	0	0	504	147	
3	0	0	0	0	504	147	
4	0	0	0	0	505	148	
5	0	0	0	0	505	148	
6	0	0	0	0	505	148	
7	0	0	0	0	506	147	
8	0	0	0	0	505	147	
9	0	0	0	0	505	148	
10	0	0	0	0	504	148	
11	0	0	0	0	505	148	
12	0	0	0	0	505	148	
13	0	0	0	0	505	147	
14	0	0	0	0	505	147	
15	0	0	0	0	505	147	
0	0	0	0	0	505	148	
1	0	0	0	0	504	148	
2	0	0	0	0	504	147	
3	0	0	0	0	504	147	
4	0	0	0	0	504	148	
5	0	0	0	0	504	148	
6	0	0	0	0	504	148	
7	0	0	0	0	504	148	
8	0	0	0	0	504	148	
9	0	0	0	0	504	148	
10	0	0	0	0	505	147	
11	0	0	0	0	506	147	
12	0	0	0	0	507	148	
13	0	0	0	0	508	148	
14	0	0	0	0	509	148	
15	0	0	0	0	510	147	
0	0	0	0	0	511	147	
1	0	0	0	0	512	147	
2	0	0	0	0	513	148	
3	0	0	0	0	515	148	
4	0	0	0	0	515	148	
5	0	0	0	0	514	148	
6	0	0	0	0	515	147	
7	0	0	0	0	515	147	
8	0	0	0	0	516	148	
9	0	0	0	0	517	148	
10	0	0	0	0	517	148	
11	0	0	0	0	516	148	
12	0	0	0	0	515	147	
13	0	0	0	0	516	147	
14	0	0	0	0	517	148	
15	0	0	0	0	518	148	
0	0	0	0	0	519	148	
1	0	0	0	0	521	148	
2	0	0	0	0	522	147	
3	0	0	0	0	522	147	
4	0	0	0	0	523	147	
5	0	0	0	0	523	147	
6	0	0	0	0	524	148	
7	0	0	0	0	524	148	
8	0	0	0	0	523	148	
9	0	0	0	0	523	147	
10	0	0	0	0	522	147	
11	0	0	0	0	522	147	
12	0	0	0	0	523	148	
13	0	0	0	0	524	148	
14	0	0	0	0	525	147	
15	0	0	0	0	528	147	
0	0	0	0	0	530	147	
1	0	0	0	0	531	148	
2	0	0	0	0	532	148	
3	0	0	0	0	532	148	
4	0	0	0	0	532	148	
5	0	0	0	0	533	147	
6	0	0	0	0	533	147	
7	0	0	0	0	534	148	
8	0	0	0	0	536	148	
9	0	0	0	0	536	148	
10	0	0	0	0	536	148	
11	0	0	0	0	535	148	
12	0	0	0	0	533	147	
13	0	0	0	0	532	147	
14	0	0	0	0	531	148	
15	0	0	0	0	530	148	
0	0	0	0	0	529	148	
1	0	0	0	0	527	147	
2	0	0	0	0	527	147	
3	0	0	0	0	526	148	
4	0	0	0	0	526	148	
5	0	0	0	0	526	148	
6	0	0	0	0	527	148	
7	0	0	0	0	528	147	
8	0	0	0	0	530	147	
9	0	0	0	0	531	148	
10	0	0	0	0	532	148	
11	0	0	0	0	534	148	
12	0	0	0	0	535	147	
13	0	0	0	0	536	147	
14	0	0	0	0	536	148	
15	0	0	0	0	536	148	
0	0	0	0	0	537	148	
1	0	0	0	0	537	147	
2	0	0	0	0	537	147	
3	0	0	0	0	540	147	
4	0	0	0	0	542	148	
5	0	0	0	0	542	148	
6	0	0	0	0	542	148	
7	0	0	0	0	543	147	
8	0	0	0	0	545	147	
9	0	0	0	0	548	148	
10	0	0	0	0	550	148	
11	0	0	0	0	551	148	
12	0	0	0	0	552	147	
13	0	0	0	0	552	147	
14	0	0	0	0	551	148	
15	0	0	0	0	551	148	
0	0	0	0	0	551	148	
1	0	0	0	0	552	147	
2	0	0	0	0	553	147	
3	0	0	0	0	552	148	
4	0	0	0	0	551	148	
5	0	0	0	0	551	148	
6	0	0	0	0	552	147	
7	0	0	0	0	551	147	
8	0	0	0	0	550	147	
9	0	0	0	0	550	148	
10	0	0	0	0	550	148	
11	0	0	0	0	549	148	
12	0	0	0	0	550	147	
13	0	0	0	0	548	147	
14	0	0	0	0	546	147	
15	0	0	0	0	546	148	
0	0	0	0	0	545	148	
1	0	0	0	0	544	148	
2	0	0	0	0	544	147	
3	0	0	0	0	544	147	
4	0	0	0	0	543	148	
5	0	0	0	0	543	148	
6	0	0	0	0	543	148	
7	0	0	0	0	542	148	
8	0	0	0	0	543	147	
9	0	0	0	0	543	147	
10	0	0	0	0	544	148	
11	0	0	0	0	545	148	
12	0	0	0	0	547	148	
13	0	0	0	0	548	147	
14	0	0	0	0	549	147	
15	0	0	0	0	551	148	
0	0	0	0	0	554	148	
1	0	0	0	0	554	148	
2	0	0	0	0	554	147	
3	0	0	0	0	554	147	
4	0	0	0	0	555	147	
5	0	0	0	0	556	148	
6	0	0	0	0	556	148	
7	0	0	0	0	557	148	
8	0	0	0	0	558	147	
9	0	0	0	0	558	147	
10	0	0	0	0	558	147	
11	0	0	0	0	558	148	
12	0	0	0	0	558	148	
13	0	0	0	0	557	148	
14	0	0	0	0	556	147	
15	0	0	0	0	556	147	
0	0	0	0	0	554	147	
1	0	0	0	0	554	148	
2	0	0	0	0	554	148	
3	0	0	0	0	553	147	
4	0	0	0	0	554	147	
5	0	0	0	0	554	147	
6	0	0	0	0	556	148	
7	0	0	0	0	557	148	
8	0	0	0	0	559	148	
9	0	0	0	0	560	148	
10	0	0	0	0	560	147	
11	0	0	0	0	561	147	
12	0	0	0	0	562	148	
13	0	0	0	0	562	148	
14	0	0	0	0	562	148	
15	0	0	0	0	561	147	
0	0	0	0	0	559	147	
1	0	0	0	0	556	147	
2	0	0	0	0	554	148	
3	0	0	0	0	551	148	
4	0	0	0	0	550	147	
5	0	0	0	0	548	147	
6	0	0	0	0	547	147	
7	0	0	0	0	545	147	
8	0	0	0	0	545	148	
9	0	0	0	0	546	148	
10	0	0	0	0	547	148	
11	0	0	0	0	549	148	
12	0	0	0	0	549	147	
13	0	0	0	0	548	147	
14	0	0	0	0	549	147	
15	0	0	0	0	548	148	
0	0	0	0	0	550	148	
1	0	0	0	0	550	148	
2	0	0	0	0	548	147	
3	0	0	0	0	546	147	
4	0	0	0	0	543	147	
5	0	0	0	0	541	148	
6	0	0	0	0	537	148	
7	0	0	0	0	534	147	
8	0	0	0	0	533	147	
9	0	0	0	0	532	147	
10	0	0	0	0	531	148	
11	0	0	0	0	530	148	
12	0	0	0	0	528	147	
13	0	0	0	0	524	147	
14	0	0	0	0	521	147	
15	0	0	0	0	519	148	
0	0	0	0	0	518	148	
1	0	0	0	0	516	148	
2	0	0	0	0	515	147	
3	0	0	0	0	517	147	
4	0	0	0	0	520	147	
5	0	0	0	0	522	148	
6	0	0	0	0	524	148	
7	0	0	0	0	526	148	
8	0	0	0	0	527	147	
9	0	0	0	0	527	147	
10	0	0	0	0	526	147	
11	0	0	0	0	524	148	
12	0	0	0	0	523	148	
13	0	0	0	0	519	148	
14	0	0	0	0	517	147	
15	0	0	0	0	514	147	
0	0	0	0	0	512	148	
1	0	0	0	0	509	148	
2	0	0	0	0	508	148	
3	0	0	0	0	505	147	
4	0	0	0	0	502	147	
5	0	0	0	0	500	147	
6	0	0	0	0	497	148	
7	0	0	0	0	494	148	
8	0	0	0	0	491	148	
9	0	0	0	0	488	148	
10	0	0	0	0	487	147	
11	0	0	0	0	486	147	
12	0	0	0	0	486	148	
13	0	0	0	0	485	148	
14	0	0	0	0	484	148	
15	0	0	0	0	486	148	
0	0	0	0	0	488	147	
1	0	0	0	0	492	147	
2	0	0	0	0	495	147	
3	0	0	0	0	494	148	
4	0	0	0	0	493	148	
5	0	0	0	0	491	148	
6	0	0	0	0	489	147	
7	0	0	0	0	487	147	
8	0	0	0	0	485	148	
9	0	0	0	0	483	148	
10	0	0	0	0	482	148	
11	0	0	0	0	482	147	
12	0	0	0	0	481	147	
13	0	0	0	0	480	148	
14	0	0	0	0	480	148	
15	0	0	0	0	479	148	
0	0	0	0	0	479	148	
1	0	0	0	0	478	147	
2	0	0	0	0	476	147	
3	0	0	0	0	476	148	
4	0	0	0	0	476	148	
5	0	0	0	0	475	148	
6	0	0	0	0	475	147	
7	0	0	0	0	475	147	
8	0	0	0	0	474	148	
9	0	0	0	0	474	148	
10	0	0	0	0	475	148	
11	0	0	0	0	475	147	
12	0	0	0	0	476	147	
13	0	0	0	0	476	147	
14	0	0	0	0	476	148	
15	0	0	0	0	477	148	
0	0	0	0	0	477	148	
1	0	0	0	0	477	147	
2	0	0	0	0	477	147	
3	0	0	0	0	476	148	
4	0	0	0	0	475	148	
5	0	0	0	0	473	148	
6	0	0	0	0	472	147	
7	0	0	0	0	471	147	
8	0	0	0	0	469	147	
9	0	0	0	0	469	148	
10	0	0	0	0	470	148	
11	0	0	0	0	471	148	
12	0	0	0	0	472	147	
13	0	0	0	0	473	147	
14	0	0	0	0	473	148	
15	0	0	0	0	475	148	
0	0	0	0	0	476	148	
1	0	0	0	0	476	148	
2	0	0	0	0	476	147	
3	0	0	0	0	475	147	
4	0	0	0	0	474	147	
5	0	0	0	0	475	148	
6	0	0	0	0	474	148	
7	0	0	0	0	474	148	
8	0	0	0	0	475	147	
9	0	0	0	0	476	147	
10	0	0	0	0	478	148	
11	0	0	0	0	480	148	
12	0	0	0	0	481	148	
13	0	0	0	0	483	147	
14	0	0	0	0	485	147	
15	0	0	0	0	487	147	
0	0	0	0	0	488	148	
1	0	0	0	0	488	148	
2	0	0	0	0	487	148	
3	0	0	0	0	486	147	
4	0	0	0	0	486	147	
5	0	0	0	0	486	148	
6	0	0	0	0	487	148	
7	0	0	0	0	487	148	
8	0	0	0	0	487	147	
9	0	0	0	0	487	147	
10	0	0	0	0	486	147	
11	0	0	0	0	484	148	
12	0	0	0	0	483	148	
13	0	0	0	0	481	148	
14	0	0	0	0	480	147	
15	0	0	0	0	481	147	
0	0	0	0	0	482	148	
1	0	0	0	0	483	148	
2	0	0	0	0	484	148	
3	0	0	0	0	485	147	
4	0	0	0	0	486	147	
5	0	0	0	0	485	148	
6	0	0	0	0	484	148	
7	0	0	0	0	484	148	
8	0	0	0	0	484	148	
9	0	0	0	0	483	147	
10	0	0	0	0	484	147	
11	0	0	0	0	487	147	
12	0	0	0	0	490	148	
13	0	0	0	0	492	148	
14	0	0	0	0	494	148	
15	0	0	0	0	495	147	
0	0	0	0	0	494	147	
1	0	0	0	0	492	148	
2	0	0	0	0	492	148	
3	0	0	0	0	492	148	
4	0	0	0	0	492	148	
5	0	0	0	0	493	147	
6	0	0	0	0	493	147	
7	0	0	0	0	493	148	
8	0	0	0	0	494	148	
9	0	0	0	0	495	148	
10	0	0	0	0	495	147	
11	0	0	0	0	494	147	
12	0	0	0	0	495	147	
13	0	0	0	0	496	148	
14	0	0	0	0	496	148	
15	0	0	0	0	495	147	
0	0	0	0	0	495	147	
1	0	0	0	0	494	147	
2	0	0	0	0	494	148	
3	0	0	0	0	493	148	
4	0	0	0	0	493	147	
5	0	0	0	0	494	147	
6	0	0	0	0	494	148	
7	0	0	0	0	494	148	
8	0	0	0	0	495	148	
9	0	0	0	0	496	147	
10	0	0	0	0	498	147	
11	0	0	0	0	499	148	
12	0	0	0	0	500	148	
13	0	0	0	0	500	147	
14	0	0	0	0	499	147	
15	0	0	0	0	498	148	
0	0	0	0	0	497	148	
1	0	0	0	0	498	148	
2	0	0	0	0	499	148	
3	0	0	0	0	499	147	
4	0	0	0	0	500	147	
5	0	0	0	0	501	148	
6	0	0	0	0	502	148	
7	0	0	0	0	502	147	
8	0	0	0	0	503	147	
9	0	0	0	0	503	148	
10	0	0	0	0	503	148	
11	0	0	0	0	504	148	
12	0	0	0	0	504	147	
13	0	0	0	0	504	147	
14	0	0	0	0	505	148	
15	0	0	0	0	506	148	
0	0	0	0	0	505	148	
1	0	0	0	0	503	147	
2	0	0	0	0	503	147	
3	0	0	0	0	503	148	
4	0	0	0	0	502	148	
5	0	0	0	0	500	148	
6	0	0	0	0	499	147	
7	0	0	0	0	499	147	
8	0	0	0	0	499	148	
9	0	0	0	0	501	148	
10	0	0	0	0	503	148	
11	0	0	0	0	504	148	
12	0	0	0	0	506	147	
13	0	0	0	0	506	147	
14	0	0	0	0	507	148	
15	0	0	0	0	507	148	
0	0	0	0	0	507	148	
1	0	0	0	0	508	147	
2	0	0	0	0	510	147	
3	0	0	0	0	510	148	
4	0	0	0	0	511	148	
5	0	0	0	0	511	147	
6	0	0	0	0	510	147	
7	0	0	0	0	511	148	
8	0	0	0	0	511	148	
9	0	0	0	0	511	147	
10	0	0	0	0	512	147	
11	0	0	0	0	512	148	
12	0	0	0	0	512	148	
13	0	0	0	0	512	147	
14	0	0	0	0	512	147	
15	0	0	0	0	512	148	
0	0	0	0	0	512	148	
1	0	0	0	0	512	147	
2	0	0	0	0	512	147	
3	0	0	0	0	511	148	
4	0	0	0	0	511	148	
5	0	0	0	0	511	148	
6	0	0	0	0	511	147	
7	0	0	0	0	511	147	
8	0	0	0	0	511	148	
9	0	0	0	0	512	148	
10	0	0	0	0	512	148	
11	0	0	0	0	513	148	
12	0	0	0	0	514	147	
13	0	0	0	0	514	147	
14	0	0	0	0	513	148	
15	0	0	0	0	513	148	
0	0	0	0	0	514	148	
1	0	0	0	0	515	147	
2	0	0	0	0	516	147	
3	0	0	0	0	516	147	
4	0	0	0	0	518	148	
5	0	0	0	0	518	148	
6	0	0	0	0	519	148	
7	0	0	0	0	519	147	
8	0	0	0	0	519	147	
9	0	0	0	0	519	148	
10	0	0	0	0	519	148	
11	0	0	0	0	519	147	
12	0	0	0	0	519	147	
13	0	0	0	0	519	148	
14	0	0	0	0	519	148	
15	0	0	0	0	519	148	
0	0	0	0	0	519	148	
1	0	0	0	0	519	147	
2	0	0	0	0	519	147	
3	0	0	0	0	519	148	
4	0	0	0	0	517	148	
5	0	0	0	0	516	148	
6	0	0	0	0	515	147	
7	0	0	0	0	515	147	
8	0	0	0	0	515	148	
9	0	0	0	0	516	148	
10	0	0	0	0	517	148	
11	0	0	0	0	516	147	
12	0	0	0	0	515	147	
13	0	0	0	0	516	148	
14	0	0	0	0	518	148	
15	0	0	0	0	519	148	
0	0	0	0	0	519	147	
1	0	0	0	0	518	147	
2	0	0	0	0	519	148	
3	0	0	0	0	519	148	
4	0	0	0	0	519	148	
5	0	0	0	0	520	147	
6	0	0	0	0	520	147	
7	0	0	0	0	519	148	
8	0	0	0	0	519	148	
9	0	0	0	0	519	148	
10	0	0	0	0	519	147	
11	0	0	0	0	518	147	
12	0	0	0	0	517	148	
13	0	0	0	0	517	148	
14	0	0	0	0	517	148	
15	0	0	0	0	518	148	
0	0	0	0	0	518	147	
1	0	0	0	0	518	148	
2	0	0	0	0	519	148	
3	0	0	0	0	519	148	
4	0	0	0	0	519	148	
5	0	0	0	0	518	147	
6	0	0	0	0	518	147	
7	0	0	0	0	518	148	
8	0	0	0	0	518	148	
9	0	0	0	0	517	148	
10	0	0	0	0	517	147	
11	0	0	0	0	516	147	
12	0	0	0	0	515	147	
13	0	0	0	0	515	148	
14	0	0	0	0	516	148	
15	0	0	0	0	515	148	
0	0	0	0	0	516	148	
1	0	0	0	0	517	147	
2	0	0	0	0	517	147	
3	0	0	0	0	518	148	
4	0	0	0	0	519	148	
5	0	0	0	0	518	148	
6	0	0	0	0	517	148	
7	0	0	0	0	517	148	
8	0	0	0	0	518	147	
9	0	0	0	0	518	147	
10	0	0	0	0	519	148	
11	0	0	0	0	519	148	
12	0	0	0	0	518	148	
13	0	0	0	0	518	147	
14	0	0	0	0	517	147	
15	0	0	0	0	516	148	
0	0	0	0	0	515	148	
1	0	0	0	0	515	148	
2	0	0	0	0	515	147	
3	0	0	0	0	515	147	
4	0	0	0	0	516	147	
5	0	0	0	0	515	148	
6	0	0	0	0	516	148	
7	0	0	0	0	516	148	
8	0	0	0	0	517	148	
9	0	0	0	0	517	147	
10	0	0	0	0	517	147	
11	0	0	0	0	516	148	
12	0	0	0	0	516	148	
13	0	0	0	0	515	147	
14	0	0	0	0	513	147	
15	0	0	0	0	513	148	
0	0	0	0	0	514	148	
1	0	0	0	0	515	147	
2	0	0	0	0	516	147	
3	0	0	0	0	516	148	
4	0	0	0	0	516	148	
5	0	0	0	0	517	148	
6	0	0	0	0	518	147	
7	0	0	0	0	518	147	
8	0	0	0	0	518	147	
9	0	0	0	0	518	148	
10	0	0	0	0	517	148	
11	0	0	0	0	516	148	
12	0	0	0	0	515	147	
13	0	0	0	0	513	147	
14	0	0	0	0	512	147	
15	0	0	0	0	512	148	
0	0	0	0	0	513	148	
1	0	0	0	0	514	148	
2	0	0	0	0	515	147	
3	0	0	0	0	517	147	
4	0	0	0	0	519	148	
5	0	0	0	0	519	148	
6	0	0	0	0	519	148	
7	0	0	0	0	519	147	
8	0	0	0	0	518	147	
9	0	0	0	0	518	147	
10	0	0	0	0	519	148	
11	0	0	0	0	518	148	
12	0	0	0	0	516	148	
13	0	0	0	0	515	148	
14	0	0	0	0	513	147	
15	0	0	0	0	512	147	
0	0	0	0	0	510	147	
1	0	0	0	0	509	147	
2	0	0	0	0	509	148	
3	0	0	0	0	511	148	
4	0	0	0	0	512	148	
5	0	0	0	0	516	148	
6	0	0	0	0	520	147	
7	0	0	0	0	521	147	
8	0	0	0	0	523	147	
9	0	0	0	0	523	148	
10	0	0	0	0	524	148	
11	0	0	0	0	523	148	
12	0	0	0	0	522	147	
13	0	0	0	0	519	147	
14	0	0	0	0	520	147	
15	0	0	0	0	521	148	
0	0	0	0	0	523	148	
1	0	0	0	0	523	148	
2	0	0	0	0	521	147	
3	0	0	0	0	519	147	
4	0	0	0	0	516	148	
5	0	0	0	0	513	148	
6	0	0	0	0	511	148	
7	0	0	0	0	508	147	
8	0	0	0	0	505	147	
9	0	0	0	0	504	147	
10	0	0	0	0	504	147	
11	0	0	0	0	503	148	
12	0	0	0	0	504	148	
13	0	0	0	0	502	147	
14	0	0	0	0	499	147	
15	0	0	0	0	496	147	
0	0	0	0	0	495	148	
1	0	0	0	0	494	148	
2	0	0	0	0	495	148	
3	0	0	0	0	497	147	
4	0	0	0	0	498	147	
5	0	0	0	0	500	148	
6	0	0	0	0	504	148	
7	0	0	0	0	508	148	
8	0	0	0	0	511	147	
9	0	0	0	0	513	147	
10	0	0	0	0	514	148	
11	0	0	0	0	514	148	
12	0	0	0	0	515	148	
13	0	0	0	0	516	148	
14	0	0	0	0	518	147	
15	0	0	0	0	517	147	
0	0	0	0	0	517	148	
1	0	0	0	0	516	148	
2	0	0	0	0	517	148	
3	0	0	0	0	517	148	
4	0	0	0	0	516	148	
5	0	0	0	0	514	147	
6	0	0	0	0	514	147	
7	0	0	0	0	512	147	
8	0	0	0	0	511	148	
9	0	0	0	0	510	148	
10	0	0	0	0	509	148	
11	0	0	0	0	507	147	
12	0	0	0	0	505	147	
13	0	0	0	0	503	148	
14	0	0	0	0	502	148	
15	0	0	0	0	502	148	
0	0	0	0	0	502	147	
1	0	0	0	0	500	147	
2	0	0	0	0	500	148	
3	0	0	0	0	501	148	
4	0	0	0	0	503	148	
5	0	0	0	0	505	147	
6	0	0	0	0	510	147	
7	0	0	0	0	514	147	
8	0	0	0	0	515	148	
9	0	0	0	0	514	148	
10	0	0	0	0	513	147	
11	0	0	0	0	512	147	
12	0	0	0	0	513	147	
13	0	0	0	0	512	147	
14	0	0	0	0	511	148	
15	0	0	0	0	510	148	
0	0	0	0	0	508	147	
1	0	0	0	0	508	147	
2	0	0	0	0	506	148	
3	0	0	0	0	504	148	
4	0	0	0	0	504	148	
5	0	0	0	0	502	147	
6	0	0	0	0	502	147	
7	0	0	0	0	499	148	
8	0	0	0	0	498	148	
9	0	0	0	0	498	148	
10	0	0	0	0	496	147	
11	0	0	0	0	494	147	
12	0	0	0	0	494	148	
13	0	0	0	0	495	148	
14	0	0	0	0	495	148	
15	0	0	0	0	496	147	
0	0	0	0	0	497	147	
1	0	0	0	0	497	148	
2	0	0	0	0	498	148	
3	0	0	0	0	499	148	
4	0	0	0	0	500	148	
5	0	0	0	0	502	147	
6	0	0	0	0	503	147	
7	0	0	0	0	505	148	
8	0	0	0	0	505	148	
9	0	0	0	0	506	148	
10	0	0	0	0	507	147	
11	0	0	0	0	506	147	
12	0	0	0	0	506	148	
13	0	0	0	0	505	148	
14	0	0	0	0	503	148	
15	0	0	0	0	502	148	
0	0	0	0	0	500	147	
1	0	0	0	0	499	147	
2	0	0	0	0	499	148	
3	0	0	0	0	499	148	
4	0	0	0	0	500	147	
5	0	0	0	0	502	147	
6	0	0	0	0	503	147	
7	0	0	0	0	502	148	
8	0	0	0	0	502	148	
9	0	0	0	0	499	147	
10	0	0	0	0	497	147	
11	0	0	0	0	494	148	
12	0	0	0	0	493	148	
13	0	0	0	0	493	148	
14	0	0	0	0	493	147	
15	0	0	0	0	494	147	
0	0	0	0	0	494	148	
1	0	0	0	0	495	148	
2	0	0	0	0	498	148	
3	0	0	0	0	501	147	
4	0	0	0	0	505	147	
5	0	0	0	0	507	147	
6	0	0	0	0	507	148	
7	0	0	0	0	508	148	
8	0	0	0	0	508	147	
9	0	0	0	0	508	147	
10	0	0	0	0	508	147	
11	0	0	0	0	507	148	
12	0	0	0	0	508	148	
13	0	0	0	0	509	148	
14	0	0	0	0	510	147	
15	0	0	0	0	511	147	
0	0	0	0	0	511	147	
1	0	0	0	0	512	148	
2	0	0	0	0	512	148	
3	0	0	0	0	510	148	
4	0	0	0	0	509	147	
5	0	0	0	0	508	147	
6	0	0	0	0	505	148	
7	0	0	0	0	504	148	
8	0	0	0	0	503	148	
9	0	0	0	0	503	147	
10	0	0	0	0	503	147	
11	0	0	0	0	503	147	
12	0	0	0	0	503	148	
13	0	0	0	0	504	148	
14	0	0	0	0	504	148	
15	0	0	0	0	505	147	
0	0	0	0	0	505	147	
1	0	0	0	0	505	148	
2	0	0	0	0	504	148	
3	0	0	0	0	504	148	
4	0	0	0	0	504	147	
5	0	0	0	0	503	147	
6	0	0	0	0	502	148	
7	0	0	0	0	499	148	
8	0	0	0	0	499	148	
9	0	0	0	0	500	147	
10	0	0	0	0	501	147	
11	0	0	0	0	502	148	
12	0	0	0	0	502	148	
13	0	0	0	0	500	148	
14	0	0	0	0	500	147	
15	0	0	0	0	500	147	
0	0	0	0	0	502	147	
1	0	0	0	0	504	148	
2	0	0	0	0	504	148	
3	0	0	0	0	505	147	
4	0	0	0	0	507	147	
5	0	0	0	0	509	148	
6	0	0	0	0	510	148	
7	0	0	0	0	510	148	
8	0	0	0	0	510	147	
9	0	0	0	0	509	147	
10	0	0	0	0	508	148	
11	0	0	0	0	508	148	
12	0	0	0	0	509	148	
13	0	0	0	0	509	147	
14	0	0	0	0	509	147	
15	0	0	0	0	509	147	
0	0	0	0	0	509	148	
1	0	0	0	0	508	148	
2	0	0	0	0	509	148	
3	0	0	0	0	509	147	
4	0	0	0	0	508	147	
5	0	0	0	0	507	148	
6	0	0	0	0	506	148	
7	0	0	0	0	506	147	
8	0	0	0	0	506	147	
9	0	0	0	0	506	147	
10	0	0	0	0	507	148	
11	0	0	0	0	506	148	
12	0	0	0	0	505	147	
13	0	0	0	0	503	147	
14	0	0	0	0	502	148	
15	0	0	0	0	502	148	
0	0	0	0	0	501	148	
1	0	0	0	0	501	147	
2	0	0	0	0	499	147	
3	0	0	0	0	497	147	
4	0	0	0	0	499	148	
5	0	0	0	0	499	148	
6	0	0	0	0	499	147	
7	0	0	0	0	500	147	
8	0	0	0	0	502	147	
9	0	0	0	0	504	148	
10	0	0	0	0	505	148	
11	0	0	0	0	508	148	
12	0	0	0	0	509	147	
13	0	0	0	0	510	147	
14	0	0	0	0	511	148	
15	0	0	0	0	512	148	
0	0	0	0	0	511	148	
1	0	0	0	0	511	147	
2	0	0	0	0	511	147	
3	0	0	0	0	512	148	
4	0	0	0	0	513	148	
5	0	0	0	0	512	148	
6	0	0	0	0	511	147	
7	0	0	0	0	511	147	
8	0	0	0	0	511	147	
9	0	0	0	0	511	148	
10	0	0	0	0	510	148	
11	0	0	0	0	508	147	
12	0	0	0	0	508	147	
13	0	0	0	0	506	147	
14	0	0	0	0	504	148	
15	0	0	0	0	505	148	
0	0	0	0	0	506	148	
1	0	0	0	0	506	147	
2	0	0	0	0	506	147	
3	0	0	0	0	505	147	
4	0	0	0	0	507	148	
5	0	0	0	0	508	148	
6	0	0	0	0	510	148	
7	0	0	0	0	511	147	
8	0	0	0	0	512	147	
9	0	0	0	0	512	148	
10	0	0	0	0	513	148	
11	0	0	0	0	512	147	
12	0	0	0	0	512	147	
13	0	0	0	0	512	148	
14	0	0	0	0	512	148	
15	0	0	0	0	513	148	
0	0	0	0	0	513	147	
1	0	0	0	0	513	147	
2	0	0	0	0	513	147	
3	0	0	0	0	513	148	
4	0	0	0	0	514	148	
5	0	0	0	0	513	148	
6	0	0	0	0	514	147	
7	0	0	0	0	513	147	
8	0	0	0	0	512	148	
9	0	0	0	0	512	148	
10	0	0	0	0	511	148	
11	0	0	0	0	511	147	
12	0	0	0	0	510	147	
13	0	0	0	0	509	147	
14	0	0	0	0	508	148	
15	0	0	0	0	507	148	
0	0	0	0	0	506	148	
1	0	0	0	0	505	147	
2	0	0	0	0	508	147	
3	0	0	0	0	509	148	
4	0	0	0	0	509	148	
5	0	0	0	0	509	148	
6	0	0	0	0	508	147	
7	0	0	0	0	508	147	
8	0	0	0	0	507	147	
9	0	0	0	0	505	148	
10	0	0	0	0	505	148	
11	0	0	0	0	505	147	
12	0	0	0	0	507	147	
13	0	0	0	0	510	147	
14	0	0	0	0	511	147	
15	0	0	0	0	512	148	
0	0	0	0	0	513	148	
1	0	0	0	0	513	148	
2	0	0	0	0	513	147	
3	0	0	0	0	513	147	
4	0	0	0	0	512	148	
5	0	0	0	0	512	148	
6	0	0	0	0	510	148	
7	0	0	0	0	510	147	
8	0	0	0	0	508	147	
9	0	0	0	0	508	148	
10	0	0	0	0	508	148	
11	0	0	0	0	507	148	
12	0	0	0	0	507	147	
13	0	0	0	0	508	147	
14	0	0	0	0	509	148	
15	0	0	0	0	508	148	
0	0	0	0	0	508	147	
1	0	0	0	0	507	147	
2	0	0	0	0	505	147	
3	0	0	0	0	503	148	
4	0	0	0	0	502	148	
5	0	0	0	0	502	147	
6	0	0	0	0	500	147	
7	0	0	0	0	500	148	
8	0	0	0	0	500	148	
9	0	0	0	0	502	148	
10	0	0	0	0	507	147	
11	0	0	0	0	511	147	
12	0	0	0	0	512	147	
13	0	0	0	0	513	148	
14	0	0	0	0	513	148	
15	0	0	0	0	514	148	
0	0	0	0	0	515	148	
1	0	0	0	0	513	147	
2	0	0	0	0	511	147	
3	0	0	0	0	511	148	
4	0	0	0	0	511	148	
5	0	0	0	0	510	148	
6	0	0	0	0	509	147	
7	0	0	0	0	508	147	
8	0	0	0	0	508	147	
9	0	0	0	0	508	148	
10	0	0	0	0	507	148	
11	0	0	0	0	505	148	
12	0	0	0	0	505	147	
13	0	0	0	0	504	147	
14	0	0	0	0	504	147	
15	0	0	0	0	504	148	
0	0	0	0	0	505	148	
1	0	0	0	0	505	148	
2	0	0	0	0	507	147	
3	0	0	0	0	507	147	
4	0	0	0	0	508	147	
5	0	0	0	0	509	148	
6	0	0	0	0	510	148	
7	0	0	0	0	510	148	
8	0	0	0	0	511	147	
9	0	0	0	0	511	147	
10	0	0	0	0	512	148	
11	0	0	0	0	512	148	
12	0	0	0	0	512	148	
13	0	0	0	0	513	147	
14	0	0	0	0	513	147	
15	0	0	0	0	513	148	
0	0	0	0	0	513	148	
1	0	0	0	0	513	148	
2	0	0	0	0	513	147	
3	0	0	0	0	514	147	
4	0	0	0	0	513	147	
5	0	0	0	0	515	148	
6	0	0	0	0	516	148	
7	0	0	0	0	516	148	
8	0	0	0	0	517	147	
9	0	0	0	0	518	147	
10	0	0	0	0	518	147	
11	0	0	0	0	517	148	
12	0	0	0	0	518	148	
13	0	0	0	0	519	147	
14	0	0	0	0	521	147	
15	0	0	0	0	522	147	
0	0	0	0	0	522	148	
1	0	0	0	0	521	148	
2	0	0	0	0	519	147	
3	0	0	0	0	519	147	
4	0	0	0	0	519	147	
5	0	0	0	0	519	147	
6	0	0	0	0	518	148	
7	0	0	0	0	519	148	
8	0	0	0	0	519	148	
9	0	0	0	0	520	147	
10	0	0	0	0	521	147	
11	0	0	0	0	520	148	
12	0	0	0	0	520	148	
13	0	0	0	0	521	148	
14	0	0	0	0	522	148	
15	0	0	0	0	524	147	
0	0	0	0	0	524	147	
1	0	0	0	0	523	147	
2	0	0	0	0	524	148	
3	0	0	0	0	523	148	
4	0	0	0	0	523	148	
5	0	0	0	0	524	147	
6	0	0	0	0	524	147	
7	0	0	0	0	524	147	
8	0	0	0	0	524	148	
9	0	0	0	0	526	148	
10	0	0	0	0	528	147	
11	0	0	0	0	529	147	
12	0	0	0	0	530	147	
13	0	0	0	0	531	147	
14	0	0	0	0	531	147	
15	0	0	0	0	531	148	
0	0	0	0	0	531	148	
1	0	0	0	0	531	148	
2	0	0	0	0	533	147	
3	0	0	0	0	534	147	
4	0	0	0	0	535	147	
5	0	0	0	0	536	148	
6	0	0	0	0	537	148	
7	0	0	0	0	537	148	
8	0	0	0	0	537	148	
9	0	0	0	0	536	148	
10	0	0	0	0	536	147	
11	0	0	0	0	535	147	
12	0	0	0	0	534	147	
13	0	0	0	0	534	147	
14	0	0	0	0	532	148	
15	0	0	0	0	531	147	
0	0	0	0	0	528	147	
1	0	0	0	0	526	147	
2	0	0	0	0	523	147	
3	0	0	0	0	521	148	
4	0	0	0	0	520	148	
5	0	0	0	0	522	148	
6	0	0	0	0	523	147	
7	0	0	0	0	524	146	
8	0	0	0	0	525	147	
9	0	0	0	0	524	147	
10	0	0	0	0	524	148	
11	0	0	0	0	524	148	
12	0	0	0	0	523	148	
13	0	0	0	0	521	147	
14	0	0	0	0	520	147	
15	0	0	0	0	520	147	
0	0	0	0	0	520	148	
1	0	0	0	0	519	148	
2	0	0	0	0	518	148	
3	0	0	0	0	517	147	
4	0	0	0	0	515	147	
5	0	0	0	0	514	147	
6	0	0	0	0	513	148	
7	0	0	0	0	513	148	
8	0	0	0	0	512	147	
9	0	0	0	0	512	147	
10	0	0	0	0	513	148	
11	0	0	0	0	513	148	
12	0	0	0	0	513	148	
13	0	0	0	0	513	147	
14	0	0	0	0	512	147	
15	0	0	0	0	511	147	
0	0	0	0	0	510	148	
1	0	0	0	0	509	148	
2	0	0	0	0	509	147	
3	0	0	0	0	508	147	
4	0	0	0	0	508	147	
5	0	0	0	0	507	148	
6	0	0	0	0	507	148	
7	0	0	0	0	505	147	
8	0	0	0	0	506	147	
9	0	0	0	0	506	147	
10	0	0	0	0	506	147	
11	0	0	0	0	506	148	
12	0	0	0	0	508	148	
13	0	0	0	0	510	147	
14	0	0	0	0	510	147	
15	0	0	0	0	510	147	
0	0	0	0	0	508	148	
1	0	0	0	0	507	148	
2	0	0	0	0	507	147	
3	0	0	0	0	506	147	
4	0	0	0	0	505	148	
5	0	0	0	0	505	148	
6	0	0	0	0	506	147	
7	0	0	0	0	506	147	
8	0	0	0	0	505	148	
9	0	0	0	0	505	148	
10	0	0	0	0	506	148	
11	0	0	0	0	507	147	
12	0	0	0	0	507	147	
13	0	0	0	0	507	148	
14	0	0	0	0	507	148	
15	0	0	0	0	508	148	
0	0	0	0	0	509	147	
1	0	0	0	0	508	147	
2	0	0	0	0	507	147	
3	0	0	0	0	506	147	
4	0	0	0	0	506	147	
5	0	0	0	0	505	148	
6	0	0	0	0	505	148	
7	0	0	0	0	504	148	
8	0	0	0	0	503	147	
9	0	0	0	0	500	147	
10	0	0	0	0	498	148	
11	0	0	0	0	497	148	
12	0	0	0	0	496	148	
13	0	0	0	0	496	147	
14	0	0	0	0	497	147	
15	0	0	0	0	497	147	
0	0	0	0	0	497	148	
1	0	0	0	0	499	148	
2	0	0	0	0	502	147	
3	0	0	0	0	507	147	
4	0	0	0	0	511	147	
5	0	0	0	0	519	148	
6	0	0	0	0	529	148	
7	0	0	0	0	541	147	
8	0	0	0	0	552	147	
9	0	0	0	0	564	147	
10	0	0	0	0	576	147	
11	0	0	0	0	588	147	
12	0	0	0	0	601	146	
13	0	0	0	0	613	147	
14	0	0	0	0	625	147	
15	0	0	0	0	636	147	
0	0	0	0	0	644	147	
1	0	0	0	0	651	148	
2	0	0	0	0	658	146	
3	0	0	0	0	663	146	
4	0	0	0	0	667	147	
5	0	0	0	0	671	147	
6	0	0	0	0	673	148	
7	0	0	0	0	672	146	
8	0	0	0	0	673	146	
9	0	0	0	0	673	147	
10	0	0	0	0	673	147	
11	0	0	0	0	670	148	
12	0	0	0	0	664	146	
13	0	0	0	0	655	146	
14	0	0	0	0	646	146	
15	0	0	0	0	636	147	
0	0	0	0	0	625	147	
1	0	0	0	0	615	148	
2	0	0	0	0	606	147	
3	0	0	0	0	598	146	
4	0	0	0	0	591	146	
5	0	0	0	0	583	147	
6	0	0	0	0	575	147	
7	0	0	0	0	566	148	
8	0	0	0	0	556	147	
9	0	0	0	0	543	147	
10	0	0	0	0	527	147	
11	0	0	0	0	513	148	
12	0	0	0	0	500	148	
13	0	0	0	0	487	148	
14	0	0	0	0	476	147	
15	0	0	0	0	467	147	
0	0	0	0	0	461	147	
1	0	0	0	0	454	148	
2	0	0	0	0	449	148	
3	0	0	0	0	444	148	
4	0	0	0	0	440	148	
5	0	0	0	0	438	148	
6	0	0	0	0	437	148	
7	0	0	0	0	437	148	
8	0	0	0	0	439	147	
9	0	0	0	0	440	147	
10	0	0	0	0	442	148	
11	0	0	0	0	446	148	
12	0	0	0	0	449	148	
13	0	0	0	0	453	148	
14	0	0	0	0	456	147	
15	0	0	0	0	457	147	
0	0	0	0	0	456	148	
1	0	0	0	0	455	148	
2	0	0	0	0	454	148	
3	0	0	0	0	453	147	
4	0	0	0	0	453	147	
5	0	0	0	0	455	148	
6	0	0	0	0	457	148	
7	0	0	0	0	460	148	
8	0	0	0	0	466	147	
9	0	0	0	0	472	147	
10	0	0	0	0	477	147	
11	0	0	0	0	480	148	
12	0	0	0	0	482	148	
13	0	0	0	0	483	147	
14	0	0	0	0	485	147	
15	0	0	0	0	487	147	
0	0	0	0	0	488	148	
1	0	0	0	0	487	148	
2	0	0	0	0	486	147	
3	0	0	0	0	484	147	
4	0	0	0	0	482	147	
5	0	0	0	0	481	148	
6	0	0	0	0	479	148	
7	0	0	0	0	479	148	
8	0	0	0	0	478	148	
9	0	0	0	0	479	147	
10	0	0	0	0	480	147	
11	0	0	0	0	481	147	
12	0	0	0	0	481	148	
13	0	0	0	0	482	148	
14	0	0	0	0	483	148	
15	0	0	0	0	483	147	
0	0	0	0	0	481	147	
1	0	0	0	0	481	148	
2	0	0	0	0	480	148	
3	0	0	0	0	480	148	
4	0	0	0	0	479	148	
5	0	0	0	0	478	147	
6	0	0	0	0	479	147	
7	0	0	0	0	479	147	
8	0	0	0	0	480	148	
9	0	0	0	0	481	148	
10	0	0	0	0	483	148	
11	0	0	0	0	485	148	
12	0	0	0	0	487	147	
13	0	0	0	0	487	147	
14	0	0	0	0	488	147	
15	0	0	0	0	490	148	
0	0	0	0	0	490	148	
1	0	0	0	0	492	147	
2	0	0	0	0	491	147	
3	0	0	0	0	491	148	
4	0	0	0	0	488	148	
5	0	0	0	0	489	148	
6	0	0	0	0	490	147	
7	0	0	0	0	492	147	
8	0	0	0	0	494	147	
9	0	0	0	0	495	147	
10	0	0	0	0	496	148	
11	0	0	0	0	497	148	
12	0	0	0	0	497	148	
13	0	0	0	0	496	148	
14	0	0	0	0	496	148	
15	0	0	0	0	495	147	
0	0	0	0	0	494	147	
1	0	0	0	0	493	148	
2	0	0	0	0	493	148	
3	0	0	0	0	494	148	
4	0	0	0	0	495	147	
5	0	0	0	0	496	147	
6	0	0	0	0	496	147	
7	0	0	0	0	496	148	
8	0	0	0	0	496	148	
9	0	0	0	0	496	147	
10	0	0	0	0	496	147	
11	0	0	0	0	495	148	
12	0	0	0	0	493	148	
13	0	0	0	0	492	148	
14	0	0	0	0	491	147	
15	0	0	0	0	490	147	
0	0	0	0	0	491	147	
1	0	0	0	0	491	148	
2	0	0	0	0	492	148	
3	0	0	0	0	493	148	
4	0	0	0	0	495	147	
5	0	0	0	0	498	147	
6	0	0	0	0	502	147	
7	0	0	0	0	505	148	
8	0	0	0	0	505	148	
9	0	0	0	0	504	148	
10	0	0	0	0	503	148	
11	0	0	0	0	502	147	
12	0	0	0	0	502	147	
13	0	0	0	0	503	147	
14	0	0	0	0	503	147	
15	0	0	0	0	503	148	
0	0	0	0	0	504	148	
1	0	0	0	0	506	148	
2	0	0	0	0	508	147	
3	0	0	0	0	509	147	
4	0	0	0	0	510	147	
5	0	0	0	0	511	148	
6	0	0	0	0	512	148	
7	0	0	0	0	512	148	
8	0	0	0	0	512	147	
9	0	0	0	0	512	147	
10	0	0	0	0	511	148	
11	0	0	0	0	510	148	
12	0	0	0	0	510	148	
13	0	0	0	0	510	147	
14	0	0	0	0	509	147	
15	0	0	0	0	509	147	
0	0	0	0	0	511	148	
1	0	0	0	0	511	148	
2	0	0	0	0	510	148	
3	0	0	0	0	511	147	
4	0	0	0	0	512	147	
5	0	0	0	0	513	147	
6	0	0	0	0	514	147	
7	0	0	0	0	513	148	
8	0	0	0	0	512	148	
9	0	0	0	0	512	147	
10	0	0	0	0	512	147	
11	0	0	0	0	512	147	
12	0	0	0	0	513	148	
13	0	0	0	0	514	148	
14	0	0	0	0	514	148	
15	0	0	0	0	514	148	
0	0	0	0	0	513	147	
1	0	0	0	0	512	147	
2	0	0	0	0	511	147	
3	0	0	0	0	511	147	
4	0	0	0	0	511	148	
5	0	0	0	0	512	148	
6	0	0	0	0	514	147	
7	0	0	0	0	515	147	
8	0	0	0	0	515	147	
9	0	0	0	0	516	147	
10	0	0	0	0	516	147	
11	0	0	0	0	516	148	
12	0	0	0	0	517	147	
13	0	0	0	0	517	148	
14	0	0	0	0	515	147	
15	0	0	0	0	515	147	
0	0	0	0	0	515	147	
1	0	0	0	0	516	148	
2	0	0	0	0	517	148	
3	0	0	0	0	518	147	
4	0	0	0	0	517	147	
5	0	0	0	0	518	147	
6	0	0	0	0	517	147	
7	0	0	0	0	517	148	
8	0	0	0	0	518	148	
9	0	0	0	0	518	147	
10	0	0	0	0	518	147	
11	0	0	0	0	518	147	
12	0	0	0	0	518	148	
13	0	0	0	0	518	148	
14	0	0	0	0	517	147	
15	0	0	0	0	516	147	
0	0	0	0	0	515	147	
1	0	0	0	0	516	148	
2	0	0	0	0	517	148	
3	0	0	0	0	516	148	
4	0	0	0	0	519	147	
5	0	0	0	0	521	147	
6	0	0	0	0	524	147	
7	0	0	0	0	525	148	
8	0	0	0	0	526	148	
9	0	0	0	0	527	147	
10	0	0	0	0	527	147	
11	0	0	0	0	526	147	
12	0	0	0	0	527	147	
13	0	0	0	0	526	148	
14	0	0	0	0	525	147	
15	0	0	0	0	524	146	
0	0	0	0	0	524	147	
1	0	0	0	0	523	147	
2	0	0	0	0	524	147	
3	0	0	0	0	526	148	
4	0	0	0	0	527	148	
5	0	0	0	0	527	147	
6	0	0	0	0	527	147	
7	0	0	0	0	527	147	
8	0	0	0	0	528	147	
9	0	0	0	0	529	148	
10	0	0	0	0	530	148	
11	0	0	0	0	530	147	
12	0	0	0	0	529	146	
13	0	0	0	0	529	147	
14	0	0	0	0	529	147	
15	0	0	0	0	529	147	
0	0	0	0	0	528	147	
1	0	0	0	0	527	148	
2	0	0	0	0	526	148	
3	0	0	0	0	526	146	
4	0	0	0	0	528	147	
5	0	0	0	0	529	147	
6	0	0	0	0	529	147	
7	0	0	0	0	528	148	
8	0	0	0	0	527	146	
9	0	0	0	0	527	147	
10	0	0	0	0	528	147	
11	0	0	0	0	531	147	
12	0	0	0	0	531	148	
13	0	0	0	0	534	146	
14	0	0	0	0	536	147	
15	0	0	0	0	537	147	
0	0	0	0	0	536	147	
1	0	0	0	0	536	148	
2	0	0	0	0	539	146	
3	0	0	0	0	540	147	
4	0	0	0	0	542	147	
5	0	0	0	0	542	147	
6	0	0	0	0	542	147	
7	0	0	0	0	542	147	
8	0	0	0	0	541	148	
9	0	0	0	0	541	148	
10	0	0	0	0	541	147	
11	0	0	0	0	540	146	
12	0	0	0	0	539	147	
13	0	0	0	0	536	147	
14	0	0	0	0	535	147	
15	0	0	0	0	534	147	
0	0	0	0	0	533	148	
1	0	0	0	0	531	147	
2	0	0	0	0	531	148	
3	0	0	0	0	530	148	
4	0	0	0	0	529	148	
5	0	0	0	0	529	148	
6	0	0	0	0	529	147	
7	0	0	0	0	531	147	
8	0	0	0	0	531	147	
9	0	0	0	0	531	147	
10	0	0	0	0	531	148	
11	0	0	0	0	531	147	
12	0	0	0	0	529	148	
13	0	0	0	0	529	148	
14	0	0	0	0	529	147	
15	0	0	0	0	529	147	
0	0	0	0	0	530	147	
1	0	0	0	0	530	147	
2	0	0	0	0	531	147	
3	0	0	0	0	531	147	
4	0	0	0	0	532	147	
5	0	0	0	0	534	147	
6	0	0	0	0	535	148	
7	0	0	0	0	535	147	
8	0	0	0	0	536	147	
9	0	0	0	0	537	147	
10	0	0	0	0	536	147	
11	0	0	0	0	535	147	
12	0	0	0	0	533	147	
13	0	0	0	0	530	147	
14	0	0	0	0	528	148	
15	0	0	0	0	527	148	
0	0	0	0	0	524	147	
1	0	0	0	0	523	147	
2	0	0	0	0	520	147	
3	0	0	0	0	516	147	
4	0	0	0	0	513	147	
5	0	0	0	0	511	147	
6	0	0	0	0	510	147	
7	0	0	0	0	510	147	
8	0	0	0	0	511	148	
9	0	0	0	0	513	148	
10	0	0	0	0	514	148	
11	0	0	0	0	516	147	
12	0	0	0	0	518	146	
13	0	0	0	0	520	146	
14	0	0	0	0	519	147	
15	0	0	0	0	519	147	
0	0	0	0	0	518	147	
1	0	0	0	0	517	147	
2	0	0	0	0	516	147	
3	0	0	0	0	513	147	
4	0	0	0	0	510	147	
5	0	0	0	0	507	148	
6	0	0	0	0	504	148	
7	0	0	0	0	502	148	
8	0	0	0	0	500	148	
9	0	0	0	0	499	148	
10	0	0	0	0	499	147	
11	0	0	0	0	497	147	
12	0	0	0	0	496	147	
13	0	0	0	0	494	148	
14	0	0	0	0	492	148	
15	0	0	0	0	492	147	
0	0	0	0	0	491	147	
1	0	0	0	0	489	147	
2	0	0	0	0	487	148	
3	0	0	0	0	485	148	
4	0	0	0	0	483	147	
5	0	0	0	0	482	147	
6	0	0	0	0	481	147	
7	0	0	0	0	480	148	
8	0	0	0	0	479	148	
9	0	0	0	0	478	147	
10	0	0	0	0	477	147	
11	0	0	0	0	475	147	
12	0	0	0	0	473	148	
13	0	0	0	0	472	148	
14	0	0	0	0	472	147	
15	0	0	0	0	471	147	
0	0	0	0	0	470	147	
1	0	0	0	0	470	148	
2	0	0	0	0	470	148	
3	0	0	0	0	470	148	
4	0	0	0	0	470	147	
5	0	0	0	0	471	147	
6	0	0	0	0	470	147	
7	0	0	0	0	470	148	
8	0	0	0	0	467	148	
9	0	0	0	0	466	148	
10	0	0	0	0	467	148	
11	0	0	0	0	466	147	
12	0	0	0	0	465	147	
13	0	0	0	0	463	147	
14	0	0	0	0	460	148	
15	0	0	0	0	457	148	
0	0	0	0	0	455	148	
1	0	0	0	0	453	148	
2	0	0	0	0	453	147	
3	0	0	0	0	454	147	
4	0	0	0	0	456	148	
5	0	0	0	0	458	148	
6	0	0	0	0	460	148	
7	0	0	0	0	464	147	
8	0	0	0	0	467	147	
9	0	0	0	0	470	148	
10	0	0	0	0	473	148	
11	0	0	0	0	475	148	
12	0	0	0	0	477	148	
13	0	0	0	0	478	148	
14	0	0	0	0	478	147	
15	0	0	0	0	480	147	
0	0	0	0	0	480	148	
1	0	0	0	0	481	148	
2	0	0	0	0	480	147	
3	0	0	0	0	480	147	
4	0	0	0	0	480	147	
5	0	0	0	0	480	148	
6	0	0	0	0	480	148	
7	0	0	0	0	480	147	
8	0	0	0	0	479	147	
9	0	0	0	0	478	148	
10	0	0	0	0	477	148	
11	0	0	0	0	477	148	
12	0	0	0	0	477	147	
13	0	0	0	0	477	147	
14	0	0	0	0	477	147	
15	0	0	0	0	478	148	
0	0	0	0	0	479	148	
1	0	0	0	0	481	148	
2	0	0	0	0	483	147	
3	0	0	0	0	483	147	
4	0	0	0	0	484	147	
5	0	0	0	0	485	148	
6	0	0	0	0	485	148	
7	0	0	0	0	486	147	
8	0	0	0	0	487	147	
9	0	0	0	0	487	148	
10	0	0	0	0	486	148	
11	0	0	0	0	484	147	
12	0	0	0	0	483	147	
13	0	0	0	0	481	147	
14	0	0	0	0	482	148	
15	0	0	0	0	483	148	
0	0	0	0	0	482	148	
1	0	0	0	0	481	147	
2	0	0	0	0	481	147	
3	0	0	0	0	480	147	
4	0	0	0	0	481	147	
5	0	0	0	0	481	148	
6	0	0	0	0	483	148	
7	0	0	0	0	484	147	
8	0	0	0	0	485	147	
9	0	0	0	0	486	147	
10	0	0	0	0	487	148	
11	0	0	0	0	487	148	
12	0	0	0	0	486	148	
13	0	0	0	0	486	147	
14	0	0	0	0	487	147	
15	0	0	0	0	487	147	
0	0	0	0	0	487	148	
1	0	0	0	0	487	148	
2	0	0	0	0	487	147	
3	0	0	0	0	486	147	
4	0	0	0	0	487	148	
5	0	0	0	0	489	148	
6	0	0	0	0	492	148	
7	0	0	0	0	493	148	
8	0	0	0	0	493	147	
9	0	0	0	0	494	147	
10	0	0	0	0	496	148	
11	0	0	0	0	496	148	
12	0	0	0	0	496	148	
13	0	0	0	0	496	147	
14	0	0	0	0	495	147	
15	0	0	0	0	495	147	
0	0	0	0	0	493	148	
1	0	0	0	0	493	148	
2	0	0	0	0	494	147	
3	0	0	0	0	494	147	
4	0	0	0	0	494	148	
5	0	0	0	0	493	147	
6	0	0	0	0	493	148	
7	0	0	0	0	492	147	
8	0	0	0	0	492	147	
9	0	0	0	0	492	147	
10	0	0	0	0	492	147	
11	0	0	0	0	492	148	
12	0	0	0	0	492	148	
13	0	0	0	0	492	147	
14	0	0	0	0	492	147	
15	0	0	0	0	493	147	
0	0	0	0	0	493	148	
1	0	0	0	0	492	148	
2	0	0	0	0	492	148	
3	0	0	0	0	492	147	
4	0	0	0	0	492	147	
5	0	0	0	0	490	148	
6	0	0	0	0	488	148	
7	0	0	0	0	486	147	
8	0	0	0	0	486	147	
9	0	0	0	0	486	147	
10	0	0	0	0	486	147	
11	0	0	0	0	487	148	
12	0	0	0	0	487	148	
13	0	0	0	0	490	147	
14	0	0	0	0	495	147	
15	0	0	0	0	500	147	
0	0	0	0	0	507	147	
1	0	0	0	0	512	148	
2	0	0	0	0	514	148	
3	0	0	0	0	516	147	
4	0	0	0	0	519	147	
5	0	0	0	0	521	147	
6	0	0	0	0	521	147	
7	0	0	0	0	520	148	
8	0	0	0	0	519	148	
9	0	0	0	0	519	147	
10	0	0	0	0	517	147	
11	0	0	0	0	515	147	
12	0	0	0	0	514	147	
13	0	0	0	0	512	148	
14	0	0	0	0	511	147	
15	0	0	0	0	511	147	
0	0	0	0	0	511	147	
1	0	0	0	0	510	148	
2	0	0	0	0	510	147	
3	0	0	0	0	510	148	
4	0	0	0	0	510	147	
5	0	0	0	0	510	147	
6	0	0	0	0	511	147	
7	0	0	0	0	510	148	
8	0	0	0	0	510	148	
9	0	0	0	0	510	148	
10	0	0	0	0	509	147	
11	0	0	0	0	507	147	
12	0	0	0	0	506	147	
13	0	0	0	0	504	147	
14	0	0	0	0	502	148	
15	0	0	0	0	502	148	
0	0	0	0	0	503	147	
1	0	0	0	0	502	147	
2	0	0	0	0	501	147	
3	0	0	0	0	500	148	
4	0	0	0	0	500	148	
5	0	0	0	0	501	148	
6	0	0	0	0	501	147	
7	0	0	0	0	502	147	
8	0	0	0	0	501	147	
9	0	0	0	0	500	148	
10	0	0	0	0	500	148	
11	0	0	0	0	499	147	
12	0	0	0	0	498	147	
13	0	0	0	0	498	147	
14	0	0	0	0	498	147	
15	0	0	0	0	497	148	
0	0	0	0	0	498	148	
1	0	0	0	0	499	147	
2	0	0	0	0	501	147	
3	0	0	0	0	502	147	
4	0	0	0	0	503	147	
5	0	0	0	0	504	147	
6	0	0	0	0	505	147	
7	0	0	0	0	505	147	
8	0	0	0	0	506	147	
9	0	0	0	0	505	148	
10	0	0	0	0	505	147	
11	0	0	0	0	505	148	
12	0	0	0	0	505	147	
13	0	0	0	0	507	147	
14	0	0	0	0	508	147	
15	0	0	0	0	508	147	
0	0	0	0	0	507	147	
1	0	0	0	0	507	148	
2	0	0	0	0	507	147	
3	0	0	0	0	508	147	
4	0	0	0	0	509	147	
5	0	0	0	0	508	147	
6	0	0	0	0	507	147	
7	0	0	0	0	506	147	
8	0	0	0	0	506	148	
9	0	0	0	0	504	147	
10	0	0	0	0	504	147	
11	0	0	0	0	504	148	
12	0	0	0	0	503	147	
13	0	0	0	0	502	147	
14	0	0	0	0	501	147	
15	0	0	0	0	501	147	
0	0	0	0	0	500	147	
1	0	0	0	0	500	148	
2	0	0	0	0	501	147	
3	0	0	0	0	501	147	
4	0	0	0	0	502	147	
5	0	0	0	0	502	148	
6	0	0	0	0	503	148	
7	0	0	0	0	503	147	
8	0	0	0	0	503	147	
9	0	0	0	0	504	147	
10	0	0	0	0	504	147	
11	0	0	0	0	504	148	
12	0	0	0	0	503	148	
13	0	0	0	0	502	147	
14	0	0	0	0	501	147	
15	0	0	0	0	500	147	
0	0	0	0	0	499	147	
1	0	0	0	0	499	148	
2	0	0	0	0	498	148	
3	0	0	0	0	497	148	
4	0	0	0	0	495	147	
5	0	0	0	0	494	147	
6	0	0	0	0	492	148	
7	0	0	0	0	492	148	
8	0	0	0	0	492	147	
9	0	0	0	0	493	147	
10	0	0	0	0	492	147	
11	0	0	0	0	492	148	
12	0	0	0	0	491	148	
13	0	0	0	0	491	147	
14	0	0	0	0	489	147	
15	0	0	0	0	489	147	
0	0	0	0	0	491	148	
1	0	0	0	0	491	148	
2	0	0	0	0	490	147	
3	0	0	0	0	488	147	
4	0	0	0	0	487	147	
5	0	0	0	0	487	147	
6	0	0	0	0	490	148	
7	0	0	0	0	493	147	
8	0	0	0	0	495	147	
9	0	0	0	0	497	147	
10	0	0	0	0	500	147	
11	0	0	0	0	506	148	
12	0	0	0	0	511	147	
13	0	0	0	0	514	147	
14	0	0	0	0	515	147	
15	0	0	0	0	517	147	
0	0	0	0	0	517	147	
1	0	0	0	0	517	147	
2	0	0	0	0	518	147	
3	0	0	0	0	518	147	
4	0	0	0	0	517	147	
5	0	0	0	0	516	148	
6	0	0	0	0	515	146	
7	0	0	0	0	513	147	
8	0	0	0	0	511	147	
9	0	0	0	0	510	148	
10	0	0	0	0	509	148	
11	0	0	0	0	508	147	
12	0	0	0	0	507	147	
13	0	0	0	0	506	147	
14	0	0	0	0	504	148	
15	0	0	0	0	502	148	
0	0	0	0	0	501	147	
1	0	0	0	0	500	147	
2	0	0	0	0	499	147	
3	0	0	0	0	499	147	
4	0	0	0	0	498	148	
5	0	0	0	0	497	148	
6	0	0	0	0	497	147	
7	0	0	0	0	498	147	
8	0	0	0	0	499	147	
9	0	0	0	0	499	148	
10	0	0	0	0	500	148	
11	0	0	0	0	500	148	
12	0	0	0	0	500	147	
13	0	0	0	0	499	147	
14	0	0	0	0	498	147	
15	0	0	0	0	498	147	
0	0	0	0	0	499	147	
1	0	0	0	0	497	148	
2	0	0	0	0	497	147	
3	0	0	0	0	496	147	
4	0	0	0	0	496	147	
5	0	0	0	0	496	147	
6	0	0	0	0	496	147	
7	0	0	0	0	496	148	
8	0	0	0	0	496	147	
9	0	0	0	0	497	147	
10	0	0	0	0	498	147	
11	0	0	0	0	498	147	
12	0	0	0	0	499	147	
13	0	0	0	0	499	148	
14	0	0	0	0	498	147	
15	0	0	0	0	497	147	
0	0	0	0	0	496	147	
1	0	0	0	0	495	148	
2	0	0	0	0	494	148	
3	0	0	0	0	493	148	
4	0	0	0	0	491	147	
5	0	0	0	0	489	147	
6	0	0	0	0	488	147	
7	0	0	0	0	488	147	
8	0	0	0	0	489	147	
9	0	0	0	0	489	148	
10	0	0	0	0	491	148	
11	0	0	0	0	492	148	
12	0	0	0	0	495	147	
13	0	0	0	0	496	147	
14	0	0	0	0	497	147	
15	0	0	0	0	496	147	
0	0	0	0	0	496	148	
1	0	0	0	0	496	148	
2	0	0	0	0	496	147	
3	0	0	0	0	496	147	
4	0	0	0	0	496	147	
5	0	0	0	0	497	147	
6	0	0	0	0	497	147	
7	0	0	0	0	496	147	
8	0	0	0	0	498	147	
9	0	0	0	0	498	148	
10	0	0	0	0	498	148	
11	0	0	0	0	498	147	
12	0	0	0	0	499	147	
13	0	0	0	0	499	147	
14	0	0	0	0	499	147	
15	0	0	0	0	497	148	
0	0	0	0	0	496	147	
1	0	0	0	0	498	147	
2	0	0	0	0	499	147	
3	0	0	0	0	499	147	
4	0	0	0	0	497	148	
5	0	0	0	0	496	147	
6	0	0	0	0	495	147	
7	0	0	0	0	495	147	
8	0	0	0	0	497	147	
9	0	0	0	0	499	148	
10	0	0	0	0	501	148	
11	0	0	0	0	504	147	
12	0	0	0	0	505	147	
13	0	0	0	0	508	147	
14	0	0	0	0	511	148	
15	0	0	0	0	511	147	
0	0	0	0	0	512	147	
1	0	0	0	0	511	147	
2	0	0	0	0	510	147	
3	0	0	0	0	510	148	
4	0	0	0	0	508	147	
5	0	0	0	0	507	147	
6	0	0	0	0	505	147	
7	0	0	0	0	504	147	
8	0	0	0	0	504	148	
9	0	0	0	0	503	147	
10	0	0	0	0	503	147	
11	0	0	0	0	503	147	
12	0	0	0	0	503	147	
13	0	0	0	0	504	147	
14	0	0	0	0	503	148	
15	0	0	0	0	503	147	
0	0	0	0	0	504	147	
1	0	0	0	0	503	148	
2	0	0	0	0	502	147	
3	0	0	0	0	502	148	
4	0	0	0	0	503	147	
5	0	0	0	0	504	147	
6	0	0	0	0	503	147	
7	0	0	0	0	503	148	
8	0	0	0	0	502	147	
9	0	0	0	0	501	148	
10	0	0	0	0	501	147	
11	0	0	0	0	501	147	
12	0	0	0	0	500	147	
13	0	0	0	0	499	147	
14	0	0	0	0	499	147	
15	0	0	0	0	499	148	
0	0	0	0	0	500	147	
1	0	0	0	0	501	147	
2	0	0	0	0	500	147	
3	0	0	0	0	499	147	
4	0	0	0	0	497	148	
5	0	0	0	0	495	148	
6	0	0	0	0	495	147	
7	0	0	0	0	496	147	
8	0	0	0	0	497	147	
9	0	0	0	0	498	147	
10	0	0	0	0	501	148	
11	0	0	0	0	504	147	
12	0	0	0	0	507	147	
13	0	0	0	0	509	147	
14	0	0	0	0	510	147	
15	0	0	0	0	510	147	
0	0	0	0	0	512	147	
1	0	0	0	0	513	147	
2	0	0	0	0	514	147	
3	0	0	0	0	514	147	
4	0	0	0	0	513	148	
5	0	0	0	0	512	147	
6	0	0	0	0	511	147	
7	0	0	0	0	508	147	
8	0	0	0	0	505	147	
9	0	0	0	0	504	148	
10	0	0	0	0	503	147	
11	0	0	0	0	502	147	
12	0	0	0	0	502	147	
13	0	0	0	0	502	147	
14	0	0	0	0	503	148	
15	0	0	0	0	503	147	
0	0	0	0	0	504	147	
1	0	0	0	0	505	147	
2	0	0	0	0	508	147	
3	0	0	0	0	508	148	
4	0	0	0	0	508	147	
5	0	0	0	0	508	147	
6	0	0	0	0	507	147	
7	0	0	0	0	504	147	
8	0	0	0	0	502	148	
9	0	0	0	0	499	147	
10	0	0	0	0	499	147	
11	0	0	0	0	497	147	
12	0	0	0	0	496	148	
13	0	0	0	0	495	148	
14	0	0	0	0	495	147	
15	0	0	0	0	496	147	
0	0	0	0	0	497	147	
1	0	0	0	0	498	147	
2	0	0	0	0	501	147	
3	0	0	0	0	503	148	
4	0	0	0	0	503	147	
5	0	0	0	0	505	147	
6	0	0	0	0	508	147	
7	0	0	0	0	510	147	
8	0	0	0	0	511	147	
9	0	0	0	0	512	147	
10	0	0	0	0	512	148	
11	0	0	0	0	512	148	
12	0	0	0	0	511	147	
13	0	0	0	0	509	147	
14	0	0	0	0	509	147	
15	0	0	0	0	508	147	
0	0	0	0	0	509	147	
1	0	0	0	0	510	148	
2	0	0	0	0	510	148	
3	0	0	0	0	510	147	
4	0	0	0	0	509	146	
5	0	0	0	0	508	147	
6	0	0	0	0	507	147	
7	0	0	0	0	506	148	
8	0	0	0	0	505	148	
9	0	0	0	0	504	147	
10	0	0	0	0	503	147	
11	0	0	0	0	502	147	
12	0	0	0	0	501	147	
13	0	0	0	0	499	147	
14	0	0	0	0	499	147	
15	0	0	0	0	500	148	
0	0	0	0	0	502	146	
1	0	0	0	0	503	147	
2	0	0	0	0	502	147	
3	0	0	0	0	499	147	
4	0	0	0	0	499	148	
5	0	0	0	0	500	146	
6	0	0	0	0	501	147	
7	0	0	0	0	503	147	
8	0	0	0	0	505	147	
9	0	0	0	0	505	148	
10	0	0	0	0	505	147	
11	0	0	0	0	505	147	
12	0	0	0	0	505	147	
13	0	0	0	0	505	147	
14	0	0	0	0	504	148	
15	0	0	0	0	504	148	
0	0	0	0	0	505	147	
1	0	0	0	0	505	147	
2	0	0	0	0	504	147	
3	0	0	0	0	505	147	
4	0	0	0	0	507	147	
5	0	0	0	0	509	147	
6	0	0	0	0	511	147	
7	0	0	0	0	511	147	
8	0	0	0	0	510	147	
9	0	0	0	0	511	147	
10	0	0	0	0	511	147	
11	0	0	0	0	512	148	
12	0	0	0	0	511	147	
13	0	0	0	0	512	146	
14	0	0	0	0	512	147	
15	0	0	0	0	513	147	
0	0	0	0	0	514	147	
1	0	0	0	0	515	147	
2	0	0	0	0	514	147	
3	0	0	0	0	512	147	
4	0	0	0	0	512	147	
5	0	0	0	0	512	147	
6	0	0	0	0	511	148	
7	0	0	0	0	511	147	
8	0	0	0	0	508	147	
9	0	0	0	0	506	147	
10	0	0	0	0	504	147	
11	0	0	0	0	504	147	
12	0	0	0	0	503	148	
13	0	0	0	0	500	147	
14	0	0	0	0	499	147	
15	0	0	0	0	501	147	
0	0	0	0	0	504	147	
1	0	0	0	0	507	148	
2	0	0	0	0	510	147	
3	0	0	0	0	511	146	
4	0	0	0	0	512	147	
5	0	0	0	0	513	147	
6	0	0	0	0	515	147	
7	0	0	0	0	518	147	
8	0	0	0	0	520	147	
9	0	0	0	0	520	147	
10	0	0	0	0	519	147	
11	0	0	0	0	517	147	
12	0	0	0	0	516	147	
13	0	0	0	0	515	147	
14	0	0	0	0	515	146	
15	0	0	0	0	514	147	
0	0	0	0	0	513	147	
1	0	0	0	0	512	147	
2	0	0	0	0	512	147	
3	0	0	0	0	511	147	
4	0	0	0	0	510	148	
5	0	0	0	0	508	146	
6	0	0	0	0	506	147	
7	0	0	0	0	505	147	
8	0	0	0	0	504	147	
9	0	0	0	0	503	148	
10	0	0	0	0	504	147	
11	0	0	0	0	506	147	
12	0	0	0	0	509	147	
13	0	0	0	0	510	147	
14	0	0	0	0	511	147	
15	0	0	0	0	512	148	
0	0	0	0	0	513	148	
1	0	0	0	0	514	147	
2	0	0	0	0	514	147	
3	0	0	0	0	514	147	
4	0	0	0	0	515	147	
5	0	0	0	0	516	148	
6	0	0	0	0	514	146	
7	0	0	0	0	514	147	
8	0	0	0	0	512	147	
9	0	0	0	0	512	147	
10	0	0	0	0	512	147	
11	0	0	0	0	512	147	
12	0	0	0	0	512	147	
13	0	0	0	0	512	147	
14	0	0	0	0	512	148	
15	0	0	0	0	512	146	
0	0	0	0	0	511	147	
1	0	0	0	0	509	147	
2	0	0	0	0	507	148	
3	0	0	0	0	506	147	
4	0	0	0	0	506	146	
5	0	0	0	0	506	147	
6	0	0	0	0	507	147	
7	0	0	0	0	508	148	
8	0	0	0	0	508	146	
9	0	0	0	0	510	147	
10	0	0	0	0	515	147	
11	0	0	0	0	517	147	
12	0	0	0	0	519	148	
13	0	0	0	0	520	146	
14	0	0	0	0	519	147	
15	0	0	0	0	519	147	
0	0	0	0	0	518	147	
1	0	0	0	0	516	148	
2	0	0	0	0	515	146	
3	0	0	0	0	513	147	
4	0	0	0	0	513	147	
5	0	0	0	0	512	147	
6	0	0	0	0	512	148	
7	0	0	0	0	511	146	
8	0	0	0	0	510	147	
9	0	0	0	0	509	147	
10	0	0	0	0	507	147	
11	0	0	0	0	504	147	
12	0	0	0	0	504	148	
13	0	0	0	0	504	147	
14	0	0	0	0	505	147	
15	0	0	0	0	507	147	
0	0	0	0	0	507	147	
1	0	0	0	0	508	147	
2	0	0	0	0	508	147	
3	0	0	0	0	509	147	
4	0	0	0	0	511	146	
5	0	0	0	0	513	147	
6	0	0	0	0	515	147	
7	0	0	0	0	516	147	
8	0	0	0	0	518	147	
9	0	0	0	0	516	146	
10	0	0	0	0	513	147	
11	0	0	0	0	512	147	
12	0	0	0	0	512	147	
13	0	0	0	0	511	148	
14	0	0	0	0	512	147	
15	0	0	0	0	511	146	
0	0	0	0	0	511	147	
1	0	0	0	0	511	147	
2	0	0	0	0	512	147	
3	0	0	0	0	511	147	
4	0	0	0	0	511	148	
5	0	0	0	0	510	147	
6	0	0	0	0	509	147	
7	0	0	0	0	509	147	
8	0	0	0	0	510	147	
9	0	0	0	0	510	148	
10	0	0	0	0	510	147	
11	0	0	0	0	510	147	
12	0	0	0	0	511	147	
13	0	0	0	0	511	147	
14	0	0	0	0	511	147	
15	0	0	0	0	511	147	
0	0	0	0	0	511	146	
1	0	0	0	0	510	147	
2	0	0	0	0	508	147	
3	0	0	0	0	507	147	
4	0	0	0	0	506	148	
5	0	0	0	0	505	147	
6	0	0	0	0	504	147	
7	0	0	0	0	504	147	
8	0	0	0	0	505	147	
9	0	0	0	0	508	148	
10	0	0	0	0	511	147	
11	0	0	0	0	513	147	
12	0	0	0	0	515	147	
13	0	0	0	0	518	147	
14	0	0	0	0	519	148	
15	0	0	0	0	519	146	
0	0	0	0	0	520	147	
1	0	0	0	0	520	147	
2	0	0	0	0	519	147	
3	0	0	0	0	519	147	
4	0	0	0	0	518	148	
5	0	0	0	0	517	147	
6	0	0	0	0	518	146	
7	0	0	0	0	518	147	
8	0	0	0	0	518	147	
9	0	0	0	0	516	147	
10	0	0	0	0	515	147	
11	0	0	0	0	515	147	
12	0	0	0	0	513	146	
13	0	0	0	0	512	147	
14	0	0	0	0	510	147	
15	0	0	0	0	508	147	
0	0	0	0	0	507	148	
1	0	0	0	0	506	147	
2	0	0	0	0	507	147	
3	0	0	0	0	508	147	
4	0	0	0	0	509	147	
5	0	0	0	0	509	147	
6	0	0	0	0	510	147	
7	0	0	0	0	510	147	
8	0	0	0	0	509	146	
9	0	0	0	0	510	147	
10	0	0	0	0	511	147	
11	0	0	0	0	511	147	
12	0	0	0	0	512	147	
13	0	0	0	0	512	147	
14	0	0	0	0	511	147	
15	0	0	0	0	511	147	
0	0	0	0	0	513	147	
1	0	0	0	0	514	147	
2	0	0	0	0	515	148	
3	0	0	0	0	515	147	
4	0	0	0	0	514	146	
5	0	0	0	0	515	147	
6	0	0	0	0	518	147	
7	0	0	0	0	519	147	
8	0	0	0	0	519	146	
9	0	0	0	0	517	146	
10	0	0	0	0	516	147	
11	0	0	0	0	515	147	
12	0	0	0	0	515	147	
13	0	0	0	0	514	147	
14	0	0	0	0	513	147	
15	0	0	0	0	512	147	
0	0	0	0	0	511	146	
1	0	0	0	0	509	147	
2	0	0	0	0	510	147	
3	0	0	0	0	510	147	
4	0	0	0	0	510	146	
5	0	0	0	0	512	147	
6	0	0	0	0	513	147	
7	0	0	0	0	516	147	
8	0	0	0	0	520	147	
9	0	0	0	0	521	147	
10	0	0	0	0	522	146	
11	0	0	0	0	523	147	
12	0	0	0	0	526	147	
13	0	0	0	0	528	147	
14	0	0	0	0	529	146	
15	0	0	0	0	528	147	
0	0	0	0	0	527	147	
1	0	0	0	0	526	147	
2	0	0	0	0	525	147	
3	0	0	0	0	523	146	
4	0	0	0	0	521	147	
5	0	0	0	0	520	147	
6	0	0	0	0	519	147	
7	0	0	0	0	519	148	
8	0	0	0	0	520	146	
9	0	0	0	0	523	147	
10	0	0	0	0	525	147	
11	0	0	0	0	526	147	
12	0	0	0	0	526	148	
13	0	0	0	0	526	147	
14	0	0	0	0	527	146	
15	0	0	0	0	526	146	
0	0	0	0	0	526	147	
1	0	0	0	0	525	147	
2	0	0	0	0	526	147	
3	0	0	0	0	528	146	
4	0	0	0	0	530	146	
5	0	0	0	0	532	147	
6	0	0	0	0	534	147	
7	0	0	0	0	537	147	
8	0	0	0	0	539	147	
9	0	0	0	0	542	147	
10	0	0	0	0	542	146	
11	0	0	0	0	543	147	
12	0	0	0	0	544	147	
13	0	0	0	0	544	147	
14	0	0	0	0	543	147	
15	0	0	0	0	542	146	
0	0	0	0	0	539	146	
1	0	0	0	0	536	147	
2	0	0	0	0	535	147	
3	0	0	0	0	532	148	
4	0	0	0	0	531	146	
5	0	0	0	0	531	146	
6	0	0	0	0	531	147	
7	0	0	0	0	531	147	
8	0	0	0	0	532	147	
9	0	0	0	0	534	147	
10	0	0	0	0	537	146	
11	0	0	0	0	540	147	
12	0	0	0	0	541	147	
13	0	0	0	0	540	147	
14	0	0	0	0	540	147	
15	0	0	0	0	538	147	
0	0	0	0	0	537	147	
1	0	0	0	0	535	146	
2	0	0	0	0	533	146	
3	0	0	0	0	531	147	
4	0	0	0	0	528	147	
5	0	0	0	0	525	147	
6	0	0	0	0	524	148	
7	0	0	0	0	524	146	
8	0	0	0	0	524	147	
9	0	0	0	0	523	147	
10	0	0	0	0	522	147	
11	0	0	0	0	520	147	
12	0	0	0	0	518	146	
13	0	0	0	0	516	147	
14	0	0	0	0	515	147	
15	0	0	0	0	512	147	
0	0	0	0	0	510	148	
1	0	0	0	0	508	148	
2	0	0	0	0	507	147	
3	0	0	0	0	505	146	
4	0	0	0	0	504	147	
5	0	0	0	0	506	147	
6	0	0	0	0	508	147	
7	0	0	0	0	508	148	
8	0	0	0	0	508	146	
9	0	0	0	0	509	147	
10	0	0	0	0	509	147	
11	0	0	0	0	508	147	
12	0	0	0	0	508	147	
13	0	0	0	0	508	148	
14	0	0	0	0	508	146	
15	0	0	0	0	508	147	
0	0	0	0	0	508	147	
1	0	0	0	0	508	148	
2	0	0	0	0	508	147	
3	0	0	0	0	508	147	
4	0	0	0	0	509	147	
5	0	0	0	0	511	147	
6	0	0	0	0	511	147	
7	0	0	0	0	511	146	
8	0	0	0	0	511	147	
9	0	0	0	0	511	147	
10	0	0	0	0	510	147	
11	0	0	0	0	510	147	
12	0	0	0	0	510	147	
13	0	0	0	0	509	146	
14	0	0	0	0	509	147	
15	0	0	0	0	508	147	
0	0	0	0	0	507	148	
1	0	0	0	0	506	147	
2	0	0	0	0	507	146	
3	0	0	0	0	507	147	
4	0	0	0	0	507	147	
5	0	0	0	0	508	147	
6	0	0	0	0	510	147	
7	0	0	0	0	511	146	
8	0	0	0	0	513	147	
9	0	0	0	0	515	147	
10	0	0	0	0	515	147	
11	0	0	0	0	515	147	
12	0	0	0	0	516	147	
13	0	0	0	0	516	147	
14	0	0	0	0	515	148	
15	0	0	0	0	514	147	
0	0	0	0	0	513	146	
1	0	0	0	0	511	147	
2	0	0	0	0	510	147	
3	0	0	0	0	510	147	
4	0	0	0	0	508	148	
5	0	0	0	0	504	147	
6	0	0	0	0	500	147	
7	0	0	0	0	497	147	
8	0	0	0	0	495	147	
9	0	0	0	0	493	147	
10	0	0	0	0	493	148	
11	0	0	0	0	492	146	
12	0	0	0	0	492	147	
13	0	0	0	0	493	147	
14	0	0	0	0	494	147	
15	0	0	0	0	495	147	
0	0	0	0	0	496	148	
1	0	0	0	0	499	147	
2	0	0	0	0	502	146	
3	0	0	0	0	508	147	
4	0	0	0	0	514	147	
5	0	0	0	0	523	147	
6	0	0	0	0	534	147	
7	0	0	0	0	545	147	
8	0	0	0	0	557	146	
9	0	0	0	0	569	147	
10	0	0	0	0	583	147	
11	0	0	0	0	597	147	
12	0	0	0	0	610	146	
13	0	0	0	0	623	146	
14	0	0	0	0	635	146	
15	0	0	0	0	643	147	
0	0	0	0	0	650	147	
1	0	0	0	0	657	147	
2	0	0	0	0	665	145	
3	0	0	0	0	670	146	
4	0	0	0	0	673	147	
5	0	0	0	0	675	147	
6	0	0	0	0	676	147	
7	0	0	0	0	676	146	
8	0	0	0	0	677	145	
9	0	0	0	0	678	146	
10	0	0	0	0	676	147	
11	0	0	0	0	673	147	
12	0	0	0	0	668	147	
13	0	0	0	0	660	146	
14	0	0	0	0	650	145	
15	0	0	0	0	639	146	
0	0	0	0	0	627	147	
1	0	0	0	0	616	147	
2	0	0	0	0	606	147	
3	0	0	0	0	597	147	
4	0	0	0	0	586	146	
5	0	0	0	0	575	146	
6	0	0	0	0	563	147	
7	0	0	0	0	549	147	
8	0	0	0	0	534	147	
9	0	0	0	0	519	147	
10	0	0	0	0	504	146	
11	0	0	0	0	488	147	
12	0	0	0	0	476	147	
13	0	0	0	0	466	147	
14	0	0	0	0	459	148	
15	0	0	0	0	454	147	
0	0	0	0	0	451	147	
1	0	0	0	0	449	148	
2	0	0	0	0	451	147	
3	0	0	0	0	453	148	
4	0	0	0	0	453	147	
5	0	0	0	0	453	147	
6	0	0	0	0	454	147	
7	0	0	0	0	455	147	
8	0	0	0	0	456	148	
9	0	0	0	0	457	148	
10	0	0	0	0	459	147	
11	0	0	0	0	462	147	
12	0	0	0	0	465	147	
13	0	0	0	0	467	147	
14	0	0	0	0	468	147	
15	0	0	0	0	470	148	
0	0	0	0	0	471	147	
1	0	0	0	0	473	147	
2	0	0	0	0	474	147	
3	0	0	0	0	473	147	
4	0	0	0	0	473	147	
5	0	0	0	0	473	147	
6	0	0	0	0	473	147	
7	0	0	0	0	474	147	
8	0	0	0	0	473	147	
9	0	0	0	0	473	147	
10	0	0	0	0	473	147	
11	0	0	0	0	472	147	
12	0	0	0	0	472	147	
13	0	0	0	0	470	147	
14	0	0	0	0	469	147	
15	0	0	0	0	467	147	
0	0	0	0	0	467	147	
1	0	0	0	0	466	147	
2	0	0	0	0	465	147	
3	0	0	0	0	465	147	
4	0	0	0	0	466	147	
5	0	0	0	0	468	147	
6	0	0	0	0	471	147	
7	0	0	0	0	472	147	
8	0	0	0	0	474	147	
9	0	0	0	0	476	147	
10	0	0	0	0	478	147	
11	0	0	0	0	479	147	
12	0	0	0	0	480	147	
13	0	0	0	0	482	147	
14	0	0	0	0	482	147	
15	0	0	0	0	483	147	
0	0	0	0	0	483	147	
1	0	0	0	0	483	147	
2	0	0	0	0	483	147	
3	0	0	0	0	483	147	
4	0	0	0	0	483	147	
5	0	0	0	0	483	146	
6	0	0	0	0	482	147	
7	0	0	0	0	481	147	
8	0	0	0	0	482	147	
9	0	0	0	0	484	147	
10	0	0	0	0	487	147	
11	0	0	0	0	488	147	
12	0	0	0	0	490	147	
13	0	0	0	0	492	147	
14	0	0	0	0	492	147	
15	0	0	0	0	492	146	
0	0	0	0	0	491	147	
1	0	0	0	0	491	147	
2	0	0	0	0	490	147	
3	0	0	0	0	489	148	
4	0	0	0	0	489	146	
5	0	0	0	0	490	147	
6	0	0	0	0	490	147	
7	0	0	0	0	489	147	
8	0	0	0	0	490	147	
9	0	0	0	0	489	148	
10	0	0	0	0	488	147	
11	0	0	0	0	489	146	
12	0	0	0	0	490	146	
13	0	0	0	0	491	147	
14	0	0	0	0	491	147	
15	0	0	0	0	490	147	
0	0	0	0	0	489	147	
1	0	0	0	0	490	146	
2	0	0	0	0	491	147	
3	0	0	0	0	491	147	
4	0	0	0	0	493	147	
5	0	0	0	0	494	147	
6	0	0	0	0	495	147	
7	0	0	0	0	496	147	
8	0	0	0	0	497	146	
9	0	0	0	0	497	147	
10	0	0	0	0	497	147	
11	0	0	0	0	497	147	
12	0	0	0	0	497	147	
13	0	0	0	0	497	147	
14	0	0	0	0	497	147	
15	0	0	0	0	498	146	
0	0	0	0	0	497	147	
1	0	0	0	0	498	147	
2	0	0	0	0	498	147	
3	0	0	0	0	497	147	
4	0	0	0	0	497	146	
5	0	0	0	0	496	147	
6	0	0	0	0	497	147	
7	0	0	0	0	497	147	
8	0	0	0	0	498	147	
9	0	0	0	0	499	146	
10	0	0	0	0	500	147	
11	0	0	0	0	502	147	
12	0	0	0	0	503	147	
13	0	0	0	0	503	147	
14	0	0	0	0	504	146	
15	0	0	0	0	504	147	
0	0	0	0	0	501	147	
1	0	0	0	0	499	147	
2	0	0	0	0	499	147	
3	0	0	0	0	500	146	
4	0	0	0	0	499	147	
5	0	0	0	0	499	147	
6	0	0	0	0	499	147	
7	0	0	0	0	500	147	
8	0	0	0	0	502	146	
9	0	0	0	0	504	147	
10	0	0	0	0	506	147	
11	0	0	0	0	508	147	
12	0	0	0	0	509	147	
13	0	0	0	0	511	146	
14	0	0	0	0	511	146	
15	0	0	0	0	512	146	
0	0	0	0	0	512	146	
1	0	0	0	0	511	147	
2	0	0	0	0	510	147	
3	0	0	0	0	508	147	
4	0	0	0	0	508	147	
5	0	0	0	0	508	147	
6	0	0	0	0	508	146	
7	0	0	0	0	508	147	
8	0	0	0	0	508	147	
9	0	0	0	0	509	147	
10	0	0	0	0	510	147	
11	0	0	0	0	512	147	
12	0	0	0	0	514	147	
13	0	0	0	0	514	146	
14	0	0	0	0	515	147	
15	0	0	0	0	515	147	
0	0	0	0	0	516	147	
1	0	0	0	0	517	147	
2	0	0	0	0	518	147	
3	0	0	0	0	519	147	
4	0	0	0	0	519	146	
5	0	0	0	0	519	147	
6	0	0	0	0	519	147	
7	0	0	0	0	518	147	
8	0	0	0	0	519	147	
9	0	0	0	0	520	147	
10	0	0	0	0	519	147	
11	0	0	0	0	520	146	
12	0	0	0	0	520	146	
13	0	0	0	0	519	147	
14	0	0	0	0	519	147	
15	0	0	0	0	518	147	
0	0	0	0	0	518	148	
1	0	0	0	0	518	146	
2	0	0	0	0	519	146	
3	0	0	0	0	520	147	
4	0	0	0	0	520	147	
5	0	0	0	0	520	147	
6	0	0	0	0	519	147	
7	0	0	0	0	519	146	
8	0	0	0	0	519	146	
9	0	0	0	0	518	147	
10	0	0	0	0	518	147	
11	0	0	0	0	517	147	
12	0	0	0	0	518	147	
13	0	0	0	0	518	146	
14	0	0	0	0	519	146	
15	0	0	0	0	521	147	
0	0	0	0	0	521	147	
1	0	0	0	0	522	147	
2	0	0	0	0	524	147	
3	0	0	0	0	525	146	
4	0	0	0	0	526	146	
5	0	0	0	0	526	147	
6	0	0	0	0	527	147	
7	0	0	0	0	526	147	
8	0	0	0	0	524	147	
9	0	0	0	0	524	147	
10	0	0	0	0	522	146	
11	0	0	0	0	521	147	
12	0	0	0	0	520	147	
13	0	0	0	0	519	147	
14	0	0	0	0	519	147	
15	0	0	0	0	519	146	
0	0	0	0	0	520	147	
1	0	0	0	0	523	147	
2	0	0	0	0	526	147	
3	0	0	0	0	526	147	
4	0	0	0	0	525	146	
5	0	0	0	0	524	147	
6	0	0	0	0	523	147	
7	0	0	0	0	522	147	
8	0	0	0	0	522	147	
9	0	0	0	0	522	146	
10	0	0	0	0	523	146	
11	0	0	0	0	524	147	
12	0	0	0	0	524	147	
13	0	0	0	0	524	147	
14	0	0	0	0	527	147	
15	0	0	0	0	528	147	
0	0	0	0	0	530	147	
1	0	0	0	0	532	146	
2	0	0	0	0	536	146	
3	0	0	0	0	538	147	
4	0	0	0	0	539	147	
5	0	0	0	0	537	147	
6	0	0	0	0	536	147	
7	0	0	0	0	536	146	
8	0	0	0	0	536	147	
9	0	0	0	0	536	147	
10	0	0	0	0	536	147	
11	0	0	0	0	534	147	
12	0	0	0	0	532	146	
13	0	0	0	0	531	146	
14	0	0	0	0	531	147	
15	0	0	0	0	531	147	
0	0	0	0	0	530	147	
1	0	0	0	0	529	146	
2	0	0	0	0	529	146	
3	0	0	0	0	530	147	
4	0	0	0	0	531	147	
5	0	0	0	0	534	147	
6	0	0	0	0	537	147	
7	0	0	0	0	540	146	
8	0	0	0	0	542	146	
9	0	0	0	0	545	146	
10	0	0	0	0	546	146	
11	0	0	0	0	545	147	
12	0	0	0	0	546	147	
13	0	0	0	0	546	147	
14	0	0	0	0	545	147	
15	0	0	0	0	545	146	
0	0	0	0	0	545	146	
1	0	0	0	0	545	147	
2	0	0	0	0	545	147	
3	0	0	0	0	544	147	
4	0	0	0	0	544	147	
5	0	0	0	0	542	146	
6	0	0	0	0	539	146	
7	0	0	0	0	537	147	
8	0	0	0	0	535	147	
9	0	0	0	0	534	147	
10	0	0	0	0	534	147	
11	0	0	0	0	532	146	
12	0	0	0	0	532	147	
13	0	0	0	0	534	147	
14	0	0	0	0	536	147	
15	0	0	0	0	539	147	
0	0	0	0	0	540	147	
1	0	0	0	0	539	146	
2	0	0	0	0	539	146	
3	0	0	0	0	539	147	
4	0	0	0	0	539	147	
5	0	0	0	0	539	147	
6	0	0	0	0	539	146	
7	0	0	0	0	537	146	
8	0	0	0	0	535	147	
9	0	0	0	0	535	147	
10	0	0	0	0	535	147	
11	0	0	0	0	533	147	
12	0	0	0	0	531	146	
13	0	0	0	0	527	147	
14	0	0	0	0	525	147	
15	0	0	0	0	524	147	
0	0	0	0	0	524	147	
1	0	0	0	0	523	147	
2	0	0	0	0	524	146	
3	0	0	0	0	524	147	
4	0	0	0	0	524	147	
5	0	0	0	0	523	147	
6	0	0	0	0	524	147	
7	0	0	0	0	523	147	
8	0	0	0	0	524	146	
9	0	0	0	0	523	146	
10	0	0	0	0	524	147	
11	0	0	0	0	523	147	
12	0	0	0	0	522	147	
13	0	0	0	0	521	147	
14	0	0	0	0	519	146	
15	0	0	0	0	518	146	
0	0	0	0	0	516	147	
1	0	0	0	0	513	147	
2	0	0	0	0	510	147	
3	0	0	0	0	506	147	
4	0	0	0	0	502	146	
5	0	0	0	0	499	147	
6	0	0	0	0	495	147	
7	0	0	0	0	493	147	
8	0	0	0	0	489	147	
9	0	0	0	0	487	147	
10	0	0	0	0	487	146	
11	0	0	0	0	486	147	
12	0	0	0	0	485	147	
13	0	0	0	0	484	147	
14	0	0	0	0	482	147	
15	0	0	0	0	484	147	
0	0	0	0	0	487	147	
1	0	0	0	0	489	147	
2	0	0	0	0	490	147	
3	0	0	0	0	489	147	
4	0	0	0	0	488	147	
5	0	0	0	0	486	147	
6	0	0	0	0	485	147	
7	0	0	0	0	484	146	
8	0	0	0	0	483	147	
9	0	0	0	0	481	147	
10	0	0	0	0	481	147	
11	0	0	0	0	483	147	
12	0	0	0	0	486	146	
13	0	0	0	0	487	147	
14	0	0	0	0	486	147	
15	0	0	0	0	483	147	
0	0	0	0	0	481	147	
1	0	0	0	0	479	147	
2	0	0	0	0	478	147	
3	0	0	0	0	477	147	
4	0	0	0	0	476	147	
5	0	0	0	0	475	147	
6	0	0	0	0	473	147	
7	0	0	0	0	473	147	
8	0	0	0	0	472	146	
9	0	0	0	0	471	147	
10	0	0	0	0	471	147	
11	0	0	0	0	470	147	
12	0	0	0	0	469	148	
13	0	0	0	0	470	147	
14	0	0	0	0	471	147	
15	0	0	0	0	472	147	
0	0	0	0	0	472	147	
1	0	0	0	0	473	147	
2	0	0	0	0	475	147	
3	0	0	0	0	476	147	
4	0	0	0	0	477	147	
5	0	0	0	0	476	147	
6	0	0	0	0	475	147	
7	0	0	0	0	474	147	
8	0	0	0	0	473	148	
9	0	0	0	0	472	147	
10	0	0	0	0	470	147	
11	0	0	0	0	468	147	
12	0	0	0	0	467	147	
13	0	0	0	0	467	147	
14	0	0	0	0	468	148	
15	0	0	0	0	470	147	
0	0	0	0	0	471	147	
1	0	0	0	0	473	147	
2	0	0	0	0	474	147	
3	0	0	0	0	475	147	
4	0	0	0	0	475	147	
5	0	0	0	0	475	147	
6	0	0	0	0	475	147	
7	0	0	0	0	475	147	
8	0	0	0	0	474	147	
9	0	0	0	0	473	147	
10	0	0	0	0	472	147	
11	0	0	0	0	471	147	
12	0	0	0	0	471	147	
13	0	0	0	0	470	147	
14	0	0	0	0	470	147	
15	0	0	0	0	470	147	
0	0	0	0	0	471	147	
1	0	0	0	0	473	147	
2	0	0	0	0	474	147	
3	0	0	0	0	474	147	
4	0	0	0	0	474	147	
5	0	0	0	0	475	147	
6	0	0	0	0	475	147	
7	0	0	0	0	474	147	
8	0	0	0	0	473	147	
9	0	0	0	0	473	147	
10	0	0	0	0	473	147	
11	0	0	0	0	475	147	
12	0	0	0	0	476	147	
13	0	0	0	0	478	146	
14	0	0	0	0	482	147	
15	0	0	0	0	484	147	
0	0	0	0	0	485	147	
1	0	0	0	0	486	148	
2	0	0	0	0	485	147	
3	0	0	0	0	485	147	
4	0	0	0	0	484	147	
5	0	0	0	0	483	147	
6	0	0	0	0	481	147	
7	0	0	0	0	480	147	
8	0	0	0	0	480	147	
9	0	0	0	0	479	147	
10	0	0	0	0	480	147	
11	0	0	0	0	480	147	
12	0	0	0	0	480	147	
13	0	0	0	0	481	147	
14	0	0	0	0	485	147	
15	0	0	0	0	488	147	
0	0	0	0	0	491	147	
1	0	0	0	0	492	146	
2	0	0	0	0	494	147	
3	0	0	0	0	495	147	
4	0	0	0	0	495	147	
5	0	0	0	0	494	147	
6	0	0	0	0	492	146	
7	0	0	0	0	490	147	
8	0	0	0	0	489	147	
9	0	0	0	0	488	147	
10	0	0	0	0	488	148	
11	0	0	0	0	487	147	
12	0	0	0	0	486	147	
13	0	0	0	0	485	147	
14	0	0	0	0	485	147	
15	0	0	0	0	486	148	
0	0	0	0	0	486	147	
1	0	0	0	0	487	147	
2	0	0	0	0	489	147	
3	0	0	0	0	488	147	
4	0	0	0	0	488	147	
5	0	0	0	0	488	148	
6	0	0	0	0	488	146	
7	0	0	0	0	488	147	
8	0	0	0	0	487	147	
9	0	0	0	0	487	147	
10	0	0	0	0	488	147	
11	0	0	0	0	489	146	
12	0	0	0	0	490	147	
13	0	0	0	0	491	147	
14	0	0	0	0	491	148	
15	0	0	0	0	492	147	
0	0	0	0	0	494	146	
1	0	0	0	0	494	147	
2	0	0	0	0	494	147	
3	0	0	0	0	494	147	
4	0	0	0	0	494	147	
5	0	0	0	0	493	147	
6	0	0	0	0	491	147	
7	0	0	0	0	489	147	
8	0	0	0	0	489	147	
9	0	0	0	0	489	146	
10	0	0	0	0	489	147	
11	0	0	0	0	490	147	
12	0	0	0	0	489	147	
13	0	0	0	0	489	148	
14	0	0	0	0	491	146	
15	0	0	0	0	493	147	
0	0	0	0	0	494	147	
1	0	0	0	0	494	147	
2	0	0	0	0	493	147	
3	0	0	0	0	492	147	
4	0	0	0	0	492	147	
5	0	0	0	0	492	147	
6	0	0	0	0	492	146	
7	0	0	0	0	493	147	
8	0	0	0	0	493	147	
9	0	0	0	0	493	147	
10	0	0	0	0	493	147	
11	0	0	0	0	492	148	
12	0	0	0	0	492	147	
13	0	0	0	0	492	146	
14	0	0	0	0	492	147	
15	0	0	0	0	491	147	
0	0	0	0	0	489	147	
1	0	0	0	0	489	147	
2	0	0	0	0	488	147	
3	0	0	0	0	488	147	
4	0	0	0	0	488	147	
5	0	0	0	0	489	147	
6	0	0	0	0	491	147	
7	0	0	0	0	491	146	
8	0	0	0	0	490	147	
9	0	0	0	0	491	147	
10	0	0	0	0	490	147	
11	0	0	0	0	490	147	
12	0	0	0	0	490	147	
13	0	0	0	0	490	146	
14	0	0	0	0	489	147	
15	0	0	0	0	490	147	
0	0	0	0	0	491	147	
1	0	0	0	0	491	147	
2	0	0	0	0	492	147	
3	0	0	0	0	494	146	
4	0	0	0	0	496	147	
5	0	0	0	0	497	147	
6	0	0	0	0	499	147	
7	0	0	0	0	500	147	
8	0	0	0	0	501	146	
9	0	0	0	0	501	147	
10	0	0	0	0	502	147	
11	0	0	0	0	502	147	
12	0	0	0	0	501	148	
13	0	0	0	0	501	147	
14	0	0	0	0	501	146	
15	0	0	0	0	501	147	
0	0	0	0	0	500	147	
1	0	0	0	0	499	147	
2	0	0	0	0	499	147	
3	0	0	0	0	499	147	
4	0	0	0	0	499	146	
5	0	0	0	0	498	146	
6	0	0	0	0	499	147	
7	0	0	0	0	499	147	
8	0	0	0	0	498	147	
9	0	0	0	0	497	147	
10	0	0	0	0	497	146	
11	0	0	0	0	497	146	
12	0	0	0	0	497	147	
13	0	0	0	0	496	147	
14	0	0	0	0	496	147	
15	0	0	0	0	494	147	
0	0	0	0	0	494	147	
1	0	0	0	0	496	146	
2	0	0	0	0	496	147	
3	0	0	0	0	495	147	
4	0	0	0	0	495	147	
5	0	0	0	0	495	147	
6	0	0	0	0	495	146	
7	0	0	0	0	494	146	
8	0	0	0	0	494	147	
9	0	0	0	0	494	147	
10	0	0	0	0	493	147	
11	0	0	0	0	493	147	
12	0	0	0	0	493	147	
13	0	0	0	0	492	146	
14	0	0	0	0	491	147	
15	0	0	0	0	489	147	
0	0	0	0	0	487	147	
1	0	0	0	0	487	147	
2	0	0	0	0	489	146	
3	0	0	0	0	491	147	
4	0	0	0	0	494	147	
5	0	0	0	0	497	147	
6	0	0	0	0	499	147	
7	0	0	0	0	504	146	
8	0	0	0	0	507	146	
9	0	0	0	0	511	147	
10	0	0	0	0	512	147	
11	0	0	0	0	512	147	
12	0	0	0	0	511	146	
13	0	0	0	0	508	146	
14	0	0	0	0	507	146	
15	0	0	0	0	506	147	
0	0	0	0	0	506	147	
1	0	0	0	0	505	147	
2	0	0	0	0	505	147	
3	0	0	0	0	505	147	
4	0	0	0	0	507	146	
5	0	0	0	0	507	146	
6	0	0	0	0	504	147	
7	0	0	0	0	502	147	
8	0	0	0	0	500	147	
9	0	0	0	0	500	147	
10	0	0	0	0	500	147	
11	0	0	0	0	501	146	
12	0	0	0	0	501	147	
13	0	0	0	0	500	147	
14	0	0	0	0	501	147	
15	0	0	0	0	503	147	
0	0	0	0	0	504	146	
1	0	0	0	0	507	146	
2	0	0	0	0	509	147	
3	0	0	0	0	510	147	
4	0	0	0	0	509	147	
5	0	0	0	0	508	147	
6	0	0	0	0	509	146	
7	0	0	0	0	508	146	
8	0	0	0	0	507	147	
9	0	0	0	0	506	147	
10	0	0	0	0	506	147	
11	0	0	0	0	505	147	
12	0	0	0	0	504	146	
13	0	0	0	0	504	147	
14	0	0	0	0	502	147	
15	0	0	0	0	502	147	
0	0	0	0	0	501	147	
1	0	0	0	0	500	147	
2	0	0	0	0	500	146	
3	0	0	0	0	499	146	
4	0	0	0	0	499	147	
5	0	0	0	0	499	147	
6	0	0	0	0	499	147	
7	0	0	0	0	499	146	
8	0	0	0	0	498	146	
9	0	0	0	0	496	147	
10	0	0	0	0	494	147	
11	0	0	0	0	493	147	
12	0	0	0	0	492	147	
13	0	0	0	0	492	146	
14	0	0	0	0	492	146	
15	0	0	0	0	492	147	
0	0	0	0	0	495	147	
1	0	0	0	0	497	147	
2	0	0	0	0	499	147	
3	0	0	0	0	501	147	
4	0	0	0	0	504	146	
5	0	0	0	0	506	146	
6	0	0	0	0	507	146	
7	0	0	0	0	508	147	
8	0	0	0	0	508	147	
9	0	0	0	0	509	147	
10	0	0	0	0	511	147	
11	0	0	0	0	512	147	
12	0	0	0	0	512	147	
13	0	0	0	0	511	146	
14	0	0	0	0	510	146	
15	0	0	0	0	509	147	
0	0	0	0	0	508	147	
1	0	0	0	0	507	147	
2	0	0	0	0	507	147	
3	0	0	0	0	504	147	
4	0	0	0	0	503	147	
5	0	0	0	0	500	147	
6	0	0	0	0	499	147	
7	0	0	0	0	498	146	
8	0	0	0	0	496	146	
9	0	0	0	0	496	147	
10	0	0	0	0	497	147	
11	0	0	0	0	498	147	
12	0	0	0	0	500	147	
13	0	0	0	0	503	147	
14	0	0	0	0	504	147	
15	0	0	0	0	505	147	
0	0	0	0	0	505	147	
1	0	0	0	0	508	147	
2	0	0	0	0	511	147	
3	0	0	0	0	512	146	
4	0	0	0	0	513	146	
5	0	0	0	0	513	146	
6	0	0	0	0	515	146	
7	0	0	0	0	515	146	
8	0	0	0	0	516	147	
9	0	0	0	0	517	147	
10	0	0	0	0	517	147	
11	0	0	0	0	519	147	
12	0	0	0	0	519	146	
13	0	0	0	0	519	146	
14	0	0	0	0	517	147	
15	0	0	0	0	515	147	
0	0	0	0	0	514	147	
1	0	0	0	0	512	147	
2	0	0	0	0	512	147	
3	0	0	0	0	512	146	
4	0	0	0	0	511	146	
5	0	0	0	0	512	147	
6	0	0	0	0	512	147	
7	0	0	0	0	513	147	
8	0	0	0	0	513	147	
9	0	0	0	0	514	147	
10	0	0	0	0	514	146	
11	0	0	0	0	513	146	
12	0	0	0	0	512	146	
13	0	0	0	0	512	147	
14	0	0	0	0	512	147	
15	0	0	0	0	511	147	
0	0	0	0	0	511	147	
1	0	0	0	0	510	146	
2	0	0	0	0	509	147	
3	0	0	0	0	508	147	
4	0	0	0	0	508	147	
5	0	0	0	0	507	147	
6	0	0	0	0	507	146	
7	0	0	0	0	506	146	
8	0	0	0	0	505	147	
9	0	0	0	0	505	147	
10	0	0	0	0	505	147	
11	0	0	0	0	507	146	
12	0	0	0	0	508	146	
13	0	0	0	0	509	147	
14	0	0	0	0	510	147	
15	0	0	0	0	512	147	
0	0	0	0	0	512	147	
1	0	0	0	0	512	147	
2	0	0	0	0	512	147	
3	0	0	0	0	511	146	
4	0	0	0	0	511	146	
5	0	0	0	0	511	147	
6	0	0	0	0	511	147	
7	0	0	0	0	512	147	
8	0	0	0	0	515	147	
9	0	0	0	0	517	146	
10	0	0	0	0	518	147	
11	0	0	0	0	518	147	
12	0	0	0	0	518	147	
13	0	0	0	0	515	147	
14	0	0	0	0	513	146	
15	0	0	0	0	512	146	
0	0	0	0	0	510	147	
1	0	0	0	0	508	147	
2	0	0	0	0	507	147	
3	0	0	0	0	506	147	
4	0	0	0	0	505	147	
5	0	0	0	0	506	147	
6	0	0	0	0	509	146	
7	0	0	0	0	511	146	
8	0	0	0	0	513	147	
9	0	0	0	0	515	147	
10	0	0	0	0	514	147	
11	0	0	0	0	515	147	
12	0	0	0	0	515	147	
13	0	0	0	0	514	146	
14	0	0	0	0	512	146	
15	0	0	0	0	512	147	
0	0	0	0	0	512	147	
1	0	0	0	0	513	147	
2	0	0	0	0	513	147	
3	0	0	0	0	513	147	
4	0	0	0	0	517	146	
5	0	0	0	0	520	146	
6	0	0	0	0	523	147	
7	0	0	0	0	525	147	
8	0	0	0	0	525	147	
9	0	0	0	0	522	147	
10	0	0	0	0	520	146	
11	0	0	0	0	518	146	
12	0	0	0	0	517	147	
13	0	0	0	0	515	147	
14	0	0	0	0	515	147	
15	0	0	0	0	515	146	
0	0	0	0	0	516	146	
1	0	0	0	0	515	147	
2	0	0	0	0	515	147	
3	0	0	0	0	514	147	
4	0	0	0	0	513	147	
5	0	0	0	0	512	147	
6	0	0	0	0	512	146	
7	0	0	0	0	511	147	
8	0	0	0	0	511	147	
9	0	0	0	0	511	147	
10	0	0	0	0	510	147	
11	0	0	0	0	510	146	
12	0	0	0	0	509	146	
13	0	0	0	0	507	147	
14	0	0	0	0	506	147	
15	0	0	0	0	506	147	
0	0	0	0	0	505	147	
1	0	0	0	0	505	146	
2	0	0	0	0	506	146	
3	0	0	0	0	506	147	
4	0	0	0	0	507	147	
5	0	0	0	0	508	147	
6	0	0	0	0	511	147	
7	0	0	0	0	514	146	
8	0	0	0	0	515	146	
9	0	0	0	0	515	147	
10	0	0	0	0	516	147	
11	0	0	0	0	516	147	
12	0	0	0	0	517	147	
13	0	0	0	0	517	147	
14	0	0	0	0	518	147	
15	0	0	0	0	517	146	
0	0	0	0	0	517	146	
1	0	0	0	0	518	147	
2	0	0	0	0	519	147	
3	0	0	0	0	518	147	
4	0	0	0	0	518	147	
5	0	0	0	0	518	146	
6	0	0	0	0	516	146	
7	0	0	0	0	514	147	
8	0	0	0	0	513	147	
9	0	0	0	0	512	147	
10	0	0	0	0	510	147	
11	0	0	0	0	508	146	
12	0	0	0	0	506	146	
13	0	0	0	0	505	147	
14	0	0	0	0	503	147	
15	0	0	0	0	503	147	
0	0	0	0	0	502	147	
1	0	0	0	0	502	146	
2	0	0	0	0	502	146	
3	0	0	0	0	503	147	
4	0	0	0	0	505	147	
5	0	0	0	0	507	147	
6	0	0	0	0	509	147	
7	0	0	0	0	510	146	
8	0	0	0	0	511	146	
9	0	0	0	0	511	147	
10	0	0	0	0	512	147	
11	0	0	0	0	511	147	
12	0	0	0	0	509	147	
13	0	0	0	0	508	147	
14	0	0	0	0	507	147	
15	0	0	0	0	505	146	
0	0	0	0	0	504	146	
1	0	0	0	0	501	147	
2	0	0	0	0	499	147	
3	0	0	0	0	499	147	
4	0	0	0	0	498	147	
5	0	0	0	0	499	147	
6	0	0	0	0	501	146	
7	0	0	0	0	502	146	
8	0	0	0	0	502	147	
9	0	0	0	0	503	147	
10	0	0	0	0	504	147	
11	0	0	0	0	504	147	
12	0	0	0	0	507	146	
13	0	0	0	0	510	146	
14	0	0	0	0	511	147	
15	0	0	0	0	511	147	
0	0	0	0	0	512	147	
1	0	0	0	0	512	147	
2	0	0	0	0	514	146	
3	0	0	0	0	513	146	
4	0	0	0	0	512	147	
5	0	0	0	0	512	147	
6	0	0	0	0	512	147	
7	0	0	0	0	512	146	
8	0	0	0	0	511	146	
9	0	0	0	0	509	147	
10	0	0	0	0	508	147	
11	0	0	0	0	507	147	
12	0	0	0	0	505	147	
13	0	0	0	0	505	146	
14	0	0	0	0	507	146	
15	0	0	0	0	509	147	
0	0	0	0	0	510	147	
1	0	0	0	0	511	147	
2	0	0	0	0	513	147	
3	0	0	0	0	512	146	
4	0	0	0	0	513	147	
5	0	0	0	0	513	147	
6	0	0	0	0	512	147	
7	0	0	0	0	512	147	
8	0	0	0	0	513	146	
9	0	0	0	0	513	147	
10	0	0	0	0	514	147	
11	0	0	0	0	513	147	
12	0	0	0	0	512	147	
13	0	0	0	0	510	147	
14	0	0	0	0	509	146	
15	0	0	0	0	508	146	
0	0	0	0	0	507	147	
1	0	0	0	0	507	147	
2	0	0	0	0	507	147	
3	0	0	0	0	508	146	
4	0	0	0	0	508	146	
5	0	0	0	0	510	147	
6	0	0	0	0	512	147	
7	0	0	0	0	513	147	
8	0	0	0	0	513	146	
9	0	0	0	0	514	146	
10	0	0	0	0	513	147	
11	0	0	0	0	513	147	
12	0	0	0	0	513	147	
13	0	0	0	0	512	146	
14	0	0	0	0	511	147	
15	0	0	0	0	511	147	
0	0	0	0	0	510	147	
1	0	0	0	0	510	146	
2	0	0	0	0	510	146	
3	0	0	0	0	510	147	
4	0	0	0	0	509	147	
5	0	0	0	0	509	147	
6	0	0	0	0	509	147	
7	0	0	0	0	509	147	
8	0	0	0	0	509	146	
9	0	0	0	0	508	146	
10	0	0	0	0	507	147	
11	0	0	0	0	506	147	
12	0	0	0	0	506	147	
13	0	0	0	0	507	146	
14	0	0	0	0	507	146	
15	0	0	0	0	507	147	
0	0	0	0	0	508	147	
1	0	0	0	0	510	147	
2	0	0	0	0	511	146	
3	0	0	0	0	510	146	
4	0	0	0	0	510	147	
5	0	0	0	0	510	147	
6	0	0	0	0	509	147	
7	0	0	0	0	508	146	
8	0	0	0	0	508	147	
9	0	0	0	0	507	147	
10	0	0	0	0	508	147	
11	0	0	0	0	509	147	
12	0	0	0	0	509	146	
13	0	0	0	0	509	146	
14	0	0	0	0	510	147	
15	0	0	0	0	510	147	
0	0	0	0	0	509	147	
1	0	0	0	0	507	146	
2	0	0	0	0	507	147	
3	0	0	0	0	505	147	
4	0	0	0	0	503	147	
5	0	0	0	0	503	147	
6	0	0	0	0	501	146	
7	0	0	0	0	500	147	
8	0	0	0	0	498	147	
9	0	0	0	0	496	147	
10	0	0	0	0	496	146	
11	0	0	0	0	497	147	
12	0	0	0	0	499	147	
13	0	0	0	0	500	147	
14	0	0	0	0	502	146	
15	0	0	0	0	504	147	
0	0	0	0	0	507	147	
1	0	0	0	0	512	147	
2	0	0	0	0	513	146	
3	0	0	0	0	514	146	
4	0	0	0	0	514	147	
5	0	0	0	0	514	147	
6	0	0	0	0	513	147	
7	0	0	0	0	512	146	
8	0	0	0	0	510	146	
9	0	0	0	0	510	146	
10	0	0	0	0	508	147	
11	0	0	0	0	506	147	
12	0	0	0	0	504	147	
13	0	0	0	0	504	146	
14	0	0	0	0	504	147	
15	0	0	0	0	503	147	
0	0	0	0	0	502	147	
1	0	0	0	0	500	146	
2	0	0	0	0	501	146	
3	0	0	0	0	504	147	
4	0	0	0	0	506	147	
5	0	0	0	0	506	147	
6	0	0	0	0	507	147	
7	0	0	0	0	509	147	
8	0	0	0	0	511	146	
9	0	0	0	0	512	146	
10	0	0	0	0	512	147	
11	0	0	0	0	511	147	
12	0	0	0	0	510	147	
13	0	0	0	0	509	146	
14	0	0	0	0	510	147	
15	0	0	0	0	512	147	
0	0	0	0	0	513	147	
1	0	0	0	0	515	147	
2	0	0	0	0	516	146	
3	0	0	0	0	518	146	
4	0	0	0	0	518	146	
5	0	0	0	0	518	147	
6	0	0	0	0	517	147	
7	0	0	0	0	517	147	
8	0	0	0	0	517	146	
9	0	0	0	0	517	146	
10	0	0	0	0	516	147	
11	0	0	0	0	514	147	
12	0	0	0	0	512	147	
13	0	0	0	0	512	146	
14	0	0	0	0	512	147	
15	0	0	0	0	512	147	
0	0	0	0	0	512	147	
1	0	0	0	0	512	147	
2	0	0	0	0	512	146	
3	0	0	0	0	511	147	
4	0	0	0	0	511	147	
5	0	0	0	0	510	147	
6	0	0	0	0	509	147	
7	0	0	0	0	508	147	
8	0	0	0	0	508	146	
9	0	0	0	0	509	147	
10	0	0	0	0	510	147	
11	0	0	0	0	509	147	
12	0	0	0	0	508	147	
13	0	0	0	0	508	146	
14	0	0	0	0	509	147	
15	0	0	0	0	510	147	
0	0	0	0	0	510	147	
1	0	0	0	0	509	147	
2	0	0	0	0	508	146	
3	0	0	0	0	508	146	
4	0	0	0	0	508	147	
5	0	0	0	0	509	147	
6	0	0	0	0	509	147	
7	0	0	0	0	510	147	
8	0	0	0	0	512	146	
9	0	0	0	0	514	146	
10	0	0	0	0	517	147	
11	0	0	0	0	517	147	
12	0	0	0	0	515	147	
13	0	0	0	0	513	147	
14	0	0	0	0	512	147	
15	0	0	0	0	511	146	
0	0	0	0	0	510	146	
1	0	0	0	0	509	146	
2	0	0	0	0	510	147	
3	0	0	0	0	510	147	
4	0	0	0	0	510	147	
5	0	0	0	0	510	147	
6	0	0	0	0	509	147	
7	0	0	0	0	509	146	
8	0	0	0	0	509	146	
9	0	0	0	0	510	147	
10	0	0	0	0	510	147	
11	0	0	0	0	511	147	
12	0	0	0	0	511	147	
13	0	0	0	0	510	147	
14	0	0	0	0	510	146	
15	0	0	0	0	508	146	
0	0	0	0	0	506	147	
1	0	0	0	0	504	147	
2	0	0	0	0	503	147	
3	0	0	0	0	503	147	
4	0	0	0	0	504	147	
5	0	0	0	0	505	147	
6	0	0	0	0	505	146	
7	0	0	0	0	507	146	
8	0	0	0	0	509	147	
9	0	0	0	0	512	147	
10	0	0	0	0	513	147	
11	0	0	0	0	514	146	
12	0	0	0	0	515	146	
13	0	0	0	0	515	147	
14	0	0	0	0	515	147	
15	0	0	0	0	515	147	
0	0	0	0	0	514	146	
1	0	0	0	0	515	146	
2	0	0	0	0	518	147	
3	0	0	0	0	519	147	
4	0	0	0	0	520	147	
5	0	0	0	0	521	146	
6	0	0	0	0	521	146	
7	0	0	0	0	521	147	
8	0	0	0	0	521	147	
9	0	0	0	0	521	147	
10	0	0	0	0	521	147	
11	0	0	0	0	521	146	
12	0	0	0	0	521	146	
13	0	0	0	0	520	147	
14	0	0	0	0	519	147	
15	0	0	0	0	517	147	
0	0	0	0	0	516	146	
1	0	0	0	0	518	147	
2	0	0	0	0	519	147	
3	0	0	0	0	522	147	
4	0	0	0	0	523	147	
5	0	0	0	0	522	146	
6	0	0	0	0	522	147	
7	0	0	0	0	522	147	
8	0	0	0	0	523	147	
9	0	0	0	0	524	146	
10	0	0	0	0	523	146	
11	0	0	0	0	522	147	
12	0	0	0	0	521	147	
13	0	0	0	0	520	147	
14	0	0	0	0	519	147	
15	0	0	0	0	518	146	
0	0	0	0	0	517	147	
1	0	0	0	0	516	147	
2	0	0	0	0	515	147	
3	0	0	0	0	513	147	
4	0	0	0	0	512	146	
5	0	0	0	0	511	147	
6	0	0	0	0	509	147	
7	0	0	0	0	507	147	
8	0	0	0	0	507	147	
9	0	0	0	0	507	146	
10	0	0	0	0	509	147	
11	0	0	0	0	509	147	
12	0	0	0	0	510	147	
13	0	0	0	0	511	147	
14	0	0	0	0	514	147	
15	0	0	0	0	516	146	
0	0	0	0	0	518	146	
1	0	0	0	0	519	147	
2	0	0	0	0	519	147	
3	0	0	0	0	518	147	
4	0	0	0	0	518	147	
5	0	0	0	0	518	146	
6	0	0	0	0	518	146	
7	0	0	0	0	518	147	
8	0	0	0	0	517	147	
9	0	0	0	0	518	147	
10	0	0	0	0	519	147	
11	0	0	0	0	520	146	
12	0	0	0	0	521	147	
13	0	0	0	0	521	147	
14	0	0	0	0	520	147	
15	0	0	0	0	520	147	
0	0	0	0	0	519	146	
1	0	0	0	0	519	147	
2	0	0	0	0	519	147	
3	0	0	0	0	519	147	
4	0	0	0	0	521	147	
5	0	0	0	0	522	147	
6	0	0	0	0	522	146	
7	0	0	0	0	522	146	
8	0	0	0	0	522	147	
9	0	0	0	0	523	147	
10	0	0	0	0	524	147	
11	0	0	0	0	525	147	
12	0	0	0	0	524	146	
13	0	0	0	0	524	147	
14	0	0	0	0	523	147	
15	0	0	0	0	522	147	
0	0	0	0	0	522	147	
1	0	0	0	0	522	146	
2	0	0	0	0	523	147	
3	0	0	0	0	525	147	
4	0	0	0	0	527	147	
5	0	0	0	0	529	147	
6	0	0	0	0	530	146	
7	0	0	0	0	533	146	
8	0	0	0	0	536	147	
9	0	0	0	0	539	147	
10	0	0	0	0	540	147	
11	0	0	0	0	541	147	
12	0	0	0	0	541	146	
13	0	0	0	0	541	147	
14	0	0	0	0	540	147	
15	0	0	0	0	539	147	
0	0	0	0	0	537	147	
1	0	0	0	0	536	146	
2	0	0	0	0	534	146	
3	0	0	0	0	532	147	
4	0	0	0	0	531	147	
5	0	0	0	0	528	147	
6	0	0	0	0	526	147	
7	0	0	0	0	523	146	
8	0	0	0	0	520	147	
9	0	0	0	0	518	147	
10	0	0	0	0	516	147	
11	0	0	0	0	514	147	
12	0	0	0	0	513	147	
13	0	0	0	0	512	146	
14	0	0	0	0	512	146	
15	0	0	0	0	513	147	
0	0	0	0	0	515	147	
1	0	0	0	0	517	147	
2	0	0	0	0	518	147	
3	0	0	0	0	519	146	
4	0	0	0	0	522	146	
5	0	0	0	0	523	147	
6	0	0	0	0	523	147	
7	0	0	0	0	522	147	
8	0	0	0	0	520	147	
9	0	0	0	0	519	147	
10	0	0	0	0	518	146	
11	0	0	0	0	515	147	
12	0	0	0	0	513	147	
13	0	0	0	0	511	147	
14	0	0	0	0	510	147	
15	0	0	0	0	509	147	
0	0	0	0	0	508	147	
1	0	0	0	0	508	147	
2	0	0	0	0	507	147	
3	0	0	0	0	507	146	
4	0	0	0	0	505	147	
5	0	0	0	0	504	147	
6	0	0	0	0	504	147	
7	0	0	0	0	504	147	
8	0	0	0	0	503	147	
9	0	0	0	0	502	146	
10	0	0	0	0	502	146	
11	0	0	0	0	501	147	
12	0	0	0	0	500	147	
13	0	0	0	0	499	147	
14	0	0	0	0	499	147	
15	0	0	0	0	498	146	
0	0	0	0	0	499	147	
1	0	0	0	0	500	147	
2	0	0	0	0	502	147	
3	0	0	0	0	504	146	
4	0	0	0	0	503	146	
5	0	0	0	0	504	147	
6	0	0	0	0	505	147	
7	0	0	0	0	508	147	
8	0	0	0	0	510	147	
9	0	0	0	0	510	146	
10	0	0	0	0	510	147	
11	0	0	0	0	508	147	
12	0	0	0	0	508	147	
13	0	0	0	0	507	147	
14	0	0	0	0	506	147	
15	0	0	0	0	506	146	
0	0	0	0	0	505	146	
1	0	0	0	0	504	147	
2	0	0	0	0	505	147	
3	0	0	0	0	505	147	
4	0	0	0	0	505	147	
5	0	0	0	0	504	146	
6	0	0	0	0	506	147	
7	0	0	0	0	508	147	
8	0	0	0	0	508	147	
9	0	0	0	0	507	148	
10	0	0	0	0	505	147	
11	0	0	0	0	505	146	
12	0	0	0	0	504	147	
13	0	0	0	0	503	147	
14	0	0	0	0	504	147	
15	0	0	0	0	505	147	
0	0	0	0	0	505	147	
1	0	0	0	0	505	146	
2	0	0	0	0	504	146	
3	0	0	0	0	503	147	
4	0	0	0	0	500	147	
5	0	0	0	0	499	147	
6	0	0	0	0	497	147	
7	0	0	0	0	496	147	
8	0	0	0	0	495	146	
9	0	0	0	0	495	147	
10	0	0	0	0	496	147	
11	0	0	0	0	497	147	
12	0	0	0	0	497	147	
13	0	0	0	0	499	147	
14	0	0	0	0	500	146	
15	0	0	0	0	502	147	
0	0	0	0	0	506	147	
1	0	0	0	0	511	147	
2	0	0	0	0	519	146	
3	0	0	0	0	529	146	
4	0	0	0	0	540	147	
5	0	0	0	0	552	147	
6	0	0	0	0	566	147	
7	0	0	0	0	581	146	
8	0	0	0	0	595	146	
9	0	0	0	0	609	147	
10	0	0	0	0	624	147	
11	0	0	0	0	638	147	
12	0	0	0	0	648	146	
13	0	0	0	0	658	145	
14	0	0	0	0	665	145	
15	0	0	0	0	670	146	
0	0	0	0	0	675	147	
1	0	0	0	0	678	147	
2	0	0	0	0	679	147	
3	0	0	0	0	681	146	
4	0	0	0	0	681	145	
5	0	0	0	0	681	145	
6	0	0	0	0	682	147	
7	0	0	0	0	682	147	
8	0	0	0	0	679	147	
9	0	0	0	0	674	146	
10	0	0	0	0	666	145	
11	0	0	0	0	657	145	
12	0	0	0	0	648	147	
13	0	0	0	0	639	147	
14	0	0	0	0	630	147	
15	0	0	0	0	623	145	
0	0	0	0	0	614	146	
1	0	0	0	0	603	146	
2	0	0	0	0	593	147	
3	0	0	0	0	584	147	
4	0	0	0	0	572	147	
5	0	0	0	0	559	146	
6	0	0	0	0	546	146	
7	0	0	0	0	531	147	
8	0	0	0	0	515	147	
9	0	0	0	0	502	147	
10	0	0	0	0	491	147	
11	0	0	0	0	480	146	
12	0	0	0	0	472	147	
13	0	0	0	0	465	147	
14	0	0	0	0	459	147	
15	0	0	0	0	454	148	
0	0	0	0	0	452	147	
1	0	0	0	0	451	147	
2	0	0	0	0	451	147	
3	0	0	0	0	453	147	
4	0	0	0	0	454	147	
5	0	0	0	0	455	147	
6	0	0	0	0	458	147	
7	0	0	0	0	461	147	
8	0	0	0	0	463	147	
9	0	0	0	0	464	147	
10	0	0	0	0	466	147	
11	0	0	0	0	467	147	
12	0	0	0	0	469	147	
13	0	0	0	0	469	147	
14	0	0	0	0	469	147	
15	0	0	0	0	470	147	
0	0	0	0	0	471	147	
1	0	0	0	0	472	147	
2	0	0	0	0	473	147	
3	0	0	0	0	475	146	
4	0	0	0	0	477	147	
5	0	0	0	0	478	147	
6	0	0	0	0	478	147	
7	0	0	0	0	478	147	
8	0	0	0	0	479	147	
9	0	0	0	0	480	148	
10	0	0	0	0	481	146	
11	0	0	0	0	483	146	
12	0	0	0	0	483	147	
13	0	0	0	0	483	147	
14	0	0	0	0	483	147	
15	0	0	0	0	482	147	
0	0	0	0	0	483	146	
1	0	0	0	0	484	147	
2	0	0	0	0	485	147	
3	0	0	0	0	486	147	
4	0	0	0	0	485	147	
5	0	0	0	0	485	147	
6	0	0	0	0	486	146	
7	0	0	0	0	484	147	
8	0	0	0	0	483	147	
9	0	0	0	0	483	147	
10	0	0	0	0	484	147	
11	0	0	0	0	486	147	
12	0	0	0	0	489	147	
13	0	0	0	0	492	147	
14	0	0	0	0	492	146	
15	0	0	0	0	492	146	
0	0	0	0	0	494	146	
1	0	0	0	0	495	146	
2	0	0	0	0	495	147	
3	0	0	0	0	495	147	
4	0	0	0	0	495	147	
5	0	0	0	0	494	146	
6	0	0	0	0	494	146	
7	0	0	0	0	492	146	
8	0	0	0	0	491	147	
9	0	0	0	0	492	147	
10	0	0	0	0	493	147	
11	0	0	0	0	493	147	
12	0	0	0	0	493	147	
13	0	0	0	0	494	146	
14	0	0	0	0	496	147	
15	0	0	0	0	499	147	
0	0	0	0	0	502	147	
1	0	0	0	0	504	147	
2	0	0	0	0	505	146	
3	0	0	0	0	506	146	
4	0	0	0	0	508	146	
5	0	0	0	0	509	147	
6	0	0	0	0	509	147	
7	0	0	0	0	509	147	
8	0	0	0	0	507	147	
9	0	0	0	0	505	146	
10	0	0	0	0	504	146	
11	0	0	0	0	504	147	
12	0	0	0	0	503	147	
13	0	0	0	0	504	147	
14	0	0	0	0	505	147	
15	0	0	0	0	506	146	
0	0	0	0	0	505	147	
1	0	0	0	0	505	147	
2	0	0	0	0	506	147	
3	0	0	0	0	505	147	
4	0	0	0	0	505	147	
5	0	0	0	0	508	146	
6	0	0	0	0	509	146	
7	0	0	0	0	510	147	
8	0	0	0	0	512	147	
9	0	0	0	0	512	147	
10	0	0	0	0	512	147	
11	0	0	0	0	512	146	
12	0	0	0	0	513	146	
13	0	0	0	0	513	146	
14	0	0	0	0	514	147	
15	0	0	0	0	513	147	
0	0	0	0	0	512	147	
1	0	0	0	0	512	147	
2	0	0	0	0	512	146	
3	0	0	0	0	513	146	
4	0	0	0	0	512	147	
5	0	0	0	0	511	147	
6	0	0	0	0	512	147	
7	0	0	0	0	512	146	
8	0	0	0	0	512	146	
9	0	0	0	0	512	146	
10	0	0	0	0	512	147	
11	0	0	0	0	511	147	
12	0	0	0	0	511	147	
13	0	0	0	0	510	146	
14	0	0	0	0	508	147	
15	0	0	0	0	505	147	
0	0	0	0	0	505	147	
1	0	0	0	0	506	147	
2	0	0	0	0	510	147	
3	0	0	0	0	512	146	
4	0	0	0	0	515	146	
5	0	0	0	0	518	147	
6	0	0	0	0	521	147	
7	0	0	0	0	525	147	
8	0	0	0	0	528	146	
9	0	0	0	0	531	146	
10	0	0	0	0	533	147	
11	0	0	0	0	534	147	
12	0	0	0	0	532	147	
13	0	0	0	0	530	147	
14	0	0	0	0	530	146	
15	0	0	0	0	531	146	
0	0	0	0	0	531	146	
1	0	0	0	0	531	147	
2	0	0	0	0	528	147	
3	0	0	0	0	527	147	
4	0	0	0	0	524	147	
5	0	0	0	0	523	147	
6	0	0	0	0	521	146	
7	0	0	0	0	520	146	
8	0	0	0	0	519	147	
9	0	0	0	0	519	147	
10	0	0	0	0	519	147	
11	0	0	0	0	520	146	
12	0	0	0	0	523	146	
13	0	0	0	0	527	146	
14	0	0	0	0	528	147	
15	0	0	0	0	530	147	
0	0	0	0	0	532	147	
1	0	0	0	0	534	147	
2	0	0	0	0	537	146	
3	0	0	0	0	538	146	
4	0	0	0	0	539	147	
5	0	0	0	0	540	147	
6	0	0	0	0	540	147	
7	0	0	0	0	540	146	
8	0	0	0	0	540	146	
9	0	0	0	0	540	147	
10	0	0	0	0	539	147	
11	0	0	0	0	539	147	
12	0	0	0	0	539	146	
13	0	0	0	0	539	146	
14	0	0	0	0	539	147	
15	0	0	0	0	539	147	
0	0	0	0	0	539	147	
1	0	0	0	0	538	147	
2	0	0	0	0	539	146	
3	0	0	0	0	538	146	
4	0	0	0	0	537	147	
5	0	0	0	0	537	147	
6	0	0	0	0	537	147	
7	0	0	0	0	536	146	
8	0	0	0	0	536	146	
9	0	0	0	0	536	146	
10	0	0	0	0	536	146	
11	0	0	0	0	536	147	
12	0	0	0	0	537	147	
13	0	0	0	0	536	147	
14	0	0	0	0	535	146	
15	0	0	0	0	534	146	
0	0	0	0	0	534	146	
1	0	0	0	0	535	147	
2	0	0	0	0	534	147	
3	0	0	0	0	532	147	
4	0	0	0	0	533	147	
5	0	0	0	0	533	147	
6	0	0	0	0	534	146	
7	0	0	0	0	534	146	
8	0	0	0	0	534	147	
9	0	0	0	0	534	147	
10	0	0	0	0	534	147	
11	0	0	0	0	535	147	
12	0	0	0	0	536	146	
13	0	0	0	0	536	146	
14	0	0	0	0	537	147	
15	0	0	0	0	539	147	
0	0	0	0	0	540	147	
1	0	0	0	0	542	146	
2	0	0	0	0	543	146	
3	0	0	0	0	545	147	
4	0	0	0	0	544	147	
5	0	0	0	0	543	147	
6	0	0	0	0	542	146	
7	0	0	0	0	543	146	
8	0	0	0	0	543	147	
9	0	0	0	0	543	147	
10	0	0	0	0	544	147	
11	0	0	0	0	545	146	
12	0	0	0	0	546	146	
13	0	0	0	0	547	147	
14	0	0	0	0	547	147	
15	0	0	0	0	547	147	
0	0	0	0	0	545	146	
1	0	0	0	0	546	146	
2	0	0	0	0	545	147	
3	0	0	0	0	545	147	
4	0	0	0	0	545	147	
5	0	0	0	0	545	147	
6	0	0	0	0	545	146	
7	0	0	0	0	545	146	
8	0	0	0	0	544	147	
9	0	0	0	0	543	147	
10	0	0	0	0	543	147	
11	0	0	0	0	543	147	
12	0	0	0	0	543	146	
13	0	0	0	0	543	146	
14	0	0	0	0	544	147	
15	0	0	0	0	544	147	
0	0	0	0	0	545	146	
1	0	0	0	0	545	146	
2	0	0	0	0	544	146	
3	0	0	0	0	543	147	
4	0	0	0	0	542	147	
5	0	0	0	0	539	147	
6	0	0	0	0	537	147	
7	0	0	0	0	537	146	
8	0	0	0	0	536	146	
9	0	0	0	0	537	147	
10	0	0	0	0	540	147	
11	0	0	0	0	545	147	
12	0	0	0	0	550	146	
13	0	0	0	0	551	146	
14	0	0	0	0	553	147	
15	0	0	0	0	556	147	
0	0	0	0	0	558	147	
1	0	0	0	0	560	147	
2	0	0	0	0	562	146	
3	0	0	0	0	564	146	
4	0	0	0	0	564	147	
5	0	0	0	0	563	147	
6	0	0	0	0	563	147	
7	0	0	0	0	562	147	
8	0	0	0	0	560	145	
9	0	0	0	0	559	146	
10	0	0	0	0	557	146	
11	0	0	0	0	556	147	
12	0	0	0	0	556	147	
13	0	0	0	0	557	147	
14	0	0	0	0	556	147	
15	0	0	0	0	555	145	
0	0	0	0	0	553	146	
1	0	0	0	0	554	147	
2	0	0	0	0	555	147	
3	0	0	0	0	554	147	
4	0	0	0	0	552	146	
5	0	0	0	0	551	146	
6	0	0	0	0	551	147	
7	0	0	0	0	550	147	
8	0	0	0	0	548	147	
9	0	0	0	0	547	146	
10	0	0	0	0	546	146	
11	0	0	0	0	544	147	
12	0	0	0	0	543	147	
13	0	0	0	0	542	147	
14	0	0	0	0	540	147	
15	0	0	0	0	537	146	
0	0	0	0	0	535	146	
1	0	0	0	0	534	147	
2	0	0	0	0	532	147	
3	0	0	0	0	531	147	
4	0	0	0	0	530	146	
5	0	0	0	0	529	146	
6	0	0	0	0	527	147	
7	0	0	0	0	525	147	
8	0	0	0	0	524	147	
9	0	0	0	0	521	147	
10	0	0	0	0	519	146	
11	0	0	0	0	517	147	
12	0	0	0	0	515	147	
13	0	0	0	0	513	147	
14	0	0	0	0	512	147	
15	0	0	0	0	512	146	
0	0	0	0	0	511	146	
1	0	0	0	0	511	147	
2	0	0	0	0	510	147	
3	0	0	0	0	509	147	
4	0	0	0	0	508	147	
5	0	0	0	0	506	146	
6	0	0	0	0	505	146	
7	0	0	0	0	504	147	
8	0	0	0	0	503	147	
9	0	0	0	0	500	147	
10	0	0	0	0	500	147	
11	0	0	0	0	498	147	
12	0	0	0	0	496	146	
13	0	0	0	0	493	146	
14	0	0	0	0	492	147	
15	0	0	0	0	490	147	
0	0	0	0	0	488	147	
1	0	0	0	0	486	147	
2	0	0	0	0	486	146	
3	0	0	0	0	486	147	
4	0	0	0	0	484	147	
5	0	0	0	0	484	147	
6	0	0	0	0	484	147	
7	0	0	0	0	484	146	
8	0	0	0	0	484	147	
9	0	0	0	0	483	147	
10	0	0	0	0	483	147	
11	0	0	0	0	481	147	
12	0	0	0	0	478	147	
13	0	0	0	0	477	146	
14	0	0	0	0	476	146	
15	0	0	0	0	475	147	
0	0	0	0	0	473	147	
1	0	0	0	0	472	147	
2	0	0	0	0	473	147	
3	0	0	0	0	472	147	
4	0	0	0	0	471	146	
5	0	0	0	0	471	146	
6	0	0	0	0	470	147	
7	0	0	0	0	467	147	
8	0	0	0	0	465	147	
9	0	0	0	0	462	147	
10	0	0	0	0	463	146	
11	0	0	0	0	463	147	
12	0	0	0	0	464	147	
13	0	0	0	0	465	147	
14	0	0	0	0	467	147	
15	0	0	0	0	470	146	
0	0	0	0	0	472	147	
1	0	0	0	0	472	147	
2	0	0	0	0	472	147	
3	0	0	0	0	473	147	
4	0	0	0	0	473	146	
5	0	0	0	0	473	146	
6	0	0	0	0	473	147	
7	0	0	0	0	473	147	
8	0	0	0	0	475	147	
9	0	0	0	0	473	147	
10	0	0	0	0	472	147	
11	0	0	0	0	472	146	
12	0	0	0	0	472	146	
13	0	0	0	0	471	147	
14	0	0	0	0	471	147	
15	0	0	0	0	471	147	
0	0	0	0	0	471	147	
1	0	0	0	0	470	146	
2	0	0	0	0	469	147	
3	0	0	0	0	468	147	
4	0	0	0	0	469	147	
5	0	0	0	0	471	147	
6	0	0	0	0	470	147	
7	0	0	0	0	471	147	
8	0	0	0	0	473	146	
9	0	0	0	0	474	146	
10	0	0	0	0	475	147	
11	0	0	0	0	475	147	
12	0	0	0	0	476	147	
13	0	0	0	0	476	147	
14	0	0	0	0	478	147	
15	0	0	0	0	480	146	
0	0	0	0	0	480	147	
1	0	0	0	0	479	147	
2	0	0	0	0	478	147	
3	0	0	0	0	476	147	
4	0	0	0	0	475	147	
5	0	0	0	0	472	146	
6	0	0	0	0	470	147	
7	0	0	0	0	470	147	
8	0	0	0	0	470	147	
9	0	0	0	0	469	147	
10	0	0	0	0	469	147	
11	0	0	0	0	469	147	
12	0	0	0	0	471	146	
13	0	0	0	0	473	147	
14	0	0	0	0	476	147	
15	0	0	0	0	480	147	
0	0	0	0	0	481	147	
1	0	0	0	0	484	146	
2	0	0	0	0	485	146	
3	0	0	0	0	484	147	
4	0	0	0	0	484	147	
5	0	0	0	0	484	147	
6	0	0	0	0	484	147	
7	0	0	0	0	484	146	
8	0	0	0	0	485	146	
9	0	0	0	0	486	146	
10	0	0	0	0	487	147	
11	0	0	0	0	486	147	
12	0	0	0	0	484	147	
13	0	0	0	0	484	147	
14	0	0	0	0	485	147	
15	0	0	0	0	486	146	
0	0	0	0	0	489	146	
1	0	0	0	0	490	147	
2	0	0	0	0	492	147	
3	0	0	0	0	492	147	
4	0	0	0	0	492	147	
5	0	0	0	0	491	146	
6	0	0	0	0	489	147	
7	0	0	0	0	487	147	
8	0	0	0	0	487	147	
9	0	0	0	0	488	147	
10	0	0	0	0	489	146	
11	0	0	0	0	488	147	
12	0	0	0	0	488	147	
13	0	0	0	0	489	147	
14	0	0	0	0	489	146	
15	0	0	0	0	491	146	
0	0	0	0	0	492	146	
1	0	0	0	0	492	147	
2	0	0	0	0	492	147	
3	0	0	0	0	492	147	
4	0	0	0	0	491	146	
5	0	0	0	0	489	146	
6	0	0	0	0	488	147	
7	0	0	0	0	487	147	
8	0	0	0	0	486	147	
9	0	0	0	0	487	146	
10	0	0	0	0	488	146	
11	0	0	0	0	489	147	
12	0	0	0	0	489	147	
13	0	0	0	0	491	147	
14	0	0	0	0	494	147	
15	0	0	0	0	498	146	
0	0	0	0	0	502	146	
1	0	0	0	0	504	147	
2	0	0	0	0	505	147	
3	0	0	0	0	504	146	
4	0	0	0	0	504	146	
5	0	0	0	0	503	147	
6	0	0	0	0	502	147	
7	0	0	0	0	501	147	
8	0	0	0	0	500	146	
9	0	0	0	0	499	146	
10	0	0	0	0	499	147	
11	0	0	0	0	497	147	
12	0	0	0	0	497	147	
13	0	0	0	0	497	147	
14	0	0	0	0	496	146	
15	0	0	0	0	496	147	
0	0	0	0	0	496	147	
1	0	0	0	0	497	147	
2	0	0	0	0	499	146	
3	0	0	0	0	498	146	
4	0	0	0	0	498	147	
5	0	0	0	0	497	147	
6	0	0	0	0	498	147	
7	0	0	0	0	499	146	
8	0	0	0	0	501	146	
9	0	0	0	0	501	147	
10	0	0	0	0	499	147	
11	0	0	0	0	498	147	
12	0	0	0	0	499	146	
13	0	0	0	0	499	146	
14	0	0	0	0	498	147	
15	0	0	0	0	496	147	
0	0	0	0	0	494	147	
1	0	0	0	0	494	146	
2	0	0	0	0	492	146	
3	0	0	0	0	492	147	
4	0	0	0	0	493	147	
5	0	0	0	0	495	147	
6	0	0	0	0	496	146	
7	0	0	0	0	498	146	
8	0	0	0	0	500	147	
9	0	0	0	0	502	147	
10	0	0	0	0	503	147	
11	0	0	0	0	502	146	
12	0	0	0	0	500	147	
13	0	0	0	0	500	147	
14	0	0	0	0	500	147	
15	0	0	0	0	501	146	
0	0	0	0	0	502	146	
1	0	0	0	0	502	147	
2	0	0	0	0	502	147	
3	0	0	0	0	503	147	
4	0	0	0	0	504	147	
5	0	0	0	0	504	146	
6	0	0	0	0	506	146	
7	0	0	0	0	505	147	
8	0	0	0	0	505	147	
9	0	0	0	0	505	147	
10	0	0	0	0	505	146	
11	0	0	0	0	505	146	
12	0	0	0	0	504	147	
13	0	0	0	0	504	147	
14	0	0	0	0	503	147	
15	0	0	0	0	502	146	
0	0	0	0	0	500	146	
1	0	0	0	0	499	147	
2	0	0	0	0	497	147	
3	0	0	0	0	495	147	
4	0	0	0	0	495	146	
5	0	0	0	0	497	146	
6	0	0	0	0	497	147	
7	0	0	0	0	500	147	
8	0	0	0	0	504	147	
9	0	0	0	0	507	147	
10	0	0	0	0	508	146	
11	0	0	0	0	508	146	
12	0	0	0	0	508	147	
13	0	0	0	0	507	147	
14	0	0	0	0	505	147	
15	0	0	0	0	504	146	
0	0	0	0	0	503	146	
1	0	0	0	0	502	146	
2	0	0	0	0	502	147	
3	0	0	0	0	504	147	
4	0	0	0	0	505	147	
5	0	0	0	0	506	146	
6	0	0	0	0	505	147	
7	0	0	0	0	506	147	
8	0	0	0	0	507	147	
9	0	0	0	0	510	146	
10	0	0	0	0	512	146	
11	0	0	0	0	513	147	
12	0	0	0	0	513	147	
13	0	0	0	0	511	147	
14	0	0	0	0	510	147	
15	0	0	0	0	510	146	
0	0	0	0	0	509	146	
1	0	0	0	0	509	147	
2	0	0	0	0	508	147	
3	0	0	0	0	506	147	
4	0	0	0	0	505	146	
5	0	0	0	0	507	146	
6	0	0	0	0	508	147	
7	0	0	0	0	509	147	
8	0	0	0	0	508	147	
9	0	0	0	0	507	147	
10	0	0	0	0	506	146	
11	0	0	0	0	505	146	
12	0	0	0	0	504	146	
13	0	0	0	0	504	147	
14	0	0	0	0	503	147	
15	0	0	0	0	503	147	
0	0	0	0	0	502	147	
1	0	0	0	0	502	147	
2	0	0	0	0	500	146	
3	0	0	0	0	500	147	
4	0	0	0	0	499	147	
5	0	0	0	0	498	147	
6	0	0	0	0	497	147	
7	0	0	0	0	496	146	
8	0	0	0	0	496	147	
9	0	0	0	0	496	147	
10	0	0	0	0	496	147	
11	0	0	0	0	496	147	
12	0	0	0	0	497	146	
13	0	0	0	0	498	147	
14	0	0	0	0	499	147	
15	0	0	0	0	500	147	
0	0	0	0	0	501	147	
1	0	0	0	0	503	146	
2	0	0	0	0	504	147	
3	0	0	0	0	505	147	
4	0	0	0	0	505	147	
5	0	0	0	0	504	146	
6	0	0	0	0	504	146	
7	0	0	0	0	504	147	
8	0	0	0	0	503	147	
9	0	0	0	0	501	147	
10	0	0	0	0	499	146	
11	0	0	0	0	496	146	
12	0	0	0	0	495	147	
13	0	0	0	0	496	147	
14	0	0	0	0	497	147	
15	0	0	0	0	498	147	
0	0	0	0	0	501	146	
1	0	0	0	0	504	147	
2	0	0	0	0	507	147	
3	0	0	0	0	508	147	
4	0	0	0	0	508	146	
5	0	0	0	0	506	146	
6	0	0	0	0	505	146	
7	0	0	0	0	505	147	
8	0	0	0	0	506	147	
9	0	0	0	0	505	147	
10	0	0	0	0	505	147	
11	0	0	0	0	504	146	
12	0	0	0	0	502	146	
13	0	0	0	0	499	147	
14	0	0	0	0	496	147	
15	0	0	0	0	496	147	
0	0	0	0	0	496	147	
1	0	0	0	0	495	146	
2	0	0	0	0	495	147	
3	0	0	0	0	495	147	
4	0	0	0	0	496	147	
5	0	0	0	0	497	147	
6	0	0	0	0	498	146	
7	0	0	0	0	499	146	
8	0	0	0	0	502	147	
9	0	0	0	0	504	147	
10	0	0	0	0	505	147	
11	0	0	0	0	505	146	
12	0	0	0	0	503	146	
13	0	0	0	0	502	147	
14	0	0	0	0	501	147	
15	0	0	0	0	501	147	
0	0	0	0	0	500	147	
1	0	0	0	0	501	147	
2	0	0	0	0	501	147	
3	0	0	0	0	500	146	
4	0	0	0	0	502	146	
5	0	0	0	0	503	147	
6	0	0	0	0	504	147	
7	0	0	0	0	503	147	
8	0	0	0	0	503	146	
9	0	0	0	0	502	147	
10	0	0	0	0	501	147	
11	0	0	0	0	500	147	
12	0	0	0	0	499	147	
13	0	0	0	0	499	147	
14	0	0	0	0	500	146	
15	0	0	0	0	501	147	
0	0	0	0	0	502	147	
1	0	0	0	0	504	147	
2	0	0	0	0	504	147	
3	0	0	0	0	504	146	
4	0	0	0	0	504	146	
5	0	0	0	0	504	147	
6	0	0	0	0	504	147	
7	0	0	0	0	504	147	
8	0	0	0	0	504	147	
9	0	0	0	0	502	146	
10	0	0	0	0	502	147	
11	0	0	0	0	502	147	
12	0	0	0	0	503	147	
13	0	0	0	0	503	146	
14	0	0	0	0	502	146	
15	0	0	0	0	502	147	
0	0	0	0	0	504	147	
1	0	0	0	0	507	147	
2	0	0	0	0	509	147	
3	0	0	0	0	508	146	
4	0	0	0	0	509	146	
5	0	0	0	0	509	147	
6	0	0	0	0	509	147	
7	0	0	0	0	508	147	
8	0	0	0	0	508	147	
9	0	0	0	0	508	146	
10	0	0	0	0	506	146	
11	0	0	0	0	504	147	
12	0	0	0	0	504	147	
13	0	0	0	0	504	147	
14	0	0	0	0	503	146	
15	0	0	0	0	502	146	
0	0	0	0	0	500	147	
1	0	0	0	0	499	147	
2	0	0	0	0	499	147	
3	0	0	0	0	499	146	
4	0	0	0	0	500	146	
5	0	0	0	0	500	146	
6	0	0	0	0	501	147	
7	0	0	0	0	501	147	
8	0	0	0	0	502	147	
9	0	0	0	0	503	147	
10	0	0	0	0	503	146	
11	0	0	0	0	503	146	
12	0	0	0	0	502	147	
13	0	0	0	0	501	147	
14	0	0	0	0	502	147	
15	0	0	0	0	502	147	
0	0	0	0	0	501	146	
1	0	0	0	0	501	146	
2	0	0	0	0	502	147	
3	0	0	0	0	502	147	
4	0	0	0	0	501	147	
5	0	0	0	0	500	146	
6	0	0	0	0	499	146	
7	0	0	0	0	500	147	
8	0	0	0	0	502	147	
9	0	0	0	0	503	147	
10	0	0	0	0	502	147	
11	0	0	0	0	499	147	
12	0	0	0	0	498	146	
13	0	0	0	0	497	146	
14	0	0	0	0	496	147	
15	0	0	0	0	496	147	
0	0	0	0	0	496	147	
1	0	0	0	0	495	147	
2	0	0	0	0	496	147	
3	0	0	0	0	496	146	
4	0	0	0	0	498	147	
5	0	0	0	0	500	147	
6	0	0	0	0	503	147	
7	0	0	0	0	505	147	
8	0	0	0	0	508	146	
9	0	0	0	0	511	147	
10	0	0	0	0	512	146	
11	0	0	0	0	513	147	
12	0	0	0	0	514	147	
13	0	0	0	0	515	147	
14	0	0	0	0	516	147	
15	0	0	0	0	515	146	
0	0	0	0	0	515	146	
1	0	0	0	0	514	147	
2	0	0	0	0	513	147	
3	0	0	0	0	512	147	
4	0	0	0	0	509	147	
5	0	0	0	0	508	146	
6	0	0	0	0	507	146	
7	0	0	0	0	506	147	
8	0	0	0	0	505	147	
9	0	0	0	0	505	147	
10	0	0	0	0	504	146	
11	0	0	0	0	504	146	
12	0	0	0	0	504	147	
13	0	0	0	0	505	147	
14	0	0	0	0	507	147	
15	0	0	0	0	509	147	
0	0	0	0	0	509	146	
1	0	0	0	0	510	146	
2	0	0	0	0	510	147	
3	0	0	0	0	509	147	
4	0	0	0	0	510	147	
5	0	0	0	0	511	147	
6	0	0	0	0	510	146	
7	0	0	0	0	509	146	
8	0	0	0	0	508	147	
9	0	0	0	0	506	147	
10	0	0	0	0	504	147	
11	0	0	0	0	503	147	
12	0	0	0	0	503	146	
13	0	0	0	0	502	146	
14	0	0	0	0	500	147	
15	0	0	0	0	501	147	
0	0	0	0	0	501	147	
1	0	0	0	0	502	147	
2	0	0	0	0	502	146	
3	0	0	0	0	502	146	
4	0	0	0	0	502	147	
5	0	0	0	0	503	147	
6	0	0	0	0	505	147	
7	0	0	0	0	506	146	
8	0	0	0	0	508	146	
9	0	0	0	0	507	147	
10	0	0	0	0	507	147	
11	0	0	0	0	507	147	
12	0	0	0	0	507	147	
13	0	0	0	0	507	146	
14	0	0	0	0	505	146	
15	0	0	0	0	504	147	
0	0	0	0	0	503	147	
1	0	0	0	0	503	146	
2	0	0	0	0	504	146	
3	0	0	0	0	505	146	
4	0	0	0	0	506	147	
5	0	0	0	0	508	147	
6	0	0	0	0	510	147	
7	0	0	0	0	512	146	
8	0	0	0	0	511	146	
9	0	0	0	0	511	146	
10	0	0	0	0	510	147	
11	0	0	0	0	509	147	
12	0	0	0	0	508	147	
13	0	0	0	0	505	147	
14	0	0	0	0	505	146	
15	0	0	0	0	506	146	
0	0	0	0	0	507	146	
1	0	0	0	0	507	147	
2	0	0	0	0	507	147	
3	0	0	0	0	505	147	
4	0	0	0	0	505	147	
5	0	0	0	0	505	147	
6	0	0	0	0	504	146	
7	0	0	0	0	503	147	
8	0	0	0	0	501	147	
9	0	0	0	0	500	147	
10	0	0	0	0	499	147	
11	0	0	0	0	497	146	
12	0	0	0	0	496	147	
13	0	0	0	0	494	147	
14	0	0	0	0	494	147	
15	0	0	0	0	494	147	
0	0	0	0	0	496	146	
1	0	0	0	0	497	147	
2	0	0	0	0	500	147	
3	0	0	0	0	502	147	
4	0	0	0	0	503	147	
5	0	0	0	0	504	146	
6	0	0	0	0	506	147	
7	0	0	0	0	508	147	
8	0	0	0	0	509	147	
9	0	0	0	0	508	147	
10	0	0	0	0	510	146	
11	0	0	0	0	511	146	
12	0	0	0	0	510	147	
13	0	0	0	0	511	147	
14	0	0	0	0	510	147	
15	0	0	0	0	509	147	
0	0	0	0	0	509	147	
1	0	0	0	0	509	147	
2	0	0	0	0	509	146	
3	0	0	0	0	508	146	
4	0	0	0	0	507	146	
5	0	0	0	0	508	146	
6	0	0	0	0	509	147	
7	0	0	0	0	508	147	
8	0	0	0	0	507	147	
9	0	0	0	0	506	147	
10	0	0	0	0	507	147	
11	0	0	0	0	507	146	
12	0	0	0	0	508	146	
13	0	0	0	0	507	146	
14	0	0	0	0	508	147	
15	0	0	0	0	510	147	
0	0	0	0	0	510	147	
1	0	0	0	0	511	146	
2	0	0	0	0	512	146	
3	0	0	0	0	512	147	
4	0	0	0	0	513	147	
5	0	0	0	0	514	147	
6	0	0	0	0	514	147	
7	0	0	0	0	513	146	
8	0	0	0	0	513	146	
9	0	0	0	0	513	147	
10	0	0	0	0	513	147	
11	0	0	0	0	513	147	
12	0	0	0	0	511	147	
13	0	0	0	0	510	146	
14	0	0	0	0	509	147	
15	0	0	0	0	507	147	
0	0	0	0	0	508	147	
1	0	0	0	0	510	147	
2	0	0	0	0	511	146	
3	0	0	0	0	511	146	
4	0	0	0	0	512	147	
5	0	0	0	0	512	147	
6	0	0	0	0	512	147	
7	0	0	0	0	513	147	
8	0	0	0	0	514	147	
9	0	0	0	0	516	146	
10	0	0	0	0	517	146	
11	0	0	0	0	518	147	
12	0	0	0	0	519	147	
13	0	0	0	0	520	147	
14	0	0	0	0	521	146	
15	0	0	0	0	520	146	
0	0	0	0	0	519	147	
1	0	0	0	0	517	147	
2	0	0	0	0	516	147	
3	0	0	0	0	515	147	
4	0	0	0	0	514	146	
5	0	0	0	0	514	146	
6	0	0	0	0	513	147	
7	0	0	0	0	513	147	
8	0	0	0	0	513	147	
9	0	0	0	0	513	147	
10	0	0	0	0	512	146	
11	0	0	0	0	512	146	
12	0	0	0	0	512	147	
13	0	0	0	0	512	147	
14	0	0	0	0	511	147	
15	0	0	0	0	510	146	
0	0	0	0	0	510	146	
1	0	0	0	0	510	147	
2	0	0	0	0	510	147	
3	0	0	0	0	511	147	
4	0	0	0	0	511	146	
5	0	0	0	0	511	146	
6	0	0	0	0	511	147	
7	0	0	0	0	510	147	
8	0	0	0	0	511	147	
9	0	0	0	0	511	147	
10	0	0	0	0	510	146	
11	0	0	0	0	509	146	
12	0	0	0	0	508	147	
13	0	0	0	0	508	147	
14	0	0	0	0	508	147	
15	0	0	0	0	509	146	
0	0	0	0	0	510	146	
1	0	0	0	0	508	147	
2	0	0	0	0	507	147	
3	0	0	0	0	507	147	
4	0	0	0	0	507	146	
5	0	0	0	0	508	146	
6	0	0	0	0	510	146	
7	0	0	0	0	510	147	
8	0	0	0	0	510	147	
9	0	0	0	0	511	147	
10	0	0	0	0	513	146	
11	0	0	0	0	514	146	
12	0	0	0	0	517	147	
13	0	0	0	0	519	147	
14	0	0	0	0	519	147	
15	0	0	0	0	518	147	
0	0	0	0	0	516	147	
1	0	0	0	0	514	146	
2	0	0	0	0	514	146	
3	0	0	0	0	514	146	
4	0	0	0	0	513	147	
5	0	0	0	0	512	147	
6	0	0	0	0	510	147	
7	0	0	0	0	509	146	
8	0	0	0	0	508	147	
9	0	0	0	0	508	147	
10	0	0	0	0	507	147	
11	0	0	0	0	508	147	
12	0	0	0	0	507	146	
13	0	0	0	0	506	146	
14	0	0	0	0	508	147	
15	0	0	0	0	510	147	
0	0	0	0	0	510	147	
1	0	0	0	0	510	147	
2	0	0	0	0	511	146	
3	0	0	0	0	513	147	
4	0	0	0	0	518	147	
5	0	0	0	0	522	147	
6	0	0	0	0	524	146	
7	0	0	0	0	526	146	
8	0	0	0	0	525	146	
9	0	0	0	0	524	147	
10	0	0	0	0	524	147	
11	0	0	0	0	522	147	
12	0	0	0	0	521	146	
13	0	0	0	0	520	146	
14	0	0	0	0	518	147	
15	0	0	0	0	515	147	
0	0	0	0	0	512	147	
1	0	0	0	0	511	146	
2	0	0	0	0	510	146	
3	0	0	0	0	508	146	
4	0	0	0	0	508	147	
5	0	0	0	0	506	147	
6	0	0	0	0	505	147	
7	0	0	0	0	504	147	
8	0	0	0	0	504	146	
9	0	0	0	0	506	146	
10	0	0	0	0	508	147	
11	0	0	0	0	508	147	
12	0	0	0	0	509	147	
13	0	0	0	0	508	146	
14	0	0	0	0	507	146	
15	0	0	0	0	505	147	
0	0	0	0	0	505	147	
1	0	0	0	0	505	147	
2	0	0	0	0	505	146	
3	0	0	0	0	506	147	
4	0	0	0	0	505	147	
5	0	0	0	0	505	147	
6	0	0	0	0	506	146	
7	0	0	0	0	506	146	
8	0	0	0	0	506	147	
9	0	0	0	0	505	147	
10	0	0	0	0	505	147	
11	0	0	0	0	504	147	
12	0	0	0	0	503	146	
13	0	0	0	0	502	146	
14	0	0	0	0	501	147	
15	0	0	0	0	500	147	
0	0	0	0	0	500	147	
1	0	0	0	0	499	147	
2	0	0	0	0	499	146	
3	0	0	0	0	498	146	
4	0	0	0	0	497	147	
5	0	0	0	0	498	147	
6	0	0	0	0	499	147	
7	0	0	0	0	502	146	
8	0	0	0	0	506	146	
9	0	0	0	0	510	147	
10	0	0	0	0	513	147	
11	0	0	0	0	515	147	
12	0	0	0	0	516	147	
13	0	0	0	0	516	146	
14	0	0	0	0	515	146	
15	0	0	0	0	515	147	
0	0	0	0	0	515	147	
1	0	0	0	0	513	147	
2	0	0	0	0	511	146	
3	0	0	0	0	511	146	
4	0	0	0	0	510	147	
5	0	0	0	0	508	147	
6	0	0	0	0	507	147	
7	0	0	0	0	506	146	
8	0	0	0	0	506	146	
9	0	0	0	0	506	147	
10	0	0	0	0	507	147	
11	0	0	0	0	507	147	
12	0	0	0	0	505	146	
13	0	0	0	0	507	146	
14	0	0	0	0	511	146	
15	0	0	0	0	515	147	
0	0	0	0	0	519	147	
1	0	0	0	0	522	146	
2	0	0	0	0	523	146	
3	0	0	0	0	524	146	
4	0	0	0	0	524	147	
5	0	0	0	0	523	147	
6	0	0	0	0	521	147	
7	0	0	0	0	521	147	
8	0	0	0	0	521	146	
9	0	0	0	0	521	146	
10	0	0	0	0	519	146	
11	0	0	0	0	519	147	
12	0	0	0	0	519	147	
13	0	0	0	0	519	147	
14	0	0	0	0	518	147	
15	0	0	0	0	518	146	
0	0	0	0	0	518	146	
1	0	0	0	0	517	147	
2	0	0	0	0	517	147	
3	0	0	0	0	517	147	
4	0	0	0	0	517	146	
5	0	0	0	0	518	146	
6	0	0	0	0	519	147	
7	0	0	0	0	520	147	
8	0	0	0	0	522	147	
9	0	0	0	0	524	146	
10	0	0	0	0	524	146	
11	0	0	0	0	526	147	
12	0	0	0	0	528	147	
13	0	0	0	0	531	147	
14	0	0	0	0	531	146	
15	0	0	0	0	531	146	
0	0	0	0	0	531	147	
1	0	0	0	0	530	147	
2	0	0	0	0	529	147	
3	0	0	0	0	527	146	
4	0	0	0	0	525	146	
5	0	0	0	0	524	146	
6	0	0	0	0	523	147	
7	0	0	0	0	522	147	
8	0	0	0	0	523	147	
9	0	0	0	0	524	147	
10	0	0	0	0	525	146	
11	0	0	0	0	525	146	
12	0	0	0	0	524	146	
13	0	0	0	0	524	147	
14	0	0	0	0	522	147	
15	0	0	0	0	520	147	
0	0	0	0	0	520	147	
1	0	0	0	0	520	147	
2	0	0	0	0	521	146	
3	0	0	0	0	519	146	
4	0	0	0	0	517	146	
5	0	0	0	0	515	147	
6	0	0	0	0	515	147	
7	0	0	0	0	514	147	
8	0	0	0	0	515	147	
9	0	0	0	0	516	147	
10	0	0	0	0	516	146	
11	0	0	0	0	515	146	
12	0	0	0	0	515	147	
13	0	0	0	0	513	147	
14	0	0	0	0	512	147	
15	0	0	0	0	509	146	
0	0	0	0	0	506	146	
1	0	0	0	0	503	147	
2	0	0	0	0	501	147	
3	0	0	0	0	499	147	
4	0	0	0	0	499	147	
5	0	0	0	0	499	146	
6	0	0	0	0	499	146	
7	0	0	0	0	497	147	
8	0	0	0	0	496	147	
9	0	0	0	0	497	147	
10	0	0	0	0	497	146	
11	0	0	0	0	496	146	
12	0	0	0	0	495	147	
13	0	0	0	0	493	147	
14	0	0	0	0	491	147	
15	0	0	0	0	491	147	
0	0	0	0	0	492	146	
1	0	0	0	0	494	147	
2	0	0	0	0	498	147	
3	0	0	0	0	501	147	
4	0	0	0	0	504	147	
5	0	0	0	0	506	146	
6	0	0	0	0	507	146	
7	0	0	0	0	509	147	
8	0	0	0	0	509	147	
9	0	0	0	0	509	147	
10	0	0	0	0	508	146	
11	0	0	0	0	507	146	
12	0	0	0	0	506	147	
13	0	0	0	0	505	147	
14	0	0	0	0	504	147	
15	0	0	0	0	502	147	
0	0	0	0	0	500	146	
1	0	0	0	0	499	146	
2	0	0	0	0	496	147	
3	0	0	0	0	495	147	
4	0	0	0	0	495	147	
5	0	0	0	0	494	146	
6	0	0	0	0	494	146	
7	0	0	0	0	494	146	
8	0	0	0	0	496	147	
9	0	0	0	0	497	147	
10	0	0	0	0	497	147	
11	0	0	0	0	496	147	
12	0	0	0	0	494	146	
13	0	0	0	0	493	146	
14	0	0	0	0	493	147	
15	0	0	0	0	492	147	
0	0	0	0	0	490	147	
1	0	0	0	0	490	147	
2	0	0	0	0	491	147	
3	0	0	0	0	491	146	
4	0	0	0	0	490	146	
5	0	0	0	0	489	147	
6	0	0	0	0	489	147	
7	0	0	0	0	491	147	
8	0	0	0	0	493	146	
9	0	0	0	0	494	146	
10	0	0	0	0	494	147	
11	0	0	0	0	494	147	
12	0	0	0	0	495	147	
13	0	0	0	0	496	147	
14	0	0	0	0	496	146	
15	0	0	0	0	496	146	
0	0	0	0	0	496	146	
1	0	0	0	0	497	147	
2	0	0	0	0	498	147	
3	0	0	0	0	497	146	
4	0	0	0	0	499	146	
5	0	0	0	0	502	147	
6	0	0	0	0	505	147	
7	0	0	0	0	510	147	
8	0	0	0	0	517	147	
9	0	0	0	0	525	146	
10	0	0	0	0	534	146	
11	0	0	0	0	542	147	
12	0	0	0	0	552	147	
13	0	0	0	0	563	147	
14	0	0	0	0	574	147	
15	0	0	0	0	587	145	
0	0	0	0	0	600	146	
1	0	0	0	0	613	147	
2	0	0	0	0	625	147	
3	0	0	0	0	633	146	
4	0	0	0	0	640	145	
5	0	0	0	0	646	145	
6	0	0	0	0	650	146	
7	0	0	0	0	652	147	
8	0	0	0	0	653	147	
9	0	0	0	0	654	146	
10	0	0	0	0	654	145	
11	0	0	0	0	653	146	
12	0	0	0	0	651	147	
13	0	0	0	0	648	147	
14	0	0	0	0	642	146	
15	0	0	0	0	634	145	
0	0	0	0	0	626	146	
1	0	0	0	0	618	147	
2	0	0	0	0	609	147	
3	0	0	0	0	599	147	
4	0	0	0	0	590	147	
5	0	0	0	0	582	146	
6	0	0	0	0	575	145	
7	0	0	0	0	567	146	
8	0	0	0	0	555	147	
9	0	0	0	0	543	147	
10	0	0	0	0	530	147	
11	0	0	0	0	515	146	
12	0	0	0	0	503	146	
13	0	0	0	0	490	147	
14	0	0	0	0	477	147	
15	0	0	0	0	464	147	
0	0	0	0	0	457	147	
1	0	0	0	0	453	147	
2	0	0	0	0	450	147	
3	0	0	0	0	447	147	
4	0	0	0	0	444	147	
5	0	0	0	0	442	147	
6	0	0	0	0	440	147	
7	0	0	0	0	440	147	
8	0	0	0	0	440	147	
9	0	0	0	0	440	147	
10	0	0	0	0	440	147	
11	0	0	0	0	439	147	
12	0	0	0	0	440	147	
13	0	0	0	0	442	147	
14	0	0	0	0	446	147	
15	0	0	0	0	450	147	
0	0	0	0	0	454	147	
1	0	0	0	0	456	147	
2	0	0	0	0	459	147	
3	0	0	0	0	461	147	
4	0	0	0	0	463	147	
5	0	0	0	0	464	146	
6	0	0	0	0	464	147	
7	0	0	0	0	465	147	
8	0	0	0	0	468	147	
9	0	0	0	0	472	146	
10	0	0	0	0	474	147	
11	0	0	0	0	475	147	
12	0	0	0	0	477	147	
13	0	0	0	0	479	147	
14	0	0	0	0	479	147	
15	0	0	0	0	478	147	
0	0	0	0	0	477	147	
1	0	0	0	0	476	147	
2	0	0	0	0	474	147	
3	0	0	0	0	474	147	
4	0	0	0	0	474	146	
5	0	0	0	0	475	147	
6	0	0	0	0	476	147	
7	0	0	0	0	477	147	
8	0	0	0	0	479	147	
9	0	0	0	0	481	147	
10	0	0	0	0	484	147	
11	0	0	0	0	486	146	
12	0	0	0	0	487	147	
13	0	0	0	0	487	147	
14	0	0	0	0	487	147	
15	0	0	0	0	487	147	
0	0	0	0	0	488	146	
1	0	0	0	0	488	147	
2	0	0	0	0	487	147	
3	0	0	0	0	487	147	
4	0	0	0	0	487	147	
5	0	0	0	0	487	147	
6	0	0	0	0	487	146	
7	0	0	0	0	487	147	
8	0	0	0	0	486	147	
9	0	0	0	0	483	147	
10	0	0	0	0	481	147	
11	0	0	0	0	480	146	
12	0	0	0	0	481	147	
13	0	0	0	0	481	147	
14	0	0	0	0	481	147	
15	0	0	0	0	482	147	
0	0	0	0	0	483	147	
1	0	0	0	0	487	146	
2	0	0	0	0	491	146	
3	0	0	0	0	494	147	
4	0	0	0	0	496	147	
5	0	0	0	0	499	147	
6	0	0	0	0	501	147	
7	0	0	0	0	503	146	
8	0	0	0	0	505	146	
9	0	0	0	0	507	147	
10	0	0	0	0	508	147	
11	0	0	0	0	506	147	
12	0	0	0	0	504	147	
13	0	0	0	0	503	146	
14	0	0	0	0	502	146	
15	0	0	0	0	501	147	
0	0	0	0	0	501	147	
1	0	0	0	0	502	147	
2	0	0	0	0	503	146	
3	0	0	0	0	505	146	
4	0	0	0	0	507	147	
5	0	0	0	0	508	147	
6	0	0	0	0	509	147	
7	0	0	0	0	507	147	
8	0	0	0	0	504	147	
9	0	0	0	0	504	146	
10	0	0	0	0	503	147	
11	0	0	0	0	502	147	
12	0	0	0	0	503	147	
13	0	0	0	0	504	147	
14	0	0	0	0	507	146	
15	0	0	0	0	508	146	
0	0	0	0	0	510	147	
1	0	0	0	0	511	147	
2	0	0	0	0	511	147	
3	0	0	0	0	510	147	
4	0	0	0	0	511	146	
5	0	0	0	0	512	147	
6	0	0	0	0	512	147	
7	0	0	0	0	512	147	
8	0	0	0	0	511	147	
9	0	0	0	0	509	146	
10	0	0	0	0	508	147	
11	0	0	0	0	508	147	
12	0	0	0	0	508	147	
13	0	0	0	0	507	147	
14	0	0	0	0	507	147	
15	0	0	0	0	507	147	
0	0	0	0	0	508	146	
1	0	0	0	0	508	147	
2	0	0	0	0	510	147	
3	0	0	0	0	510	147	
4	0	0	0	0	510	147	
5	0	0	0	0	510	147	
6	0	0	0	0	510	146	
7	0	0	0	0	511	146	
8	0	0	0	0	512	147	
9	0	0	0	0	512	147	
10	0	0	0	0	511	147	
11	0	0	0	0	511	147	
12	0	0	0	0	511	146	
13	0	0	0	0	511	146	
14	0	0	0	0	510	147	
15	0	0	0	0	510	147	
0	0	0	0	0	509	147	
1	0	0	0	0	509	147	
2	0	0	0	0	509	146	
3	0	0	0	0	509	147	
4	0	0	0	0	509	147	
5	0	0	0	0	510	147	
6	0	0	0	0	510	147	
7	0	0	0	0	509	146	
8	0	0	0	0	508	146	
9	0	0	0	0	507	147	
10	0	0	0	0	506	147	
11	0	0	0	0	506	147	
12	0	0	0	0	506	147	
13	0	0	0	0	505	146	
14	0	0	0	0	504	147	
15	0	0	0	0	504	147	
0	0	0	0	0	503	147	
1	0	0	0	0	502	147	
2	0	0	0	0	501	146	
3	0	0	0	0	500	146	
4	0	0	0	0	500	147	
5	0	0	0	0	502	147	
6	0	0	0	0	505	147	
7	0	0	0	0	509	146	
8	0	0	0	0	513	146	
9	0	0	0	0	516	147	
10	0	0	0	0	517	147	
11	0	0	0	0	515	147	
12	0	0	0	0	514	147	
13	0	0	0	0	514	146	
14	0	0	0	0	515	146	
15	0	0	0	0	516	147	
0	0	0	0	0	515	147	
1	0	0	0	0	515	147	
2	0	0	0	0	518	147	
3	0	0	0	0	520	146	
4	0	0	0	0	523	146	
5	0	0	0	0	525	147	
6	0	0	0	0	527	147	
7	0	0	0	0	529	147	
8	0	0	0	0	529	147	
9	0	0	0	0	527	146	
10	0	0	0	0	525	146	
11	0	0	0	0	523	147	
12	0	0	0	0	520	147	
13	0	0	0	0	517	146	
14	0	0	0	0	515	146	
15	0	0	0	0	513	146	
0	0	0	0	0	511	147	
1	0	0	0	0	510	147	
2	0	0	0	0	510	147	
3	0	0	0	0	512	146	
4	0	0	0	0	516	146	
5	0	0	0	0	523	147	
6	0	0	0	0	527	147	
7	0	0	0	0	529	147	
8	0	0	0	0	531	146	
9	0	0	0	0	532	146	
10	0	0	0	0	534	147	
11	0	0	0	0	534	147	
12	0	0	0	0	533	147	
13	0	0	0	0	531	146	
14	0	0	0	0	529	146	
15	0	0	0	0	527	147	
0	0	0	0	0	526	147	
1	0	0	0	0	524	147	
2	0	0	0	0	523	146	
3	0	0	0	0	520	146	
4	0	0	0	0	519	147	
5	0	0	0	0	519	147	
6	0	0	0	0	517	147	
7	0	0	0	0	516	147	
8	0	0	0	0	515	146	
9	0	0	0	0	518	146	
10	0	0	0	0	519	147	
11	0	0	0	0	523	147	
12	0	0	0	0	527	147	
13	0	0	0	0	530	146	
14	0	0	0	0	532	146	
15	0	0	0	0	532	147	
0	0	0	0	0	532	147	
1	0	0	0	0	532	147	
2	0	0	0	0	531	147	
3	0	0	0	0	531	146	
4	0	0	0	0	530	146	
5	0	0	0	0	530	147	
6	0	0	0	0	530	147	
7	0	0	0	0	530	147	
8	0	0	0	0	531	146	
9	0	0	0	0	531	146	
10	0	0	0	0	530	147	
11	0	0	0	0	528	147	
12	0	0	0	0	526	146	
13	0	0	0	0	524	146	
14	0	0	0	0	523	146	
15	0	0	0	0	521	147	
0	0	0	0	0	519	147	
1	0	0	0	0	519	147	
2	0	0	0	0	521	146	
3	0	0	0	0	524	146	
4	0	0	0	0	528	147	
5	0	0	0	0	531	147	
6	0	0	0	0	535	147	
7	0	0	0	0	539	147	
8	0	0	0	0	544	145	
9	0	0	0	0	550	146	
10	0	0	0	0	551	147	
11	0	0	0	0	552	147	
12	0	0	0	0	552	147	
13	0	0	0	0	551	147	
14	0	0	0	0	551	146	
15	0	0	0	0	551	146	
0	0	0	0	0	548	147	
1	0	0	0	0	546	147	
2	0	0	0	0	544	147	
3	0	0	0	0	543	147	
4	0	0	0	0	541	146	
5	0	0	0	0	539	145	
6	0	0	0	0	539	146	
7	0	0	0	0	539	147	
8	0	0	0	0	540	147	
9	0	0	0	0	541	147	
10	0	0	0	0	541	145	
11	0	0	0	0	542	146	
12	0	0	0	0	540	147	
13	0	0	0	0	539	147	
14	0	0	0	0	539	147	
15	0	0	0	0	539	145	
0	0	0	0	0	539	146	
1	0	0	0	0	538	147	
2	0	0	0	0	538	147	
3	0	0	0	0	538	147	
4	0	0	0	0	537	145	
5	0	0	0	0	535	146	
6	0	0	0	0	533	147	
7	0	0	0	0	531	147	
8	0	0	0	0	531	147	
9	0	0	0	0	529	145	
10	0	0	0	0	527	146	
11	0	0	0	0	525	146	
12	0	0	0	0	523	146	
13	0	0	0	0	523	147	
14	0	0	0	0	522	147	
15	0	0	0	0	523	147	
0	0	0	0	0	524	147	
1	0	0	0	0	525	146	
2	0	0	0	0	525	146	
3	0	0	0	0	524	147	
4	0	0	0	0	521	147	
5	0	0	0	0	519	147	
6	0	0	0	0	516	147	
7	0	0	0	0	516	146	
8	0	0	0	0	516	146	
9	0	0	0	0	515	147	
10	0	0	0	0	515	147	
11	0	0	0	0	515	147	
12	0	0	0	0	515	146	
13	0	0	0	0	512	146	
14	0	0	0	0	511	146	
15	0	0	0	0	509	147	
0	0	0	0	0	508	147	
1	0	0	0	0	507	147	
2	0	0	0	0	504	146	
3	0	0	0	0	501	146	
4	0	0	0	0	498	147	
5	0	0	0	0	497	147	
6	0	0	0	0	496	147	
7	0	0	0	0	496	146	
8	0	0	0	0	496	146	
9	0	0	0	0	496	147	
10	0	0	0	0	496	147	
11	0	0	0	0	496	147	
12	0	0	0	0	496	146	
13	0	0	0	0	494	146	
14	0	0	0	0	492	146	
15	0	0	0	0	491	147	
0	0	0	0	0	491	147	
1	0	0	0	0	491	147	
2	0	0	0	0	492	146	
3	0	0	0	0	492	146	
4	0	0	0	0	492	147	
5	0	0	0	0	495	147	
6	0	0	0	0	494	146	
7	0	0	0	0	493	146	
8	0	0	0	0	491	147	
9	0	0	0	0	489	147	
10	0	0	0	0	487	147	
11	0	0	0	0	484	146	
12	0	0	0	0	482	146	
13	0	0	0	0	479	147	
14	0	0	0	0	476	147	
15	0	0	0	0	473	147	
0	0	0	0	0	472	147	
1	0	0	0	0	471	146	
2	0	0	0	0	469	146	
3	0	0	0	0	468	147	
4	0	0	0	0	470	147	
5	0	0	0	0	471	147	
6	0	0	0	0	472	147	
7	0	0	0	0	473	146	
8	0	0	0	0	473	146	
9	0	0	0	0	473	147	
10	0	0	0	0	472	147	
11	0	0	0	0	472	147	
12	0	0	0	0	472	146	
13	0	0	0	0	472	147	
14	0	0	0	0	471	147	
15	0	0	0	0	469	147	
0	0	0	0	0	468	147	
1	0	0	0	0	467	146	
2	0	0	0	0	465	147	
3	0	0	0	0	465	147	
4	0	0	0	0	464	147	
5	0	0	0	0	464	146	
6	0	0	0	0	465	146	
7	0	0	0	0	466	147	
8	0	0	0	0	466	147	
9	0	0	0	0	464	147	
10	0	0	0	0	464	147	
11	0	0	0	0	463	146	
12	0	0	0	0	463	146	
13	0	0	0	0	463	147	
14	0	0	0	0	464	147	
15	0	0	0	0	465	147	
0	0	0	0	0	466	146	
1	0	0	0	0	468	147	
2	0	0	0	0	470	147	
3	0	0	0	0	472	147	
4	0	0	0	0	473	146	
5	0	0	0	0	474	146	
6	0	0	0	0	473	147	
7	0	0	0	0	474	147	
8	0	0	0	0	475	147	
9	0	0	0	0	474	147	
10	0	0	0	0	473	146	
11	0	0	0	0	474	146	
12	0	0	0	0	476	147	
13	0	0	0	0	478	147	
14	0	0	0	0	480	147	
15	0	0	0	0	481	146	
0	0	0	0	0	481	146	
1	0	0	0	0	481	147	
2	0	0	0	0	479	147	
3	0	0	0	0	477	147	
4	0	0	0	0	477	147	
5	0	0	0	0	475	147	
6	0	0	0	0	473	146	
7	0	0	0	0	473	146	
8	0	0	0	0	472	147	
9	0	0	0	0	473	147	
10	0	0	0	0	475	147	
11	0	0	0	0	477	146	
12	0	0	0	0	479	146	
13	0	0	0	0	480	147	
14	0	0	0	0	482	147	
15	0	0	0	0	483	147	
0	0	0	0	0	485	146	
1	0	0	0	0	487	146	
2	0	0	0	0	490	146	
3	0	0	0	0	490	147	
4	0	0	0	0	490	147	
5	0	0	0	0	490	147	
6	0	0	0	0	490	146	
7	0	0	0	0	488	146	
8	0	0	0	0	487	146	
9	0	0	0	0	486	147	
10	0	0	0	0	484	147	
11	0	0	0	0	481	147	
12	0	0	0	0	480	146	
13	0	0	0	0	478	147	
14	0	0	0	0	476	147	
15	0	0	0	0	474	147	
0	0	0	0	0	472	146	
1	0	0	0	0	473	146	
2	0	0	0	0	475	147	
3	0	0	0	0	480	147	
4	0	0	0	0	486	147	
5	0	0	0	0	489	147	
6	0	0	0	0	491	146	
7	0	0	0	0	494	146	
8	0	0	0	0	497	146	
9	0	0	0	0	502	147	
10	0	0	0	0	504	147	
11	0	0	0	0	504	147	
12	0	0	0	0	502	146	
13	0	0	0	0	499	146	
14	0	0	0	0	498	147	
15	0	0	0	0	499	147	
0	0	0	0	0	501	147	
1	0	0	0	0	502	146	
2	0	0	0	0	502	146	
3	0	0	0	0	502	146	
4	0	0	0	0	501	147	
5	0	0	0	0	499	147	
6	0	0	0	0	497	147	
7	0	0	0	0	494	146	
8	0	0	0	0	494	146	
9	0	0	0	0	495	147	
10	0	0	0	0	496	147	
11	0	0	0	0	496	147	
12	0	0	0	0	496	146	
13	0	0	0	0	499	146	
14	0	0	0	0	504	147	
15	0	0	0	0	508	147	
0	0	0	0	0	511	147	
1	0	0	0	0	514	147	
2	0	0	0	0	517	146	
3	0	0	0	0	520	146	
4	0	0	0	0	523	147	
5	0	0	0	0	526	147	
6	0	0	0	0	529	146	
7	0	0	0	0	531	146	
8	0	0	0	0	529	146	
9	0	0	0	0	525	147	
10	0	0	0	0	521	147	
11	0	0	0	0	518	147	
12	0	0	0	0	515	146	
13	0	0	0	0	513	146	
14	0	0	0	0	511	146	
15	0	0	0	0	510	147	
0	0	0	0	0	508	147	
1	0	0	0	0	508	146	
2	0	0	0	0	507	146	
3	0	0	0	0	507	146	
4	0	0	0	0	506	147	
5	0	0	0	0	506	147	
6	0	0	0	0	506	147	
7	0	0	0	0	506	147	
8	0	0	0	0	505	146	
9	0	0	0	0	504	146	
10	0	0	0	0	503	146	
11	0	0	0	0	502	147	
12	0	0	0	0	503	147	
13	0	0	0	0	504	147	
14	0	0	0	0	505	146	
15	0	0	0	0	505	146	
0	0	0	0	0	504	147	
1	0	0	0	0	504	147	
2	0	0	0	0	504	147	
