# OpenSignals Text File Format. Version 1
# {"98:D3:B1:FD:3D:90": {"position": 0, "device": "bitalino_rev", "device name": "98:D3:B1:FD:3D:90", "device connection": "BTH98:D3:B1:FD:3D:90", "sampling rate": 1000, "resolution": [4, 1, 1, 1, 1, 10, 10], "firmware version": 1281, "comments": "", "keywords": "", "mode": 0, "sync interval": 2, "date": "2022-3-24", "time": "19:55:51.800", "channels": [2, 3], "sensor": ["ECGBIT", "EDABITREV"], "label": ["A2", "A3"], "column": ["nSeq", "I1", "I2", "O1", "O2", "A2", "A3"], "special": [{}, {}], "digital IO": [0, 0, 1, 1]}}
# EndOfHeader
0	0	0	0	0	259	101	
1	0	0	0	0	259	100	
2	0	0	0	0	260	100	
3	0	0	0	0	261	100	
4	0	0	0	0	261	100	
5	0	0	0	0	260	100	
6	0	0	0	0	260	100	
7	0	0	0	0	260	100	
8	0	0	0	0	259	100	
9	0	0	0	0	259	100	
10	0	0	0	0	260	100	
11	0	0	0	0	259	100	
12	0	0	0	0	259	100	
13	0	0	0	0	260	101	
14	0	0	0	0	261	100	
15	0	0	0	0	262	100	
0	0	0	0	0	263	100	
1	0	0	0	0	266	100	
2	0	0	0	0	269	100	
3	0	0	0	0	271	100	
4	0	0	0	0	272	100	
5	0	0	0	0	272	100	
6	0	0	0	0	271	100	
7	0	0	0	0	271	100	
8	0	0	0	0	271	100	
9	0	0	0	0	271	100	
10	0	0	0	0	270	100	
11	0	0	0	0	270	100	
12	0	0	0	0	268	101	
13	0	0	0	0	269	100	
14	0	0	0	0	270	100	
15	0	0	0	0	270	100	
0	0	0	0	0	269	100	
1	0	0	0	0	269	101	
2	0	0	0	0	269	100	
3	0	0	0	0	270	100	
4	0	0	0	0	270	100	
5	0	0	0	0	271	101	
6	0	0	0	0	271	100	
7	0	0	0	0	270	101	
8	0	0	0	0	270	100	
9	0	0	0	0	270	100	
10	0	0	0	0	271	100	
11	0	0	0	0	270	100	
12	0	0	0	0	268	100	
13	0	0	0	0	266	101	
14	0	0	0	0	266	100	
15	0	0	0	0	266	100	
0	0	0	0	0	267	100	
1	0	0	0	0	268	100	
2	0	0	0	0	270	100	
3	0	0	0	0	272	100	
4	0	0	0	0	273	100	
5	0	0	0	0	272	100	
6	0	0	0	0	270	100	
7	0	0	0	0	268	100	
8	0	0	0	0	265	100	
9	0	0	0	0	265	101	
10	0	0	0	0	265	100	
11	0	0	0	0	264	100	
12	0	0	0	0	263	100	
13	0	0	0	0	265	100	
14	0	0	0	0	267	100	
15	0	0	0	0	269	101	
0	0	0	0	0	269	100	
1	0	0	0	0	270	100	
2	0	0	0	0	271	100	
3	0	0	0	0	272	100	
4	0	0	0	0	273	100	
5	0	0	0	0	275	100	
6	0	0	0	0	277	100	
7	0	0	0	0	279	100	
8	0	0	0	0	281	100	
9	0	0	0	0	282	101	
10	0	0	0	0	283	100	
11	0	0	0	0	284	101	
12	0	0	0	0	286	100	
13	0	0	0	0	287	101	
14	0	0	0	0	289	100	
15	0	0	0	0	291	100	
0	0	0	0	0	292	100	
1	0	0	0	0	293	100	
2	0	0	0	0	293	100	
3	0	0	0	0	295	100	
4	0	0	0	0	296	100	
5	0	0	0	0	297	100	
6	0	0	0	0	300	100	
7	0	0	0	0	301	100	
8	0	0	0	0	302	100	
9	0	0	0	0	302	100	
10	0	0	0	0	303	100	
11	0	0	0	0	304	100	
12	0	0	0	0	304	100	
13	0	0	0	0	304	100	
14	0	0	0	0	305	100	
15	0	0	0	0	306	100	
0	0	0	0	0	307	100	
1	0	0	0	0	308	100	
2	0	0	0	0	308	100	
3	0	0	0	0	308	100	
4	0	0	0	0	309	101	
5	0	0	0	0	308	100	
6	0	0	0	0	307	101	
7	0	0	0	0	307	100	
8	0	0	0	0	308	100	
9	0	0	0	0	309	100	
10	0	0	0	0	309	100	
11	0	0	0	0	309	100	
12	0	0	0	0	310	100	
13	0	0	0	0	309	100	
14	0	0	0	0	310	100	
15	0	0	0	0	310	100	
0	0	0	0	0	309	100	
1	0	0	0	0	309	100	
2	0	0	0	0	308	100	
3	0	0	0	0	309	101	
4	0	0	0	0	307	100	
5	0	0	0	0	306	100	
6	0	0	0	0	305	100	
7	0	0	0	0	305	100	
8	0	0	0	0	305	100	
9	0	0	0	0	304	100	
10	0	0	0	0	304	100	
11	0	0	0	0	303	100	
12	0	0	0	0	303	100	
13	0	0	0	0	304	100	
14	0	0	0	0	306	100	
15	0	0	0	0	307	100	
0	0	0	0	0	307	101	
1	0	0	0	0	308	100	
2	0	0	0	0	311	100	
3	0	0	0	0	312	100	
4	0	0	0	0	316	100	
5	0	0	0	0	323	100	
6	0	0	0	0	331	100	
7	0	0	0	0	340	100	
8	0	0	0	0	350	99	
9	0	0	0	0	360	100	
10	0	0	0	0	371	99	
11	0	0	0	0	383	100	
12	0	0	0	0	396	99	
13	0	0	0	0	408	100	
14	0	0	0	0	418	99	
15	0	0	0	0	428	100	
0	0	0	0	0	437	99	
1	0	0	0	0	443	100	
2	0	0	0	0	448	100	
3	0	0	0	0	452	99	
4	0	0	0	0	453	100	
5	0	0	0	0	455	100	
6	0	0	0	0	455	100	
7	0	0	0	0	454	100	
8	0	0	0	0	453	99	
9	0	0	0	0	452	100	
10	0	0	0	0	450	99	
11	0	0	0	0	446	100	
12	0	0	0	0	441	99	
13	0	0	0	0	435	100	
14	0	0	0	0	428	99	
15	0	0	0	0	420	100	
0	0	0	0	0	411	100	
1	0	0	0	0	401	100	
2	0	0	0	0	391	100	
3	0	0	0	0	381	100	
4	0	0	0	0	369	99	
5	0	0	0	0	357	100	
6	0	0	0	0	345	100	
7	0	0	0	0	335	101	
8	0	0	0	0	323	100	
9	0	0	0	0	311	101	
10	0	0	0	0	300	100	
11	0	0	0	0	289	100	
12	0	0	0	0	281	100	
13	0	0	0	0	275	100	
14	0	0	0	0	270	101	
15	0	0	0	0	268	100	
0	0	0	0	0	263	100	
1	0	0	0	0	261	100	
2	0	0	0	0	260	101	
3	0	0	0	0	260	100	
4	0	0	0	0	260	101	
5	0	0	0	0	260	100	
6	0	0	0	0	260	101	
7	0	0	0	0	262	101	
8	0	0	0	0	266	100	
9	0	0	0	0	270	101	
10	0	0	0	0	272	100	
11	0	0	0	0	277	101	
12	0	0	0	0	282	100	
13	0	0	0	0	285	101	
14	0	0	0	0	289	100	
15	0	0	0	0	292	101	
0	0	0	0	0	296	100	
1	0	0	0	0	299	101	
2	0	0	0	0	303	100	
3	0	0	0	0	305	101	
4	0	0	0	0	308	100	
5	0	0	0	0	310	101	
6	0	0	0	0	311	100	
7	0	0	0	0	312	101	
8	0	0	0	0	311	100	
9	0	0	0	0	312	100	
10	0	0	0	0	313	100	
11	0	0	0	0	313	100	
12	0	0	0	0	314	100	
13	0	0	0	0	314	101	
14	0	0	0	0	315	100	
15	0	0	0	0	315	100	
0	0	0	0	0	316	100	
1	0	0	0	0	316	100	
2	0	0	0	0	316	100	
3	0	0	0	0	317	100	
4	0	0	0	0	318	100	
5	0	0	0	0	317	100	
6	0	0	0	0	317	100	
7	0	0	0	0	317	100	
8	0	0	0	0	317	100	
9	0	0	0	0	317	101	
10	0	0	0	0	317	100	
11	0	0	0	0	318	100	
12	0	0	0	0	319	100	
13	0	0	0	0	319	100	
14	0	0	0	0	319	100	
15	0	0	0	0	320	101	
0	0	0	0	0	321	100	
1	0	0	0	0	321	101	
2	0	0	0	0	321	100	
3	0	0	0	0	321	101	
4	0	0	0	0	321	100	
5	0	0	0	0	321	100	
6	0	0	0	0	321	100	
7	0	0	0	0	321	100	
8	0	0	0	0	321	100	
9	0	0	0	0	323	100	
10	0	0	0	0	324	100	
11	0	0	0	0	326	100	
12	0	0	0	0	328	100	
13	0	0	0	0	329	100	
14	0	0	0	0	330	100	
15	0	0	0	0	332	100	
0	0	0	0	0	333	100	
1	0	0	0	0	335	100	
2	0	0	0	0	335	100	
3	0	0	0	0	335	100	
4	0	0	0	0	335	100	
5	0	0	0	0	335	100	
6	0	0	0	0	334	100	
7	0	0	0	0	335	100	
8	0	0	0	0	335	100	
9	0	0	0	0	335	100	
10	0	0	0	0	336	100	
11	0	0	0	0	337	100	
12	0	0	0	0	338	100	
13	0	0	0	0	341	100	
14	0	0	0	0	342	100	
15	0	0	0	0	341	100	
0	0	0	0	0	340	100	
1	0	0	0	0	340	100	
2	0	0	0	0	339	100	
3	0	0	0	0	339	100	
4	0	0	0	0	339	101	
5	0	0	0	0	337	100	
6	0	0	0	0	336	101	
7	0	0	0	0	335	100	
8	0	0	0	0	334	101	
9	0	0	0	0	333	100	
10	0	0	0	0	332	100	
11	0	0	0	0	332	100	
12	0	0	0	0	333	100	
13	0	0	0	0	334	100	
14	0	0	0	0	337	100	
15	0	0	0	0	340	100	
0	0	0	0	0	343	100	
1	0	0	0	0	345	101	
2	0	0	0	0	345	100	
3	0	0	0	0	345	100	
4	0	0	0	0	347	100	
5	0	0	0	0	347	100	
6	0	0	0	0	346	100	
7	0	0	0	0	345	100	
8	0	0	0	0	345	100	
9	0	0	0	0	347	100	
10	0	0	0	0	347	100	
11	0	0	0	0	348	100	
12	0	0	0	0	348	101	
13	0	0	0	0	348	100	
14	0	0	0	0	349	100	
15	0	0	0	0	348	100	
0	0	0	0	0	349	100	
1	0	0	0	0	349	100	
2	0	0	0	0	348	100	
3	0	0	0	0	347	100	
4	0	0	0	0	346	100	
5	0	0	0	0	345	100	
6	0	0	0	0	345	100	
7	0	0	0	0	345	101	
8	0	0	0	0	346	100	
9	0	0	0	0	345	100	
10	0	0	0	0	344	100	
11	0	0	0	0	344	100	
12	0	0	0	0	344	100	
13	0	0	0	0	344	100	
14	0	0	0	0	343	100	
15	0	0	0	0	342	100	
0	0	0	0	0	343	100	
1	0	0	0	0	344	100	
2	0	0	0	0	344	100	
3	0	0	0	0	344	100	
4	0	0	0	0	344	100	
5	0	0	0	0	344	100	
6	0	0	0	0	344	100	
7	0	0	0	0	344	100	
8	0	0	0	0	343	100	
9	0	0	0	0	344	100	
10	0	0	0	0	344	100	
11	0	0	0	0	345	100	
12	0	0	0	0	344	100	
13	0	0	0	0	344	101	
14	0	0	0	0	344	100	
15	0	0	0	0	343	100	
0	0	0	0	0	344	100	
1	0	0	0	0	345	100	
2	0	0	0	0	345	100	
3	0	0	0	0	345	100	
4	0	0	0	0	345	101	
5	0	0	0	0	347	100	
6	0	0	0	0	348	100	
7	0	0	0	0	349	100	
8	0	0	0	0	350	100	
9	0	0	0	0	352	100	
10	0	0	0	0	353	101	
11	0	0	0	0	353	100	
12	0	0	0	0	353	101	
13	0	0	0	0	353	100	
14	0	0	0	0	353	100	
15	0	0	0	0	352	100	
0	0	0	0	0	352	99	
1	0	0	0	0	351	100	
2	0	0	0	0	352	100	
3	0	0	0	0	352	100	
4	0	0	0	0	353	100	
5	0	0	0	0	356	101	
6	0	0	0	0	358	100	
7	0	0	0	0	360	101	
8	0	0	0	0	362	100	
9	0	0	0	0	364	100	
10	0	0	0	0	366	100	
11	0	0	0	0	368	99	
12	0	0	0	0	370	100	
13	0	0	0	0	372	100	
14	0	0	0	0	375	101	
15	0	0	0	0	377	100	
0	0	0	0	0	379	101	
1	0	0	0	0	379	100	
2	0	0	0	0	379	100	
3	0	0	0	0	380	100	
4	0	0	0	0	381	100	
5	0	0	0	0	383	100	
6	0	0	0	0	384	99	
7	0	0	0	0	386	100	
8	0	0	0	0	386	99	
9	0	0	0	0	386	100	
10	0	0	0	0	386	99	
11	0	0	0	0	386	100	
12	0	0	0	0	384	99	
13	0	0	0	0	383	100	
14	0	0	0	0	384	100	
15	0	0	0	0	386	100	
0	0	0	0	0	388	100	
1	0	0	0	0	390	101	
2	0	0	0	0	391	100	
3	0	0	0	0	392	100	
4	0	0	0	0	394	100	
5	0	0	0	0	395	99	
6	0	0	0	0	394	100	
7	0	0	0	0	395	100	
8	0	0	0	0	396	100	
9	0	0	0	0	397	99	
10	0	0	0	0	399	100	
11	0	0	0	0	402	99	
12	0	0	0	0	404	100	
13	0	0	0	0	405	99	
14	0	0	0	0	407	100	
15	0	0	0	0	407	99	
0	0	0	0	0	407	100	
1	0	0	0	0	408	100	
2	0	0	0	0	408	100	
3	0	0	0	0	409	100	
4	0	0	0	0	410	99	
5	0	0	0	0	409	100	
6	0	0	0	0	409	99	
7	0	0	0	0	408	100	
8	0	0	0	0	408	99	
9	0	0	0	0	408	100	
10	0	0	0	0	408	99	
11	0	0	0	0	411	100	
12	0	0	0	0	414	99	
13	0	0	0	0	416	100	
14	0	0	0	0	417	100	
15	0	0	0	0	417	99	
0	0	0	0	0	418	100	
1	0	0	0	0	417	99	
2	0	0	0	0	416	100	
3	0	0	0	0	415	99	
4	0	0	0	0	414	100	
5	0	0	0	0	414	100	
6	0	0	0	0	415	100	
7	0	0	0	0	416	100	
8	0	0	0	0	417	99	
9	0	0	0	0	417	100	
10	0	0	0	0	418	101	
11	0	0	0	0	420	100	
12	0	0	0	0	422	99	
13	0	0	0	0	423	100	
14	0	0	0	0	423	99	
15	0	0	0	0	425	100	
0	0	0	0	0	428	99	
1	0	0	0	0	428	100	
2	0	0	0	0	427	100	
3	0	0	0	0	425	99	
4	0	0	0	0	423	100	
5	0	0	0	0	422	99	
6	0	0	0	0	418	100	
7	0	0	0	0	415	99	
8	0	0	0	0	415	100	
9	0	0	0	0	412	99	
10	0	0	0	0	411	100	
11	0	0	0	0	409	99	
12	0	0	0	0	407	100	
13	0	0	0	0	405	99	
14	0	0	0	0	404	100	
15	0	0	0	0	405	99	
0	0	0	0	0	406	100	
1	0	0	0	0	406	99	
2	0	0	0	0	407	100	
3	0	0	0	0	409	99	
4	0	0	0	0	410	100	
5	0	0	0	0	410	99	
6	0	0	0	0	409	100	
7	0	0	0	0	410	99	
8	0	0	0	0	410	100	
9	0	0	0	0	410	99	
10	0	0	0	0	410	100	
11	0	0	0	0	409	100	
12	0	0	0	0	408	100	
13	0	0	0	0	406	100	
14	0	0	0	0	404	100	
15	0	0	0	0	404	100	
0	0	0	0	0	404	100	
1	0	0	0	0	403	100	
2	0	0	0	0	401	100	
3	0	0	0	0	398	100	
4	0	0	0	0	395	99	
5	0	0	0	0	391	100	
6	0	0	0	0	387	99	
7	0	0	0	0	384	100	
8	0	0	0	0	381	100	
9	0	0	0	0	376	100	
10	0	0	0	0	373	100	
11	0	0	0	0	369	99	
12	0	0	0	0	368	100	
13	0	0	0	0	368	99	
14	0	0	0	0	367	100	
15	0	0	0	0	365	100	
0	0	0	0	0	364	100	
1	0	0	0	0	361	100	
2	0	0	0	0	359	100	
3	0	0	0	0	357	100	
4	0	0	0	0	354	100	
5	0	0	0	0	352	101	
6	0	0	0	0	350	100	
7	0	0	0	0	348	101	
8	0	0	0	0	346	100	
9	0	0	0	0	344	100	
10	0	0	0	0	341	101	
11	0	0	0	0	339	100	
12	0	0	0	0	336	100	
13	0	0	0	0	335	100	
14	0	0	0	0	332	101	
15	0	0	0	0	330	100	
0	0	0	0	0	329	101	
1	0	0	0	0	328	100	
2	0	0	0	0	328	100	
3	0	0	0	0	327	101	
4	0	0	0	0	327	100	
5	0	0	0	0	326	101	
6	0	0	0	0	323	100	
7	0	0	0	0	323	101	
8	0	0	0	0	323	100	
9	0	0	0	0	321	100	
10	0	0	0	0	322	101	
11	0	0	0	0	321	100	
12	0	0	0	0	322	101	
13	0	0	0	0	323	100	
14	0	0	0	0	323	101	
15	0	0	0	0	322	100	
0	0	0	0	0	323	100	
1	0	0	0	0	323	100	
2	0	0	0	0	322	100	
3	0	0	0	0	322	100	
4	0	0	0	0	322	101	
5	0	0	0	0	323	100	
6	0	0	0	0	323	101	
7	0	0	0	0	324	100	
8	0	0	0	0	322	101	
9	0	0	0	0	320	100	
10	0	0	0	0	318	100	
11	0	0	0	0	316	101	
12	0	0	0	0	314	100	
13	0	0	0	0	312	100	
14	0	0	0	0	311	100	
15	0	0	0	0	310	100	
0	0	0	0	0	310	100	
1	0	0	0	0	312	101	
2	0	0	0	0	313	100	
3	0	0	0	0	314	100	
4	0	0	0	0	316	101	
5	0	0	0	0	319	100	
6	0	0	0	0	320	100	
7	0	0	0	0	322	100	
8	0	0	0	0	324	101	
9	0	0	0	0	325	100	
10	0	0	0	0	325	101	
11	0	0	0	0	326	100	
12	0	0	0	0	326	101	
13	0	0	0	0	327	100	
14	0	0	0	0	326	101	
15	0	0	0	0	324	100	
0	0	0	0	0	323	100	
1	0	0	0	0	322	100	
2	0	0	0	0	322	100	
3	0	0	0	0	322	100	
4	0	0	0	0	323	100	
5	0	0	0	0	322	101	
6	0	0	0	0	322	100	
7	0	0	0	0	323	101	
8	0	0	0	0	322	100	
9	0	0	0	0	323	100	
10	0	0	0	0	324	100	
11	0	0	0	0	324	100	
12	0	0	0	0	324	101	
13	0	0	0	0	326	100	
14	0	0	0	0	326	101	
15	0	0	0	0	325	100	
0	0	0	0	0	324	101	
1	0	0	0	0	323	100	
2	0	0	0	0	323	100	
3	0	0	0	0	321	101	
4	0	0	0	0	321	100	
5	0	0	0	0	321	100	
6	0	0	0	0	320	100	
7	0	0	0	0	321	100	
8	0	0	0	0	321	100	
9	0	0	0	0	322	101	
10	0	0	0	0	322	100	
11	0	0	0	0	322	101	
12	0	0	0	0	321	100	
13	0	0	0	0	320	100	
14	0	0	0	0	320	100	
15	0	0	0	0	320	100	
0	0	0	0	0	320	101	
1	0	0	0	0	319	100	
2	0	0	0	0	318	101	
3	0	0	0	0	318	100	
4	0	0	0	0	318	101	
5	0	0	0	0	319	100	
6	0	0	0	0	319	100	
7	0	0	0	0	320	101	
8	0	0	0	0	320	100	
9	0	0	0	0	321	100	
10	0	0	0	0	323	100	
11	0	0	0	0	324	101	
12	0	0	0	0	325	100	
13	0	0	0	0	324	100	
14	0	0	0	0	323	100	
15	0	0	0	0	320	100	
0	0	0	0	0	318	101	
1	0	0	0	0	315	100	
2	0	0	0	0	314	101	
3	0	0	0	0	313	100	
4	0	0	0	0	313	100	
5	0	0	0	0	314	101	
6	0	0	0	0	316	100	
7	0	0	0	0	318	100	
8	0	0	0	0	320	100	
9	0	0	0	0	321	101	
10	0	0	0	0	322	100	
11	0	0	0	0	323	101	
12	0	0	0	0	324	100	
13	0	0	0	0	324	101	
14	0	0	0	0	324	100	
15	0	0	0	0	324	100	
0	0	0	0	0	324	101	
1	0	0	0	0	324	100	
2	0	0	0	0	323	100	
3	0	0	0	0	323	100	
4	0	0	0	0	321	100	
5	0	0	0	0	320	100	
6	0	0	0	0	319	100	
7	0	0	0	0	319	100	
8	0	0	0	0	318	100	
9	0	0	0	0	319	100	
10	0	0	0	0	320	101	
11	0	0	0	0	322	100	
12	0	0	0	0	323	101	
13	0	0	0	0	323	100	
14	0	0	0	0	323	101	
15	0	0	0	0	323	100	
0	0	0	0	0	322	101	
1	0	0	0	0	321	100	
2	0	0	0	0	321	101	
3	0	0	0	0	320	100	
4	0	0	0	0	320	100	
5	0	0	0	0	321	100	
6	0	0	0	0	321	100	
7	0	0	0	0	321	100	
8	0	0	0	0	322	100	
9	0	0	0	0	321	100	
10	0	0	0	0	321	101	
11	0	0	0	0	322	100	
12	0	0	0	0	322	101	
13	0	0	0	0	323	100	
14	0	0	0	0	323	100	
15	0	0	0	0	324	101	
0	0	0	0	0	324	100	
1	0	0	0	0	324	101	
2	0	0	0	0	323	100	
3	0	0	0	0	325	101	
4	0	0	0	0	326	100	
5	0	0	0	0	326	101	
6	0	0	0	0	326	100	
7	0	0	0	0	327	100	
8	0	0	0	0	328	100	
9	0	0	0	0	327	100	
10	0	0	0	0	327	100	
11	0	0	0	0	327	100	
12	0	0	0	0	328	100	
13	0	0	0	0	328	100	
14	0	0	0	0	327	101	
15	0	0	0	0	326	100	
0	0	0	0	0	325	101	
1	0	0	0	0	324	100	
2	0	0	0	0	325	101	
3	0	0	0	0	327	100	
4	0	0	0	0	327	101	
5	0	0	0	0	327	100	
6	0	0	0	0	327	101	
7	0	0	0	0	327	100	
8	0	0	0	0	327	101	
9	0	0	0	0	327	100	
10	0	0	0	0	327	101	
11	0	0	0	0	326	100	
12	0	0	0	0	326	101	
13	0	0	0	0	327	100	
14	0	0	0	0	327	101	
15	0	0	0	0	328	100	
0	0	0	0	0	328	100	
1	0	0	0	0	328	100	
2	0	0	0	0	327	101	
3	0	0	0	0	324	100	
4	0	0	0	0	322	101	
5	0	0	0	0	320	100	
6	0	0	0	0	319	101	
7	0	0	0	0	318	100	
8	0	0	0	0	318	100	
9	0	0	0	0	319	101	
10	0	0	0	0	320	100	
11	0	0	0	0	323	101	
12	0	0	0	0	326	100	
13	0	0	0	0	328	100	
14	0	0	0	0	331	100	
15	0	0	0	0	333	100	
0	0	0	0	0	333	100	
1	0	0	0	0	334	101	
2	0	0	0	0	333	100	
3	0	0	0	0	333	101	
4	0	0	0	0	332	100	
5	0	0	0	0	331	101	
6	0	0	0	0	329	100	
7	0	0	0	0	328	100	
8	0	0	0	0	327	100	
9	0	0	0	0	327	101	
10	0	0	0	0	328	100	
11	0	0	0	0	330	101	
12	0	0	0	0	332	100	
13	0	0	0	0	335	101	
14	0	0	0	0	337	100	
15	0	0	0	0	339	101	
0	0	0	0	0	341	100	
1	0	0	0	0	341	101	
2	0	0	0	0	340	100	
3	0	0	0	0	340	100	
4	0	0	0	0	339	101	
5	0	0	0	0	339	100	
6	0	0	0	0	339	100	
7	0	0	0	0	340	100	
8	0	0	0	0	341	100	
9	0	0	0	0	341	100	
10	0	0	0	0	341	101	
11	0	0	0	0	342	100	
12	0	0	0	0	343	101	
13	0	0	0	0	344	100	
14	0	0	0	0	344	101	
15	0	0	0	0	345	100	
0	0	0	0	0	345	100	
1	0	0	0	0	347	100	
2	0	0	0	0	349	101	
3	0	0	0	0	350	100	
4	0	0	0	0	350	100	
5	0	0	0	0	351	100	
6	0	0	0	0	352	100	
7	0	0	0	0	354	100	
8	0	0	0	0	356	100	
9	0	0	0	0	357	100	
10	0	0	0	0	357	101	
11	0	0	0	0	356	100	
12	0	0	0	0	356	101	
13	0	0	0	0	355	100	
14	0	0	0	0	356	101	
15	0	0	0	0	357	100	
0	0	0	0	0	357	101	
1	0	0	0	0	356	100	
2	0	0	0	0	355	100	
3	0	0	0	0	356	100	
4	0	0	0	0	359	100	
5	0	0	0	0	359	100	
6	0	0	0	0	359	100	
7	0	0	0	0	359	100	
8	0	0	0	0	359	100	
9	0	0	0	0	360	100	
10	0	0	0	0	360	101	
11	0	0	0	0	360	100	
12	0	0	0	0	360	101	
13	0	0	0	0	360	100	
14	0	0	0	0	359	101	
15	0	0	0	0	359	100	
0	0	0	0	0	361	100	
1	0	0	0	0	361	100	
2	0	0	0	0	362	100	
3	0	0	0	0	361	100	
4	0	0	0	0	361	101	
5	0	0	0	0	359	100	
6	0	0	0	0	359	100	
7	0	0	0	0	359	100	
8	0	0	0	0	359	100	
9	0	0	0	0	358	100	
10	0	0	0	0	358	101	
11	0	0	0	0	358	100	
12	0	0	0	0	359	101	
13	0	0	0	0	359	100	
14	0	0	0	0	361	100	
15	0	0	0	0	363	100	
0	0	0	0	0	363	100	
1	0	0	0	0	363	100	
2	0	0	0	0	364	100	
3	0	0	0	0	364	101	
4	0	0	0	0	364	100	
5	0	0	0	0	365	100	
6	0	0	0	0	366	100	
7	0	0	0	0	366	100	
8	0	0	0	0	368	100	
9	0	0	0	0	368	100	
10	0	0	0	0	369	99	
11	0	0	0	0	370	100	
12	0	0	0	0	372	100	
13	0	0	0	0	373	101	
14	0	0	0	0	374	100	
15	0	0	0	0	373	101	
0	0	0	0	0	373	99	
1	0	0	0	0	375	100	
2	0	0	0	0	376	100	
3	0	0	0	0	375	100	
4	0	0	0	0	376	100	
5	0	0	0	0	378	100	
6	0	0	0	0	378	100	
7	0	0	0	0	379	100	
8	0	0	0	0	378	100	
9	0	0	0	0	379	100	
10	0	0	0	0	379	100	
11	0	0	0	0	378	100	
12	0	0	0	0	379	100	
13	0	0	0	0	379	100	
14	0	0	0	0	379	99	
15	0	0	0	0	379	100	
0	0	0	0	0	380	99	
1	0	0	0	0	382	100	
2	0	0	0	0	382	100	
3	0	0	0	0	383	100	
4	0	0	0	0	383	100	
5	0	0	0	0	382	101	
6	0	0	0	0	380	100	
7	0	0	0	0	380	100	
8	0	0	0	0	379	100	
9	0	0	0	0	378	101	
10	0	0	0	0	378	100	
11	0	0	0	0	378	101	
12	0	0	0	0	379	100	
13	0	0	0	0	382	101	
14	0	0	0	0	384	100	
15	0	0	0	0	387	101	
0	0	0	0	0	389	101	
1	0	0	0	0	390	100	
2	0	0	0	0	391	100	
3	0	0	0	0	391	101	
4	0	0	0	0	391	100	
5	0	0	0	0	392	101	
6	0	0	0	0	395	99	
7	0	0	0	0	395	100	
8	0	0	0	0	395	99	
9	0	0	0	0	393	100	
10	0	0	0	0	393	100	
11	0	0	0	0	393	100	
12	0	0	0	0	394	100	
13	0	0	0	0	395	100	
14	0	0	0	0	396	99	
15	0	0	0	0	396	100	
0	0	0	0	0	396	99	
1	0	0	0	0	397	100	
2	0	0	0	0	398	100	
3	0	0	0	0	398	101	
4	0	0	0	0	398	100	
5	0	0	0	0	399	101	
6	0	0	0	0	399	100	
7	0	0	0	0	399	100	
8	0	0	0	0	399	100	
9	0	0	0	0	399	100	
10	0	0	0	0	399	100	
11	0	0	0	0	399	99	
12	0	0	0	0	400	100	
13	0	0	0	0	402	99	
14	0	0	0	0	402	100	
15	0	0	0	0	403	99	
0	0	0	0	0	405	100	
1	0	0	0	0	406	100	
2	0	0	0	0	407	100	
3	0	0	0	0	408	99	
4	0	0	0	0	408	100	
5	0	0	0	0	409	99	
6	0	0	0	0	411	100	
7	0	0	0	0	412	99	
8	0	0	0	0	412	100	
9	0	0	0	0	412	99	
10	0	0	0	0	412	100	
11	0	0	0	0	412	99	
12	0	0	0	0	410	101	
13	0	0	0	0	409	100	
14	0	0	0	0	408	101	
15	0	0	0	0	408	100	
0	0	0	0	0	409	99	
1	0	0	0	0	410	100	
2	0	0	0	0	410	99	
3	0	0	0	0	409	100	
4	0	0	0	0	409	100	
5	0	0	0	0	410	100	
6	0	0	0	0	411	99	
7	0	0	0	0	412	100	
8	0	0	0	0	413	99	
9	0	0	0	0	414	100	
10	0	0	0	0	415	99	
11	0	0	0	0	414	100	
12	0	0	0	0	415	99	
13	0	0	0	0	416	100	
14	0	0	0	0	416	99	
15	0	0	0	0	417	100	
0	0	0	0	0	417	99	
1	0	0	0	0	417	101	
2	0	0	0	0	416	100	
3	0	0	0	0	416	101	
4	0	0	0	0	417	100	
5	0	0	0	0	417	101	
6	0	0	0	0	416	100	
7	0	0	0	0	415	101	
8	0	0	0	0	414	100	
9	0	0	0	0	414	101	
10	0	0	0	0	415	100	
11	0	0	0	0	414	100	
12	0	0	0	0	414	100	
13	0	0	0	0	413	99	
14	0	0	0	0	413	100	
15	0	0	0	0	414	100	
0	0	0	0	0	415	100	
1	0	0	0	0	415	99	
2	0	0	0	0	417	100	
3	0	0	0	0	417	99	
4	0	0	0	0	416	101	
5	0	0	0	0	416	100	
6	0	0	0	0	415	101	
7	0	0	0	0	414	100	
8	0	0	0	0	414	100	
9	0	0	0	0	415	100	
10	0	0	0	0	415	100	
11	0	0	0	0	415	100	
12	0	0	0	0	415	101	
13	0	0	0	0	416	100	
14	0	0	0	0	417	101	
15	0	0	0	0	418	100	
0	0	0	0	0	419	100	
1	0	0	0	0	419	100	
2	0	0	0	0	420	99	
3	0	0	0	0	421	100	
4	0	0	0	0	423	100	
5	0	0	0	0	423	100	
6	0	0	0	0	424	100	
7	0	0	0	0	423	100	
8	0	0	0	0	424	100	
9	0	0	0	0	425	101	
10	0	0	0	0	427	100	
11	0	0	0	0	427	101	
12	0	0	0	0	427	100	
13	0	0	0	0	427	101	
14	0	0	0	0	427	100	
15	0	0	0	0	427	100	
0	0	0	0	0	426	100	
1	0	0	0	0	425	99	
2	0	0	0	0	424	100	
3	0	0	0	0	424	99	
4	0	0	0	0	425	100	
5	0	0	0	0	426	100	
6	0	0	0	0	428	100	
7	0	0	0	0	429	100	
8	0	0	0	0	430	100	
9	0	0	0	0	431	101	
10	0	0	0	0	433	99	
11	0	0	0	0	434	100	
12	0	0	0	0	433	99	
13	0	0	0	0	432	100	
14	0	0	0	0	431	99	
15	0	0	0	0	430	100	
0	0	0	0	0	429	99	
1	0	0	0	0	429	100	
2	0	0	0	0	428	99	
3	0	0	0	0	429	100	
4	0	0	0	0	430	99	
5	0	0	0	0	431	100	
6	0	0	0	0	432	99	
7	0	0	0	0	433	101	
8	0	0	0	0	434	99	
9	0	0	0	0	435	101	
10	0	0	0	0	435	100	
11	0	0	0	0	435	100	
12	0	0	0	0	435	100	
13	0	0	0	0	436	99	
14	0	0	0	0	437	100	
15	0	0	0	0	439	99	
0	0	0	0	0	439	100	
1	0	0	0	0	439	99	
2	0	0	0	0	438	101	
3	0	0	0	0	437	100	
4	0	0	0	0	438	101	
5	0	0	0	0	437	99	
6	0	0	0	0	439	101	
7	0	0	0	0	438	99	
8	0	0	0	0	438	100	
9	0	0	0	0	438	100	
10	0	0	0	0	437	100	
11	0	0	0	0	436	100	
12	0	0	0	0	436	100	
13	0	0	0	0	438	99	
14	0	0	0	0	439	100	
15	0	0	0	0	440	99	
0	0	0	0	0	439	101	
1	0	0	0	0	439	100	
2	0	0	0	0	439	101	
3	0	0	0	0	440	99	
4	0	0	0	0	444	100	
5	0	0	0	0	448	99	
6	0	0	0	0	450	100	
7	0	0	0	0	450	99	
8	0	0	0	0	450	100	
9	0	0	0	0	451	99	
10	0	0	0	0	451	100	
11	0	0	0	0	450	99	
12	0	0	0	0	449	101	
13	0	0	0	0	448	100	
14	0	0	0	0	447	101	
15	0	0	0	0	447	100	
0	0	0	0	0	446	100	
1	0	0	0	0	446	99	
2	0	0	0	0	446	101	
3	0	0	0	0	446	99	
4	0	0	0	0	447	101	
5	0	0	0	0	447	100	
6	0	0	0	0	448	100	
7	0	0	0	0	448	100	
8	0	0	0	0	450	99	
9	0	0	0	0	451	100	
10	0	0	0	0	451	99	
11	0	0	0	0	452	100	
12	0	0	0	0	454	99	
13	0	0	0	0	455	101	
14	0	0	0	0	454	100	
15	0	0	0	0	454	101	
0	0	0	0	0	454	100	
1	0	0	0	0	455	99	
2	0	0	0	0	454	100	
3	0	0	0	0	453	99	
4	0	0	0	0	453	100	
5	0	0	0	0	453	99	
6	0	0	0	0	453	101	
7	0	0	0	0	451	100	
8	0	0	0	0	453	101	
9	0	0	0	0	453	100	
10	0	0	0	0	452	100	
11	0	0	0	0	454	100	
12	0	0	0	0	452	100	
13	0	0	0	0	451	100	
14	0	0	0	0	451	99	
15	0	0	0	0	451	100	
0	0	0	0	0	452	99	
1	0	0	0	0	453	100	
2	0	0	0	0	454	99	
3	0	0	0	0	454	100	
4	0	0	0	0	453	100	
5	0	0	0	0	454	100	
6	0	0	0	0	453	99	
7	0	0	0	0	452	100	
8	0	0	0	0	452	99	
9	0	0	0	0	453	100	
10	0	0	0	0	452	99	
11	0	0	0	0	452	101	
12	0	0	0	0	452	100	
13	0	0	0	0	452	100	
14	0	0	0	0	453	100	
15	0	0	0	0	454	99	
0	0	0	0	0	454	101	
1	0	0	0	0	454	99	
2	0	0	0	0	453	100	
3	0	0	0	0	452	100	
4	0	0	0	0	451	100	
5	0	0	0	0	451	100	
6	0	0	0	0	451	100	
7	0	0	0	0	452	100	
8	0	0	0	0	451	99	
9	0	0	0	0	450	100	
10	0	0	0	0	450	99	
11	0	0	0	0	451	101	
12	0	0	0	0	451	99	
13	0	0	0	0	450	101	
14	0	0	0	0	448	100	
15	0	0	0	0	447	101	
0	0	0	0	0	447	99	
1	0	0	0	0	448	101	
2	0	0	0	0	449	100	
3	0	0	0	0	449	101	
4	0	0	0	0	449	100	
5	0	0	0	0	449	101	
6	0	0	0	0	450	100	
7	0	0	0	0	451	101	
8	0	0	0	0	452	100	
9	0	0	0	0	455	101	
10	0	0	0	0	456	100	
11	0	0	0	0	457	100	
12	0	0	0	0	459	100	
13	0	0	0	0	460	99	
14	0	0	0	0	460	100	
15	0	0	0	0	460	99	
0	0	0	0	0	460	100	
1	0	0	0	0	460	99	
2	0	0	0	0	459	101	
3	0	0	0	0	460	99	
4	0	0	0	0	460	101	
5	0	0	0	0	461	99	
6	0	0	0	0	461	101	
7	0	0	0	0	462	100	
8	0	0	0	0	463	100	
9	0	0	0	0	464	100	
10	0	0	0	0	465	99	
11	0	0	0	0	465	100	
12	0	0	0	0	464	99	
13	0	0	0	0	463	100	
14	0	0	0	0	462	99	
15	0	0	0	0	462	100	
0	0	0	0	0	462	99	
1	0	0	0	0	462	100	
2	0	0	0	0	463	99	
3	0	0	0	0	463	100	
4	0	0	0	0	464	99	
5	0	0	0	0	465	100	
6	0	0	0	0	465	99	
7	0	0	0	0	463	101	
8	0	0	0	0	463	99	
9	0	0	0	0	463	101	
10	0	0	0	0	462	100	
11	0	0	0	0	461	100	
12	0	0	0	0	461	100	
13	0	0	0	0	460	99	
14	0	0	0	0	460	100	
15	0	0	0	0	462	99	
0	0	0	0	0	463	101	
1	0	0	0	0	465	99	
2	0	0	0	0	466	101	
3	0	0	0	0	465	99	
4	0	0	0	0	464	101	
5	0	0	0	0	465	100	
6	0	0	0	0	466	100	
7	0	0	0	0	464	100	
8	0	0	0	0	463	100	
9	0	0	0	0	463	100	
10	0	0	0	0	464	100	
11	0	0	0	0	465	100	
12	0	0	0	0	465	100	
13	0	0	0	0	465	100	
14	0	0	0	0	466	100	
15	0	0	0	0	467	100	
0	0	0	0	0	467	99	
1	0	0	0	0	467	100	
2	0	0	0	0	468	99	
3	0	0	0	0	469	100	
4	0	0	0	0	470	100	
5	0	0	0	0	470	101	
6	0	0	0	0	468	100	
7	0	0	0	0	466	100	
8	0	0	0	0	464	100	
9	0	0	0	0	463	100	
10	0	0	0	0	462	100	
11	0	0	0	0	460	100	
12	0	0	0	0	459	101	
13	0	0	0	0	459	99	
14	0	0	0	0	460	101	
15	0	0	0	0	460	100	
0	0	0	0	0	460	101	
1	0	0	0	0	460	99	
2	0	0	0	0	460	101	
3	0	0	0	0	461	99	
4	0	0	0	0	461	101	
5	0	0	0	0	462	100	
6	0	0	0	0	462	100	
7	0	0	0	0	463	100	
8	0	0	0	0	463	101	
9	0	0	0	0	465	100	
10	0	0	0	0	465	100	
11	0	0	0	0	466	100	
12	0	0	0	0	466	100	
13	0	0	0	0	467	101	
14	0	0	0	0	468	99	
15	0	0	0	0	469	100	
0	0	0	0	0	470	101	
1	0	0	0	0	471	100	
2	0	0	0	0	472	100	
3	0	0	0	0	472	100	
4	0	0	0	0	472	99	
5	0	0	0	0	471	100	
6	0	0	0	0	469	99	
7	0	0	0	0	468	101	
8	0	0	0	0	465	99	
9	0	0	0	0	463	101	
10	0	0	0	0	461	99	
11	0	0	0	0	461	101	
12	0	0	0	0	460	100	
13	0	0	0	0	460	101	
14	0	0	0	0	461	100	
15	0	0	0	0	463	100	
0	0	0	0	0	463	100	
1	0	0	0	0	464	99	
2	0	0	0	0	465	100	
3	0	0	0	0	467	99	
4	0	0	0	0	468	100	
5	0	0	0	0	469	99	
6	0	0	0	0	468	101	
7	0	0	0	0	468	99	
8	0	0	0	0	467	101	
9	0	0	0	0	465	100	
10	0	0	0	0	464	101	
11	0	0	0	0	464	99	
12	0	0	0	0	465	101	
13	0	0	0	0	465	100	
14	0	0	0	0	465	101	
15	0	0	0	0	467	100	
0	0	0	0	0	470	101	
1	0	0	0	0	472	100	
2	0	0	0	0	473	100	
3	0	0	0	0	472	100	
4	0	0	0	0	470	101	
5	0	0	0	0	467	100	
6	0	0	0	0	466	101	
7	0	0	0	0	466	100	
8	0	0	0	0	465	100	
9	0	0	0	0	464	100	
10	0	0	0	0	464	99	
11	0	0	0	0	465	101	
12	0	0	0	0	465	99	
13	0	0	0	0	464	100	
14	0	0	0	0	462	99	
15	0	0	0	0	461	101	
0	0	0	0	0	460	99	
1	0	0	0	0	460	100	
2	0	0	0	0	462	101	
3	0	0	0	0	463	100	
4	0	0	0	0	461	101	
5	0	0	0	0	460	99	
6	0	0	0	0	460	101	
7	0	0	0	0	459	99	
8	0	0	0	0	456	101	
9	0	0	0	0	454	100	
10	0	0	0	0	450	101	
11	0	0	0	0	448	100	
12	0	0	0	0	447	101	
13	0	0	0	0	446	100	
14	0	0	0	0	444	100	
15	0	0	0	0	444	100	
0	0	0	0	0	443	99	
1	0	0	0	0	444	101	
2	0	0	0	0	446	99	
3	0	0	0	0	447	101	
4	0	0	0	0	447	100	
5	0	0	0	0	448	101	
6	0	0	0	0	447	100	
7	0	0	0	0	447	101	
8	0	0	0	0	446	99	
9	0	0	0	0	446	100	
10	0	0	0	0	447	100	
11	0	0	0	0	447	100	
12	0	0	0	0	448	100	
13	0	0	0	0	449	100	
14	0	0	0	0	450	100	
15	0	0	0	0	449	100	
0	0	0	0	0	449	100	
1	0	0	0	0	451	100	
2	0	0	0	0	450	100	
3	0	0	0	0	449	100	
4	0	0	0	0	449	101	
5	0	0	0	0	448	100	
6	0	0	0	0	447	100	
7	0	0	0	0	447	101	
8	0	0	0	0	446	99	
9	0	0	0	0	446	101	
10	0	0	0	0	445	99	
11	0	0	0	0	443	101	
12	0	0	0	0	442	99	
13	0	0	0	0	443	101	
14	0	0	0	0	444	100	
15	0	0	0	0	444	101	
0	0	0	0	0	444	100	
1	0	0	0	0	444	100	
2	0	0	0	0	444	101	
3	0	0	0	0	444	100	
4	0	0	0	0	444	100	
5	0	0	0	0	444	100	
6	0	0	0	0	443	100	
7	0	0	0	0	444	101	
8	0	0	0	0	444	99	
9	0	0	0	0	445	101	
10	0	0	0	0	444	99	
11	0	0	0	0	444	101	
12	0	0	0	0	444	100	
13	0	0	0	0	446	101	
14	0	0	0	0	448	100	
15	0	0	0	0	448	101	
0	0	0	0	0	448	100	
1	0	0	0	0	447	100	
2	0	0	0	0	448	100	
3	0	0	0	0	449	100	
4	0	0	0	0	451	100	
5	0	0	0	0	451	101	
6	0	0	0	0	451	100	
7	0	0	0	0	449	101	
8	0	0	0	0	448	100	
9	0	0	0	0	447	101	
10	0	0	0	0	445	100	
11	0	0	0	0	444	100	
12	0	0	0	0	442	101	
13	0	0	0	0	441	99	
14	0	0	0	0	441	101	
15	0	0	0	0	440	99	
0	0	0	0	0	439	101	
1	0	0	0	0	440	100	
2	0	0	0	0	442	101	
3	0	0	0	0	446	99	
4	0	0	0	0	451	101	
5	0	0	0	0	457	99	
6	0	0	0	0	467	101	
7	0	0	0	0	479	99	
8	0	0	0	0	491	101	
9	0	0	0	0	504	99	
10	0	0	0	0	516	101	
11	0	0	0	0	529	99	
12	0	0	0	0	540	100	
13	0	0	0	0	552	99	
14	0	0	0	0	562	101	
15	0	0	0	0	569	99	
0	0	0	0	0	575	100	
1	0	0	0	0	579	99	
2	0	0	0	0	584	100	
3	0	0	0	0	589	99	
4	0	0	0	0	591	100	
5	0	0	0	0	593	99	
6	0	0	0	0	595	100	
7	0	0	0	0	595	99	
8	0	0	0	0	596	100	
9	0	0	0	0	595	99	
10	0	0	0	0	594	100	
11	0	0	0	0	591	100	
12	0	0	0	0	587	100	
13	0	0	0	0	579	100	
14	0	0	0	0	569	100	
15	0	0	0	0	561	99	
0	0	0	0	0	553	100	
1	0	0	0	0	543	100	
2	0	0	0	0	534	100	
3	0	0	0	0	526	101	
4	0	0	0	0	519	100	
5	0	0	0	0	510	100	
6	0	0	0	0	499	100	
7	0	0	0	0	489	100	
8	0	0	0	0	479	100	
9	0	0	0	0	467	100	
10	0	0	0	0	454	101	
11	0	0	0	0	443	101	
12	0	0	0	0	432	100	
13	0	0	0	0	424	101	
14	0	0	0	0	418	100	
15	0	0	0	0	414	101	
0	0	0	0	0	410	100	
1	0	0	0	0	408	101	
2	0	0	0	0	408	100	
3	0	0	0	0	406	101	
4	0	0	0	0	405	100	
5	0	0	0	0	406	101	
6	0	0	0	0	407	101	
7	0	0	0	0	408	100	
8	0	0	0	0	410	101	
9	0	0	0	0	414	100	
10	0	0	0	0	417	101	
11	0	0	0	0	419	100	
12	0	0	0	0	422	101	
13	0	0	0	0	425	100	
14	0	0	0	0	429	101	
15	0	0	0	0	430	100	
0	0	0	0	0	432	101	
1	0	0	0	0	433	100	
2	0	0	0	0	434	101	
3	0	0	0	0	435	100	
4	0	0	0	0	435	101	
5	0	0	0	0	435	100	
6	0	0	0	0	434	101	
7	0	0	0	0	436	100	
8	0	0	0	0	437	101	
9	0	0	0	0	436	100	
10	0	0	0	0	437	101	
11	0	0	0	0	437	100	
12	0	0	0	0	438	101	
13	0	0	0	0	437	100	
14	0	0	0	0	436	101	
15	0	0	0	0	436	100	
0	0	0	0	0	437	101	
1	0	0	0	0	438	100	
2	0	0	0	0	438	101	
3	0	0	0	0	437	101	
4	0	0	0	0	438	100	
5	0	0	0	0	437	101	
6	0	0	0	0	436	100	
7	0	0	0	0	437	101	
8	0	0	0	0	438	100	
9	0	0	0	0	439	101	
10	0	0	0	0	442	100	
11	0	0	0	0	444	101	
12	0	0	0	0	446	100	
13	0	0	0	0	446	101	
14	0	0	0	0	447	100	
15	0	0	0	0	449	101	
0	0	0	0	0	450	100	
1	0	0	0	0	450	101	
2	0	0	0	0	449	101	
3	0	0	0	0	449	101	
4	0	0	0	0	448	100	
5	0	0	0	0	448	101	
6	0	0	0	0	448	101	
7	0	0	0	0	449	101	
8	0	0	0	0	450	100	
9	0	0	0	0	451	101	
10	0	0	0	0	452	100	
11	0	0	0	0	453	101	
12	0	0	0	0	454	101	
13	0	0	0	0	454	100	
14	0	0	0	0	455	101	
15	0	0	0	0	455	100	
0	0	0	0	0	456	101	
1	0	0	0	0	456	100	
2	0	0	0	0	456	100	
3	0	0	0	0	457	101	
4	0	0	0	0	457	100	
5	0	0	0	0	458	101	
6	0	0	0	0	458	100	
7	0	0	0	0	457	101	
8	0	0	0	0	456	100	
9	0	0	0	0	455	101	
10	0	0	0	0	456	100	
11	0	0	0	0	456	101	
12	0	0	0	0	455	100	
13	0	0	0	0	455	101	
14	0	0	0	0	457	100	
15	0	0	0	0	459	101	
0	0	0	0	0	460	100	
1	0	0	0	0	460	101	
2	0	0	0	0	461	100	
3	0	0	0	0	461	101	
4	0	0	0	0	462	100	
5	0	0	0	0	461	101	
6	0	0	0	0	462	100	
7	0	0	0	0	462	101	
8	0	0	0	0	463	100	
9	0	0	0	0	463	100	
10	0	0	0	0	464	101	
11	0	0	0	0	464	100	
12	0	0	0	0	464	101	
13	0	0	0	0	463	100	
14	0	0	0	0	465	101	
15	0	0	0	0	466	100	
0	0	0	0	0	467	101	
1	0	0	0	0	470	100	
2	0	0	0	0	472	101	
3	0	0	0	0	473	100	
4	0	0	0	0	473	101	
5	0	0	0	0	473	100	
6	0	0	0	0	474	101	
7	0	0	0	0	476	100	
8	0	0	0	0	477	101	
9	0	0	0	0	479	100	
10	0	0	0	0	480	101	
11	0	0	0	0	482	100	
12	0	0	0	0	483	101	
13	0	0	0	0	485	100	
14	0	0	0	0	487	101	
15	0	0	0	0	489	100	
0	0	0	0	0	490	101	
1	0	0	0	0	489	101	
2	0	0	0	0	488	100	
3	0	0	0	0	488	101	
4	0	0	0	0	486	100	
5	0	0	0	0	484	101	
6	0	0	0	0	483	100	
7	0	0	0	0	482	101	
8	0	0	0	0	482	100	
9	0	0	0	0	482	101	
10	0	0	0	0	482	100	
11	0	0	0	0	481	101	
12	0	0	0	0	482	100	
13	0	0	0	0	483	102	
14	0	0	0	0	483	100	
15	0	0	0	0	485	101	
0	0	0	0	0	487	100	
1	0	0	0	0	489	101	
2	0	0	0	0	490	100	
3	0	0	0	0	491	102	
4	0	0	0	0	491	100	
5	0	0	0	0	491	101	
6	0	0	0	0	491	101	
7	0	0	0	0	492	100	
8	0	0	0	0	492	101	
9	0	0	0	0	492	100	
10	0	0	0	0	493	101	
11	0	0	0	0	493	100	
12	0	0	0	0	494	101	
13	0	0	0	0	496	100	
14	0	0	0	0	497	102	
15	0	0	0	0	500	100	
0	0	0	0	0	501	101	
1	0	0	0	0	502	100	
2	0	0	0	0	504	101	
3	0	0	0	0	505	101	
4	0	0	0	0	505	99	
5	0	0	0	0	504	101	
6	0	0	0	0	504	99	
7	0	0	0	0	501	101	
8	0	0	0	0	499	100	
9	0	0	0	0	498	101	
10	0	0	0	0	497	100	
11	0	0	0	0	497	101	
12	0	0	0	0	498	100	
13	0	0	0	0	500	101	
14	0	0	0	0	503	100	
15	0	0	0	0	504	101	
0	0	0	0	0	505	101	
1	0	0	0	0	508	102	
2	0	0	0	0	508	100	
3	0	0	0	0	510	102	
4	0	0	0	0	511	100	
5	0	0	0	0	512	101	
6	0	0	0	0	512	100	
7	0	0	0	0	513	101	
8	0	0	0	0	512	100	
9	0	0	0	0	512	101	
10	0	0	0	0	512	101	
11	0	0	0	0	514	99	
12	0	0	0	0	515	101	
13	0	0	0	0	514	99	
14	0	0	0	0	514	101	
15	0	0	0	0	515	100	
0	0	0	0	0	515	101	
1	0	0	0	0	516	100	
2	0	0	0	0	515	101	
3	0	0	0	0	515	100	
4	0	0	0	0	518	101	
5	0	0	0	0	521	100	
6	0	0	0	0	523	101	
7	0	0	0	0	525	100	
8	0	0	0	0	526	101	
9	0	0	0	0	527	100	
10	0	0	0	0	528	101	
11	0	0	0	0	530	101	
12	0	0	0	0	532	100	
13	0	0	0	0	534	101	
14	0	0	0	0	535	100	
15	0	0	0	0	536	101	
0	0	0	0	0	536	100	
1	0	0	0	0	537	101	
2	0	0	0	0	538	100	
3	0	0	0	0	540	101	
4	0	0	0	0	539	99	
5	0	0	0	0	538	101	
6	0	0	0	0	539	99	
7	0	0	0	0	540	101	
8	0	0	0	0	540	100	
9	0	0	0	0	540	101	
10	0	0	0	0	540	100	
11	0	0	0	0	541	101	
12	0	0	0	0	542	100	
13	0	0	0	0	543	101	
14	0	0	0	0	546	100	
15	0	0	0	0	548	101	
0	0	0	0	0	549	100	
1	0	0	0	0	550	101	
2	0	0	0	0	550	101	
3	0	0	0	0	551	101	
4	0	0	0	0	549	101	
5	0	0	0	0	548	100	
6	0	0	0	0	547	101	
7	0	0	0	0	547	99	
8	0	0	0	0	546	101	
9	0	0	0	0	546	99	
10	0	0	0	0	547	101	
11	0	0	0	0	548	99	
12	0	0	0	0	550	101	
13	0	0	0	0	551	99	
14	0	0	0	0	551	101	
15	0	0	0	0	551	100	
0	0	0	0	0	550	101	
1	0	0	0	0	550	100	
2	0	0	0	0	551	102	
3	0	0	0	0	554	100	
4	0	0	0	0	558	102	
5	0	0	0	0	562	100	
6	0	0	0	0	565	101	
7	0	0	0	0	568	100	
8	0	0	0	0	568	101	
9	0	0	0	0	568	100	
10	0	0	0	0	569	101	
11	0	0	0	0	571	101	
12	0	0	0	0	572	101	
13	0	0	0	0	571	101	
14	0	0	0	0	570	101	
15	0	0	0	0	568	101	
0	0	0	0	0	567	100	
1	0	0	0	0	567	101	
2	0	0	0	0	566	100	
3	0	0	0	0	566	101	
4	0	0	0	0	565	99	
5	0	0	0	0	565	101	
6	0	0	0	0	564	99	
7	0	0	0	0	564	101	
8	0	0	0	0	562	100	
9	0	0	0	0	560	101	
10	0	0	0	0	559	99	
11	0	0	0	0	559	101	
12	0	0	0	0	560	99	
13	0	0	0	0	562	101	
14	0	0	0	0	561	99	
15	0	0	0	0	561	101	
0	0	0	0	0	560	101	
1	0	0	0	0	559	100	
2	0	0	0	0	559	101	
3	0	0	0	0	558	99	
4	0	0	0	0	557	101	
5	0	0	0	0	555	99	
6	0	0	0	0	553	101	
7	0	0	0	0	553	99	
8	0	0	0	0	552	101	
9	0	0	0	0	551	99	
10	0	0	0	0	551	101	
11	0	0	0	0	550	99	
12	0	0	0	0	549	101	
13	0	0	0	0	548	99	
14	0	0	0	0	547	101	
15	0	0	0	0	547	100	
0	0	0	0	0	545	101	
1	0	0	0	0	544	99	
2	0	0	0	0	543	101	
3	0	0	0	0	542	99	
4	0	0	0	0	540	101	
5	0	0	0	0	540	99	
6	0	0	0	0	539	101	
7	0	0	0	0	537	99	
8	0	0	0	0	538	101	
9	0	0	0	0	538	99	
10	0	0	0	0	537	101	
11	0	0	0	0	535	100	
12	0	0	0	0	532	101	
13	0	0	0	0	530	100	
14	0	0	0	0	528	101	
15	0	0	0	0	525	100	
0	0	0	0	0	523	101	
1	0	0	0	0	520	100	
2	0	0	0	0	519	101	
3	0	0	0	0	517	101	
4	0	0	0	0	515	101	
5	0	0	0	0	514	100	
6	0	0	0	0	512	101	
7	0	0	0	0	511	101	
8	0	0	0	0	510	101	
9	0	0	0	0	509	101	
10	0	0	0	0	509	100	
11	0	0	0	0	507	101	
12	0	0	0	0	504	102	
13	0	0	0	0	502	101	
14	0	0	0	0	500	101	
15	0	0	0	0	498	100	
0	0	0	0	0	497	102	
1	0	0	0	0	496	101	
2	0	0	0	0	496	101	
3	0	0	0	0	495	101	
4	0	0	0	0	495	101	
5	0	0	0	0	495	101	
6	0	0	0	0	495	102	
7	0	0	0	0	496	101	
8	0	0	0	0	496	100	
9	0	0	0	0	494	101	
10	0	0	0	0	491	100	
11	0	0	0	0	488	101	
12	0	0	0	0	486	100	
13	0	0	0	0	484	101	
14	0	0	0	0	483	100	
15	0	0	0	0	481	101	
0	0	0	0	0	481	100	
1	0	0	0	0	479	101	
2	0	0	0	0	478	100	
3	0	0	0	0	479	101	
4	0	0	0	0	480	100	
5	0	0	0	0	481	101	
6	0	0	0	0	482	100	
7	0	0	0	0	483	101	
8	0	0	0	0	483	100	
9	0	0	0	0	483	101	
10	0	0	0	0	484	100	
11	0	0	0	0	486	101	
12	0	0	0	0	487	100	
13	0	0	0	0	488	101	
14	0	0	0	0	488	100	
15	0	0	0	0	487	101	
0	0	0	0	0	488	100	
1	0	0	0	0	489	101	
2	0	0	0	0	490	100	
3	0	0	0	0	490	102	
4	0	0	0	0	489	101	
5	0	0	0	0	490	102	
6	0	0	0	0	491	101	
7	0	0	0	0	492	101	
8	0	0	0	0	492	101	
9	0	0	0	0	492	100	
10	0	0	0	0	493	101	
11	0	0	0	0	493	100	
12	0	0	0	0	493	101	
13	0	0	0	0	492	100	
14	0	0	0	0	492	101	
15	0	0	0	0	493	100	
0	0	0	0	0	493	101	
1	0	0	0	0	494	100	
2	0	0	0	0	494	102	
3	0	0	0	0	493	101	
4	0	0	0	0	493	102	
5	0	0	0	0	494	101	
6	0	0	0	0	495	101	
7	0	0	0	0	496	101	
8	0	0	0	0	497	100	
9	0	0	0	0	497	101	
10	0	0	0	0	497	100	
11	0	0	0	0	497	101	
12	0	0	0	0	497	102	
13	0	0	0	0	496	100	
14	0	0	0	0	496	102	
15	0	0	0	0	496	100	
0	0	0	0	0	496	102	
1	0	0	0	0	497	100	
2	0	0	0	0	497	102	
3	0	0	0	0	497	100	
4	0	0	0	0	497	102	
5	0	0	0	0	497	100	
6	0	0	0	0	498	101	
7	0	0	0	0	498	100	
8	0	0	0	0	498	101	
9	0	0	0	0	498	101	
10	0	0	0	0	499	101	
11	0	0	0	0	499	101	
12	0	0	0	0	498	101	
13	0	0	0	0	497	102	
14	0	0	0	0	496	100	
15	0	0	0	0	496	102	
0	0	0	0	0	496	100	
1	0	0	0	0	497	102	
2	0	0	0	0	499	100	
3	0	0	0	0	500	101	
4	0	0	0	0	502	100	
5	0	0	0	0	503	101	
6	0	0	0	0	504	100	
7	0	0	0	0	505	101	
8	0	0	0	0	507	100	
9	0	0	0	0	507	101	
10	0	0	0	0	505	100	
11	0	0	0	0	504	100	
12	0	0	0	0	502	102	
13	0	0	0	0	500	100	
14	0	0	0	0	502	102	
15	0	0	0	0	502	100	
0	0	0	0	0	502	102	
1	0	0	0	0	501	100	
2	0	0	0	0	500	101	
3	0	0	0	0	499	100	
4	0	0	0	0	498	101	
5	0	0	0	0	497	100	
6	0	0	0	0	497	101	
7	0	0	0	0	496	100	
8	0	0	0	0	496	101	
9	0	0	0	0	496	101	
10	0	0	0	0	496	101	
11	0	0	0	0	497	102	
12	0	0	0	0	497	100	
13	0	0	0	0	497	102	
14	0	0	0	0	497	100	
15	0	0	0	0	497	102	
0	0	0	0	0	496	100	
1	0	0	0	0	495	102	
2	0	0	0	0	495	100	
3	0	0	0	0	495	102	
4	0	0	0	0	495	101	
5	0	0	0	0	495	101	
6	0	0	0	0	495	101	
7	0	0	0	0	494	100	
8	0	0	0	0	494	101	
9	0	0	0	0	494	100	
10	0	0	0	0	493	102	
11	0	0	0	0	493	100	
12	0	0	0	0	492	102	
13	0	0	0	0	493	100	
14	0	0	0	0	492	102	
15	0	0	0	0	491	101	
0	0	0	0	0	491	101	
1	0	0	0	0	491	101	
2	0	0	0	0	491	101	
3	0	0	0	0	491	101	
4	0	0	0	0	492	100	
5	0	0	0	0	493	101	
6	0	0	0	0	492	100	
7	0	0	0	0	493	101	
8	0	0	0	0	494	100	
9	0	0	0	0	494	102	
10	0	0	0	0	494	100	
11	0	0	0	0	494	102	
12	0	0	0	0	496	101	
13	0	0	0	0	497	100	
14	0	0	0	0	497	101	
15	0	0	0	0	496	102	
0	0	0	0	0	493	100	
1	0	0	0	0	490	102	
2	0	0	0	0	488	101	
3	0	0	0	0	487	102	
4	0	0	0	0	486	101	
5	0	0	0	0	486	101	
6	0	0	0	0	486	101	
7	0	0	0	0	487	102	
8	0	0	0	0	488	101	
9	0	0	0	0	488	102	
10	0	0	0	0	489	101	
11	0	0	0	0	488	102	
12	0	0	0	0	488	100	
13	0	0	0	0	489	102	
14	0	0	0	0	488	100	
15	0	0	0	0	488	102	
0	0	0	0	0	488	100	
1	0	0	0	0	487	102	
2	0	0	0	0	486	100	
3	0	0	0	0	485	102	
4	0	0	0	0	484	100	
5	0	0	0	0	483	102	
6	0	0	0	0	481	100	
7	0	0	0	0	480	102	
8	0	0	0	0	480	101	
9	0	0	0	0	479	101	
10	0	0	0	0	476	101	
11	0	0	0	0	475	100	
12	0	0	0	0	475	101	
13	0	0	0	0	474	102	
14	0	0	0	0	472	100	
15	0	0	0	0	472	102	
0	0	0	0	0	472	100	
1	0	0	0	0	471	102	
2	0	0	0	0	471	101	
3	0	0	0	0	471	101	
4	0	0	0	0	471	102	
5	0	0	0	0	471	100	
6	0	0	0	0	471	102	
7	0	0	0	0	472	100	
8	0	0	0	0	472	102	
9	0	0	0	0	472	100	
10	0	0	0	0	471	101	
11	0	0	0	0	470	102	
12	0	0	0	0	469	100	
13	0	0	0	0	468	102	
14	0	0	0	0	467	100	
15	0	0	0	0	467	102	
0	0	0	0	0	466	101	
1	0	0	0	0	465	102	
2	0	0	0	0	463	100	
3	0	0	0	0	463	102	
4	0	0	0	0	463	101	
5	0	0	0	0	463	102	
6	0	0	0	0	464	101	
7	0	0	0	0	465	102	
8	0	0	0	0	465	101	
9	0	0	0	0	464	101	
10	0	0	0	0	464	101	
11	0	0	0	0	465	101	
12	0	0	0	0	465	101	
13	0	0	0	0	465	102	
14	0	0	0	0	465	101	
15	0	0	0	0	464	101	
0	0	0	0	0	463	102	
1	0	0	0	0	463	100	
2	0	0	0	0	463	102	
3	0	0	0	0	463	100	
4	0	0	0	0	463	102	
5	0	0	0	0	462	100	
6	0	0	0	0	462	102	
7	0	0	0	0	461	100	
8	0	0	0	0	462	102	
9	0	0	0	0	463	100	
10	0	0	0	0	464	102	
11	0	0	0	0	466	100	
12	0	0	0	0	468	102	
13	0	0	0	0	470	100	
14	0	0	0	0	471	101	
15	0	0	0	0	471	101	
0	0	0	0	0	473	101	
1	0	0	0	0	473	101	
2	0	0	0	0	474	101	
3	0	0	0	0	475	101	
4	0	0	0	0	475	102	
5	0	0	0	0	474	100	
6	0	0	0	0	473	102	
7	0	0	0	0	472	100	
8	0	0	0	0	473	102	
9	0	0	0	0	474	100	
10	0	0	0	0	475	102	
11	0	0	0	0	476	101	
12	0	0	0	0	479	100	
13	0	0	0	0	480	102	
14	0	0	0	0	480	100	
15	0	0	0	0	480	102	
0	0	0	0	0	479	100	
1	0	0	0	0	478	102	
2	0	0	0	0	477	100	
3	0	0	0	0	476	102	
4	0	0	0	0	474	101	
5	0	0	0	0	472	102	
6	0	0	0	0	472	100	
7	0	0	0	0	473	102	
8	0	0	0	0	473	100	
9	0	0	0	0	473	102	
10	0	0	0	0	474	100	
11	0	0	0	0	475	102	
12	0	0	0	0	476	101	
13	0	0	0	0	476	102	
14	0	0	0	0	476	101	
15	0	0	0	0	478	101	
0	0	0	0	0	478	101	
1	0	0	0	0	480	100	
2	0	0	0	0	480	102	
3	0	0	0	0	482	100	
4	0	0	0	0	483	102	
5	0	0	0	0	484	100	
6	0	0	0	0	484	102	
7	0	0	0	0	485	101	
8	0	0	0	0	485	102	
9	0	0	0	0	485	101	
10	0	0	0	0	485	100	
11	0	0	0	0	485	102	
12	0	0	0	0	485	100	
13	0	0	0	0	484	102	
14	0	0	0	0	484	100	
15	0	0	0	0	485	102	
0	0	0	0	0	485	100	
1	0	0	0	0	484	102	
2	0	0	0	0	485	101	
3	0	0	0	0	485	101	
4	0	0	0	0	486	101	
5	0	0	0	0	487	100	
6	0	0	0	0	489	102	
7	0	0	0	0	489	100	
8	0	0	0	0	489	102	
9	0	0	0	0	488	100	
10	0	0	0	0	487	102	
11	0	0	0	0	488	100	
12	0	0	0	0	489	102	
13	0	0	0	0	492	100	
14	0	0	0	0	492	102	
15	0	0	0	0	493	100	
0	0	0	0	0	493	102	
1	0	0	0	0	495	100	
2	0	0	0	0	497	102	
3	0	0	0	0	499	100	
4	0	0	0	0	499	102	
5	0	0	0	0	498	101	
6	0	0	0	0	498	100	
7	0	0	0	0	497	102	
8	0	0	0	0	497	100	
9	0	0	0	0	498	102	
10	0	0	0	0	498	100	
11	0	0	0	0	499	102	
12	0	0	0	0	499	100	
13	0	0	0	0	499	102	
14	0	0	0	0	499	100	
15	0	0	0	0	499	102	
0	0	0	0	0	499	100	
1	0	0	0	0	500	102	
2	0	0	0	0	501	100	
3	0	0	0	0	501	102	
4	0	0	0	0	502	100	
5	0	0	0	0	503	102	
6	0	0	0	0	503	101	
7	0	0	0	0	503	101	
8	0	0	0	0	504	101	
9	0	0	0	0	505	101	
10	0	0	0	0	505	101	
11	0	0	0	0	506	100	
12	0	0	0	0	506	101	
13	0	0	0	0	505	100	
14	0	0	0	0	504	102	
15	0	0	0	0	503	100	
0	0	0	0	0	503	102	
1	0	0	0	0	503	100	
2	0	0	0	0	503	102	
3	0	0	0	0	504	100	
4	0	0	0	0	504	102	
5	0	0	0	0	504	100	
6	0	0	0	0	505	102	
7	0	0	0	0	506	101	
8	0	0	0	0	507	102	
9	0	0	0	0	507	101	
10	0	0	0	0	507	101	
11	0	0	0	0	508	101	
12	0	0	0	0	508	101	
13	0	0	0	0	507	102	
14	0	0	0	0	507	100	
15	0	0	0	0	508	102	
0	0	0	0	0	508	100	
1	0	0	0	0	508	102	
2	0	0	0	0	508	100	
3	0	0	0	0	508	102	
4	0	0	0	0	508	101	
5	0	0	0	0	508	101	
6	0	0	0	0	507	101	
7	0	0	0	0	506	101	
8	0	0	0	0	504	101	
9	0	0	0	0	505	100	
10	0	0	0	0	504	102	
11	0	0	0	0	504	100	
12	0	0	0	0	506	102	
13	0	0	0	0	507	100	
14	0	0	0	0	507	102	
15	0	0	0	0	507	100	
0	0	0	0	0	506	102	
1	0	0	0	0	504	100	
2	0	0	0	0	504	102	
3	0	0	0	0	504	101	
4	0	0	0	0	503	100	
5	0	0	0	0	504	102	
6	0	0	0	0	503	100	
7	0	0	0	0	503	102	
8	0	0	0	0	504	100	
9	0	0	0	0	504	102	
10	0	0	0	0	504	100	
11	0	0	0	0	504	102	
12	0	0	0	0	504	101	
13	0	0	0	0	504	102	
14	0	0	0	0	505	100	
15	0	0	0	0	505	102	
0	0	0	0	0	505	100	
1	0	0	0	0	506	102	
2	0	0	0	0	508	100	
3	0	0	0	0	509	102	
4	0	0	0	0	511	100	
5	0	0	0	0	512	102	
6	0	0	0	0	514	100	
7	0	0	0	0	514	102	
8	0	0	0	0	513	100	
9	0	0	0	0	513	102	
10	0	0	0	0	512	100	
11	0	0	0	0	512	102	
12	0	0	0	0	510	100	
13	0	0	0	0	510	102	
14	0	0	0	0	510	100	
15	0	0	0	0	508	102	
0	0	0	0	0	508	101	
1	0	0	0	0	510	102	
2	0	0	0	0	512	100	
3	0	0	0	0	512	102	
4	0	0	0	0	513	100	
5	0	0	0	0	516	102	
6	0	0	0	0	518	100	
7	0	0	0	0	519	101	
8	0	0	0	0	521	101	
9	0	0	0	0	523	101	
10	0	0	0	0	523	102	
11	0	0	0	0	522	100	
12	0	0	0	0	521	102	
13	0	0	0	0	521	100	
14	0	0	0	0	521	102	
15	0	0	0	0	521	100	
0	0	0	0	0	522	102	
1	0	0	0	0	522	100	
2	0	0	0	0	521	102	
3	0	0	0	0	522	100	
4	0	0	0	0	523	102	
5	0	0	0	0	524	100	
6	0	0	0	0	525	102	
7	0	0	0	0	524	100	
8	0	0	0	0	524	102	
9	0	0	0	0	525	100	
10	0	0	0	0	524	102	
11	0	0	0	0	524	101	
12	0	0	0	0	523	102	
13	0	0	0	0	522	101	
14	0	0	0	0	521	102	
15	0	0	0	0	521	100	
0	0	0	0	0	520	102	
1	0	0	0	0	517	101	
2	0	0	0	0	517	101	
3	0	0	0	0	518	102	
4	0	0	0	0	519	101	
5	0	0	0	0	521	102	
6	0	0	0	0	522	100	
7	0	0	0	0	524	102	
8	0	0	0	0	526	100	
9	0	0	0	0	526	102	
10	0	0	0	0	526	100	
11	0	0	0	0	525	102	
12	0	0	0	0	524	101	
13	0	0	0	0	524	101	
14	0	0	0	0	525	101	
15	0	0	0	0	526	100	
0	0	0	0	0	525	102	
1	0	0	0	0	526	100	
2	0	0	0	0	526	102	
3	0	0	0	0	526	100	
4	0	0	0	0	527	102	
5	0	0	0	0	527	100	
6	0	0	0	0	527	102	
7	0	0	0	0	528	101	
8	0	0	0	0	527	100	
9	0	0	0	0	527	102	
10	0	0	0	0	526	100	
11	0	0	0	0	526	102	
12	0	0	0	0	525	101	
13	0	0	0	0	524	102	
14	0	0	0	0	524	100	
15	0	0	0	0	525	101	
0	0	0	0	0	525	102	
1	0	0	0	0	526	101	
2	0	0	0	0	526	101	
3	0	0	0	0	526	101	
4	0	0	0	0	525	102	
5	0	0	0	0	524	100	
6	0	0	0	0	524	102	
7	0	0	0	0	524	100	
8	0	0	0	0	526	102	
9	0	0	0	0	527	100	
10	0	0	0	0	528	102	
11	0	0	0	0	531	100	
12	0	0	0	0	531	102	
13	0	0	0	0	531	100	
14	0	0	0	0	530	101	
15	0	0	0	0	530	101	
0	0	0	0	0	529	100	
1	0	0	0	0	527	102	
2	0	0	0	0	527	100	
3	0	0	0	0	528	102	
4	0	0	0	0	529	100	
5	0	0	0	0	530	102	
6	0	0	0	0	531	101	
7	0	0	0	0	531	101	
8	0	0	0	0	531	102	
9	0	0	0	0	532	100	
10	0	0	0	0	533	102	
11	0	0	0	0	532	100	
12	0	0	0	0	533	102	
13	0	0	0	0	533	101	
14	0	0	0	0	534	101	
15	0	0	0	0	532	101	
0	0	0	0	0	530	100	
1	0	0	0	0	530	102	
2	0	0	0	0	530	100	
3	0	0	0	0	531	102	
4	0	0	0	0	530	100	
5	0	0	0	0	531	102	
6	0	0	0	0	531	100	
7	0	0	0	0	532	102	
8	0	0	0	0	532	100	
9	0	0	0	0	532	101	
10	0	0	0	0	532	101	
11	0	0	0	0	531	100	
12	0	0	0	0	530	102	
13	0	0	0	0	529	100	
14	0	0	0	0	527	102	
15	0	0	0	0	526	100	
0	0	0	0	0	525	102	
1	0	0	0	0	525	100	
2	0	0	0	0	524	102	
3	0	0	0	0	525	101	
4	0	0	0	0	527	101	
5	0	0	0	0	530	102	
6	0	0	0	0	532	100	
7	0	0	0	0	533	102	
8	0	0	0	0	534	100	
9	0	0	0	0	536	102	
10	0	0	0	0	537	100	
11	0	0	0	0	536	102	
12	0	0	0	0	535	101	
13	0	0	0	0	534	102	
14	0	0	0	0	532	101	
15	0	0	0	0	531	101	
0	0	0	0	0	531	102	
1	0	0	0	0	531	100	
2	0	0	0	0	531	102	
3	0	0	0	0	531	100	
4	0	0	0	0	531	102	
5	0	0	0	0	533	101	
6	0	0	0	0	534	100	
7	0	0	0	0	535	101	
8	0	0	0	0	536	100	
9	0	0	0	0	535	102	
10	0	0	0	0	535	100	
11	0	0	0	0	536	102	
12	0	0	0	0	537	100	
13	0	0	0	0	537	102	
14	0	0	0	0	537	101	
15	0	0	0	0	537	101	
0	0	0	0	0	538	102	
1	0	0	0	0	539	100	
2	0	0	0	0	539	102	
3	0	0	0	0	539	100	
4	0	0	0	0	540	102	
5	0	0	0	0	541	100	
6	0	0	0	0	542	102	
7	0	0	0	0	542	100	
8	0	0	0	0	543	101	
9	0	0	0	0	542	101	
10	0	0	0	0	541	101	
11	0	0	0	0	541	102	
12	0	0	0	0	540	100	
13	0	0	0	0	540	102	
14	0	0	0	0	539	100	
15	0	0	0	0	539	102	
0	0	0	0	0	538	101	
1	0	0	0	0	536	100	
2	0	0	0	0	536	102	
3	0	0	0	0	536	100	
4	0	0	0	0	536	102	
5	0	0	0	0	536	101	
6	0	0	0	0	536	101	
7	0	0	0	0	536	101	
8	0	0	0	0	537	100	
9	0	0	0	0	537	102	
10	0	0	0	0	538	100	
11	0	0	0	0	539	102	
12	0	0	0	0	540	100	
13	0	0	0	0	540	102	
14	0	0	0	0	538	101	
15	0	0	0	0	536	100	
0	0	0	0	0	536	102	
1	0	0	0	0	537	100	
2	0	0	0	0	538	102	
3	0	0	0	0	538	100	
4	0	0	0	0	537	102	
5	0	0	0	0	536	100	
6	0	0	0	0	537	102	
7	0	0	0	0	538	100	
8	0	0	0	0	540	102	
9	0	0	0	0	541	101	
10	0	0	0	0	541	101	
11	0	0	0	0	541	102	
12	0	0	0	0	543	100	
13	0	0	0	0	545	102	
14	0	0	0	0	548	100	
15	0	0	0	0	549	102	
0	0	0	0	0	550	101	
1	0	0	0	0	552	100	
2	0	0	0	0	552	102	
3	0	0	0	0	554	100	
4	0	0	0	0	555	102	
5	0	0	0	0	556	100	
6	0	0	0	0	555	102	
7	0	0	0	0	556	100	
8	0	0	0	0	557	102	
9	0	0	0	0	558	100	
10	0	0	0	0	559	102	
11	0	0	0	0	560	101	
12	0	0	0	0	561	101	
13	0	0	0	0	561	101	
14	0	0	0	0	560	100	
15	0	0	0	0	559	102	
0	0	0	0	0	558	100	
1	0	0	0	0	555	102	
2	0	0	0	0	553	100	
3	0	0	0	0	553	102	
4	0	0	0	0	552	100	
5	0	0	0	0	551	102	
6	0	0	0	0	552	101	
7	0	0	0	0	553	101	
8	0	0	0	0	552	101	
9	0	0	0	0	551	100	
10	0	0	0	0	551	102	
11	0	0	0	0	552	100	
12	0	0	0	0	554	102	
13	0	0	0	0	554	100	
14	0	0	0	0	556	102	
15	0	0	0	0	559	101	
0	0	0	0	0	562	101	
1	0	0	0	0	563	102	
2	0	0	0	0	561	100	
3	0	0	0	0	560	102	
4	0	0	0	0	560	100	
5	0	0	0	0	560	102	
6	0	0	0	0	560	100	
7	0	0	0	0	560	101	
8	0	0	0	0	559	101	
9	0	0	0	0	557	100	
10	0	0	0	0	555	102	
11	0	0	0	0	555	100	
12	0	0	0	0	553	102	
13	0	0	0	0	552	100	
14	0	0	0	0	551	102	
15	0	0	0	0	550	101	
0	0	0	0	0	551	100	
1	0	0	0	0	551	102	
2	0	0	0	0	553	100	
3	0	0	0	0	555	102	
4	0	0	0	0	556	100	
5	0	0	0	0	556	102	
6	0	0	0	0	557	100	
7	0	0	0	0	557	102	
8	0	0	0	0	556	100	
9	0	0	0	0	555	102	
10	0	0	0	0	554	101	
11	0	0	0	0	553	101	
12	0	0	0	0	554	100	
13	0	0	0	0	554	101	
14	0	0	0	0	554	101	
15	0	0	0	0	555	100	
0	0	0	0	0	556	101	
1	0	0	0	0	556	100	
2	0	0	0	0	557	102	
3	0	0	0	0	557	100	
4	0	0	0	0	558	102	
5	0	0	0	0	560	100	
6	0	0	0	0	562	102	
7	0	0	0	0	563	100	
8	0	0	0	0	564	102	
9	0	0	0	0	563	100	
10	0	0	0	0	564	101	
11	0	0	0	0	566	102	
12	0	0	0	0	565	100	
13	0	0	0	0	564	102	
14	0	0	0	0	564	100	
15	0	0	0	0	564	102	
0	0	0	0	0	563	100	
1	0	0	0	0	563	102	
2	0	0	0	0	562	100	
3	0	0	0	0	561	102	
4	0	0	0	0	560	100	
5	0	0	0	0	559	102	
6	0	0	0	0	558	100	
7	0	0	0	0	555	102	
8	0	0	0	0	554	100	
9	0	0	0	0	553	102	
10	0	0	0	0	553	100	
11	0	0	0	0	553	102	
12	0	0	0	0	553	100	
13	0	0	0	0	554	102	
14	0	0	0	0	554	100	
15	0	0	0	0	555	102	
0	0	0	0	0	557	101	
1	0	0	0	0	558	102	
2	0	0	0	0	560	101	
3	0	0	0	0	560	101	
4	0	0	0	0	561	101	
5	0	0	0	0	561	100	
6	0	0	0	0	561	102	
7	0	0	0	0	561	100	
8	0	0	0	0	563	102	
9	0	0	0	0	566	100	
10	0	0	0	0	567	102	
11	0	0	0	0	568	100	
12	0	0	0	0	568	101	
13	0	0	0	0	568	101	
14	0	0	0	0	567	100	
15	0	0	0	0	568	102	
0	0	0	0	0	568	100	
1	0	0	0	0	569	102	
2	0	0	0	0	569	100	
3	0	0	0	0	568	102	
4	0	0	0	0	568	100	
5	0	0	0	0	568	102	
6	0	0	0	0	567	101	
7	0	0	0	0	566	100	
8	0	0	0	0	566	102	
9	0	0	0	0	567	100	
10	0	0	0	0	568	102	
11	0	0	0	0	570	100	
12	0	0	0	0	571	102	
13	0	0	0	0	572	100	
14	0	0	0	0	573	101	
15	0	0	0	0	573	100	
0	0	0	0	0	573	102	
1	0	0	0	0	571	100	
2	0	0	0	0	568	102	
3	0	0	0	0	565	100	
4	0	0	0	0	562	102	
5	0	0	0	0	560	100	
6	0	0	0	0	558	102	
7	0	0	0	0	558	100	
8	0	0	0	0	558	102	
9	0	0	0	0	557	100	
10	0	0	0	0	558	101	
11	0	0	0	0	560	100	
12	0	0	0	0	560	102	
13	0	0	0	0	560	101	
14	0	0	0	0	560	102	
15	0	0	0	0	561	100	
0	0	0	0	0	560	102	
1	0	0	0	0	560	101	
2	0	0	0	0	559	101	
3	0	0	0	0	558	101	
4	0	0	0	0	559	100	
5	0	0	0	0	559	102	
6	0	0	0	0	559	100	
7	0	0	0	0	560	102	
8	0	0	0	0	561	100	
9	0	0	0	0	560	102	
10	0	0	0	0	559	100	
11	0	0	0	0	557	101	
12	0	0	0	0	557	101	
13	0	0	0	0	557	100	
14	0	0	0	0	559	101	
15	0	0	0	0	560	101	
0	0	0	0	0	560	101	
1	0	0	0	0	559	101	
2	0	0	0	0	559	101	
3	0	0	0	0	560	100	
4	0	0	0	0	559	102	
5	0	0	0	0	559	100	
6	0	0	0	0	559	102	
7	0	0	0	0	558	100	
8	0	0	0	0	558	102	
9	0	0	0	0	558	100	
10	0	0	0	0	559	102	
11	0	0	0	0	559	100	
12	0	0	0	0	557	102	
13	0	0	0	0	556	100	
14	0	0	0	0	556	102	
15	0	0	0	0	554	101	
0	0	0	0	0	552	100	
1	0	0	0	0	552	102	
2	0	0	0	0	554	100	
3	0	0	0	0	556	102	
4	0	0	0	0	561	100	
5	0	0	0	0	566	101	
6	0	0	0	0	565	100	
7	0	0	0	0	563	102	
8	0	0	0	0	563	99	
9	0	0	0	0	562	102	
10	0	0	0	0	560	100	
11	0	0	0	0	560	102	
12	0	0	0	0	559	100	
13	0	0	0	0	557	102	
14	0	0	0	0	557	100	
15	0	0	0	0	559	102	
0	0	0	0	0	562	100	
1	0	0	0	0	564	101	
2	0	0	0	0	567	100	
3	0	0	0	0	569	101	
4	0	0	0	0	569	101	
5	0	0	0	0	569	101	
6	0	0	0	0	570	100	
7	0	0	0	0	568	102	
8	0	0	0	0	566	100	
9	0	0	0	0	565	102	
10	0	0	0	0	566	100	
11	0	0	0	0	567	101	
12	0	0	0	0	569	102	
13	0	0	0	0	570	101	
14	0	0	0	0	573	102	
15	0	0	0	0	575	100	
0	0	0	0	0	579	102	
1	0	0	0	0	580	100	
2	0	0	0	0	581	102	
3	0	0	0	0	581	100	
4	0	0	0	0	581	101	
5	0	0	0	0	579	101	
6	0	0	0	0	575	101	
7	0	0	0	0	574	101	
8	0	0	0	0	572	102	
9	0	0	0	0	571	100	
10	0	0	0	0	570	102	
11	0	0	0	0	569	100	
12	0	0	0	0	569	102	
13	0	0	0	0	569	100	
14	0	0	0	0	568	102	
15	0	0	0	0	568	101	
0	0	0	0	0	567	101	
1	0	0	0	0	568	101	
2	0	0	0	0	566	100	
3	0	0	0	0	564	102	
4	0	0	0	0	563	100	
5	0	0	0	0	563	102	
6	0	0	0	0	561	100	
7	0	0	0	0	560	102	
8	0	0	0	0	559	100	
9	0	0	0	0	557	102	
10	0	0	0	0	556	101	
11	0	0	0	0	555	101	
12	0	0	0	0	551	101	
13	0	0	0	0	547	100	
14	0	0	0	0	546	102	
15	0	0	0	0	545	100	
0	0	0	0	0	545	102	
1	0	0	0	0	543	100	
2	0	0	0	0	541	102	
3	0	0	0	0	541	100	
4	0	0	0	0	541	102	
5	0	0	0	0	540	100	
6	0	0	0	0	538	102	
7	0	0	0	0	537	100	
8	0	0	0	0	536	102	
9	0	0	0	0	537	100	
10	0	0	0	0	536	102	
11	0	0	0	0	536	101	
12	0	0	0	0	536	101	
13	0	0	0	0	534	101	
14	0	0	0	0	533	100	
15	0	0	0	0	532	102	
0	0	0	0	0	530	100	
1	0	0	0	0	529	102	
2	0	0	0	0	529	100	
3	0	0	0	0	528	102	
4	0	0	0	0	529	100	
5	0	0	0	0	530	102	
6	0	0	0	0	531	100	
7	0	0	0	0	531	102	
8	0	0	0	0	531	100	
9	0	0	0	0	529	102	
10	0	0	0	0	527	100	
11	0	0	0	0	526	102	
12	0	0	0	0	527	101	
13	0	0	0	0	528	102	
14	0	0	0	0	528	101	
15	0	0	0	0	530	102	
0	0	0	0	0	531	100	
1	0	0	0	0	531	102	
2	0	0	0	0	531	101	
3	0	0	0	0	532	102	
4	0	0	0	0	533	101	
5	0	0	0	0	533	101	
6	0	0	0	0	532	101	
7	0	0	0	0	535	100	
8	0	0	0	0	537	101	
9	0	0	0	0	538	102	
10	0	0	0	0	537	101	
11	0	0	0	0	536	102	
12	0	0	0	0	534	101	
13	0	0	0	0	531	100	
14	0	0	0	0	530	102	
15	0	0	0	0	529	100	
0	0	0	0	0	529	102	
1	0	0	0	0	528	100	
2	0	0	0	0	528	102	
3	0	0	0	0	527	100	
4	0	0	0	0	528	102	
5	0	0	0	0	530	100	
6	0	0	0	0	531	102	
7	0	0	0	0	531	100	
8	0	0	0	0	530	102	
9	0	0	0	0	529	100	
10	0	0	0	0	528	102	
11	0	0	0	0	526	100	
12	0	0	0	0	526	102	
13	0	0	0	0	527	101	
14	0	0	0	0	526	101	
15	0	0	0	0	525	101	
0	0	0	0	0	524	100	
1	0	0	0	0	524	102	
2	0	0	0	0	526	100	
3	0	0	0	0	528	102	
4	0	0	0	0	533	100	
5	0	0	0	0	537	102	
6	0	0	0	0	543	100	
7	0	0	0	0	553	102	
8	0	0	0	0	564	99	
9	0	0	0	0	577	101	
10	0	0	0	0	591	99	
11	0	0	0	0	605	102	
12	0	0	0	0	619	99	
13	0	0	0	0	633	101	
14	0	0	0	0	646	99	
15	0	0	0	0	656	101	
0	0	0	0	0	664	99	
1	0	0	0	0	670	101	
2	0	0	0	0	675	99	
3	0	0	0	0	678	101	
4	0	0	0	0	683	99	
5	0	0	0	0	686	101	
6	0	0	0	0	688	99	
7	0	0	0	0	689	101	
8	0	0	0	0	688	100	
9	0	0	0	0	688	102	
10	0	0	0	0	687	100	
11	0	0	0	0	685	101	
12	0	0	0	0	684	101	
13	0	0	0	0	680	100	
14	0	0	0	0	672	101	
15	0	0	0	0	662	99	
0	0	0	0	0	652	102	
1	0	0	0	0	641	99	
2	0	0	0	0	632	102	
3	0	0	0	0	625	100	
4	0	0	0	0	615	102	
5	0	0	0	0	605	100	
6	0	0	0	0	595	102	
7	0	0	0	0	585	100	
8	0	0	0	0	574	102	
9	0	0	0	0	561	100	
10	0	0	0	0	548	102	
11	0	0	0	0	537	101	
12	0	0	0	0	525	101	
13	0	0	0	0	516	102	
14	0	0	0	0	506	100	
15	0	0	0	0	498	102	
0	0	0	0	0	491	100	
1	0	0	0	0	486	102	
2	0	0	0	0	481	100	
3	0	0	0	0	477	102	
4	0	0	0	0	476	100	
5	0	0	0	0	475	102	
6	0	0	0	0	476	100	
7	0	0	0	0	476	102	
8	0	0	0	0	476	100	
9	0	0	0	0	480	102	
10	0	0	0	0	483	100	
11	0	0	0	0	488	102	
12	0	0	0	0	491	100	
13	0	0	0	0	492	102	
14	0	0	0	0	496	100	
15	0	0	0	0	499	102	
0	0	0	0	0	502	100	
1	0	0	0	0	502	102	
2	0	0	0	0	503	100	
3	0	0	0	0	505	102	
4	0	0	0	0	507	100	
5	0	0	0	0	509	102	
6	0	0	0	0	508	100	
7	0	0	0	0	509	102	
8	0	0	0	0	510	100	
9	0	0	0	0	511	102	
10	0	0	0	0	511	100	
11	0	0	0	0	512	102	
12	0	0	0	0	512	100	
13	0	0	0	0	511	102	
14	0	0	0	0	512	100	
15	0	0	0	0	513	101	
0	0	0	0	0	512	101	
1	0	0	0	0	511	102	
2	0	0	0	0	511	101	
3	0	0	0	0	510	101	
4	0	0	0	0	508	101	
5	0	0	0	0	508	102	
6	0	0	0	0	507	100	
7	0	0	0	0	505	102	
8	0	0	0	0	505	101	
9	0	0	0	0	506	102	
10	0	0	0	0	506	100	
11	0	0	0	0	508	102	
12	0	0	0	0	511	101	
13	0	0	0	0	514	102	
14	0	0	0	0	513	101	
15	0	0	0	0	511	101	
0	0	0	0	0	512	100	
1	0	0	0	0	513	102	
2	0	0	0	0	514	100	
3	0	0	0	0	515	102	
4	0	0	0	0	515	100	
5	0	0	0	0	517	102	
6	0	0	0	0	518	100	
7	0	0	0	0	518	102	
8	0	0	0	0	515	100	
9	0	0	0	0	514	102	
10	0	0	0	0	515	100	
11	0	0	0	0	516	102	
12	0	0	0	0	516	101	
13	0	0	0	0	516	101	
14	0	0	0	0	516	101	
15	0	0	0	0	516	100	
0	0	0	0	0	518	102	
1	0	0	0	0	522	100	
2	0	0	0	0	526	102	
3	0	0	0	0	528	100	
4	0	0	0	0	530	102	
5	0	0	0	0	531	100	
6	0	0	0	0	532	102	
7	0	0	0	0	532	100	
8	0	0	0	0	532	102	
9	0	0	0	0	532	100	
10	0	0	0	0	534	102	
11	0	0	0	0	535	100	
12	0	0	0	0	536	101	
13	0	0	0	0	538	101	
14	0	0	0	0	540	102	
15	0	0	0	0	540	100	
0	0	0	0	0	538	102	
1	0	0	0	0	537	100	
2	0	0	0	0	537	102	
3	0	0	0	0	537	100	
4	0	0	0	0	535	102	
5	0	0	0	0	534	100	
6	0	0	0	0	534	102	
7	0	0	0	0	534	101	
8	0	0	0	0	535	101	
9	0	0	0	0	534	102	
10	0	0	0	0	533	100	
11	0	0	0	0	535	102	
12	0	0	0	0	535	100	
13	0	0	0	0	537	102	
14	0	0	0	0	538	100	
15	0	0	0	0	539	102	
0	0	0	0	0	539	100	
1	0	0	0	0	540	102	
2	0	0	0	0	542	100	
3	0	0	0	0	542	102	
4	0	0	0	0	542	100	
5	0	0	0	0	542	102	
6	0	0	0	0	541	100	
7	0	0	0	0	543	102	
8	0	0	0	0	545	101	
9	0	0	0	0	545	100	
10	0	0	0	0	544	102	
11	0	0	0	0	544	100	
12	0	0	0	0	546	102	
13	0	0	0	0	548	100	
14	0	0	0	0	548	101	
15	0	0	0	0	547	101	
0	0	0	0	0	547	101	
1	0	0	0	0	547	102	
2	0	0	0	0	545	100	
3	0	0	0	0	543	102	
4	0	0	0	0	544	100	
5	0	0	0	0	544	101	
6	0	0	0	0	544	101	
7	0	0	0	0	543	101	
8	0	0	0	0	543	102	
9	0	0	0	0	545	100	
10	0	0	0	0	545	102	
11	0	0	0	0	547	100	
12	0	0	0	0	550	102	
13	0	0	0	0	552	100	
14	0	0	0	0	555	102	
15	0	0	0	0	559	100	
0	0	0	0	0	561	102	
1	0	0	0	0	562	100	
2	0	0	0	0	560	102	
3	0	0	0	0	559	100	
4	0	0	0	0	557	102	
5	0	0	0	0	556	100	
6	0	0	0	0	554	102	
7	0	0	0	0	553	101	
8	0	0	0	0	555	101	
9	0	0	0	0	555	101	
10	0	0	0	0	556	100	
11	0	0	0	0	558	102	
12	0	0	0	0	558	100	
13	0	0	0	0	557	102	
14	0	0	0	0	557	100	
15	0	0	0	0	559	102	
0	0	0	0	0	558	100	
1	0	0	0	0	559	102	
2	0	0	0	0	560	100	
3	0	0	0	0	562	102	
4	0	0	0	0	563	100	
5	0	0	0	0	564	102	
6	0	0	0	0	563	100	
7	0	0	0	0	563	102	
8	0	0	0	0	563	100	
9	0	0	0	0	563	102	
10	0	0	0	0	564	101	
11	0	0	0	0	564	101	
12	0	0	0	0	563	101	
13	0	0	0	0	565	100	
14	0	0	0	0	566	102	
15	0	0	0	0	567	100	
0	0	0	0	0	569	101	
1	0	0	0	0	572	101	
2	0	0	0	0	573	101	
3	0	0	0	0	574	100	
4	0	0	0	0	575	102	
5	0	0	0	0	576	100	
6	0	0	0	0	577	102	
7	0	0	0	0	578	100	
8	0	0	0	0	578	102	
9	0	0	0	0	579	100	
10	0	0	0	0	580	102	
11	0	0	0	0	582	101	
12	0	0	0	0	582	101	
13	0	0	0	0	582	101	
14	0	0	0	0	584	100	
15	0	0	0	0	584	101	
0	0	0	0	0	585	100	
1	0	0	0	0	587	101	
2	0	0	0	0	586	100	
3	0	0	0	0	586	102	
4	0	0	0	0	587	100	
5	0	0	0	0	585	102	
6	0	0	0	0	584	100	
7	0	0	0	0	584	102	
8	0	0	0	0	583	100	
9	0	0	0	0	581	102	
10	0	0	0	0	579	100	
11	0	0	0	0	578	102	
12	0	0	0	0	578	100	
13	0	0	0	0	577	102	
14	0	0	0	0	575	100	
15	0	0	0	0	575	102	
0	0	0	0	0	575	100	
1	0	0	0	0	576	102	
2	0	0	0	0	576	100	
3	0	0	0	0	575	102	
4	0	0	0	0	576	100	
5	0	0	0	0	579	102	
6	0	0	0	0	579	100	
7	0	0	0	0	578	102	
8	0	0	0	0	576	100	
9	0	0	0	0	576	102	
10	0	0	0	0	578	100	
11	0	0	0	0	579	102	
12	0	0	0	0	579	100	
13	0	0	0	0	579	102	
14	0	0	0	0	579	100	
15	0	0	0	0	580	102	
0	0	0	0	0	581	101	
1	0	0	0	0	581	101	
2	0	0	0	0	582	101	
3	0	0	0	0	583	100	
4	0	0	0	0	583	102	
5	0	0	0	0	582	100	
6	0	0	0	0	583	102	
7	0	0	0	0	584	100	
8	0	0	0	0	586	102	
9	0	0	0	0	588	100	
10	0	0	0	0	587	102	
11	0	0	0	0	587	100	
12	0	0	0	0	585	102	
13	0	0	0	0	585	100	
14	0	0	0	0	585	102	
15	0	0	0	0	583	100	
0	0	0	0	0	579	101	
1	0	0	0	0	578	101	
2	0	0	0	0	579	101	
3	0	0	0	0	580	101	
4	0	0	0	0	579	100	
5	0	0	0	0	579	101	
6	0	0	0	0	579	100	
7	0	0	0	0	579	102	
8	0	0	0	0	578	100	
9	0	0	0	0	576	102	
10	0	0	0	0	575	100	
11	0	0	0	0	574	102	
12	0	0	0	0	574	100	
13	0	0	0	0	574	102	
14	0	0	0	0	574	100	
15	0	0	0	0	575	102	
0	0	0	0	0	575	100	
1	0	0	0	0	575	102	
2	0	0	0	0	574	100	
3	0	0	0	0	574	101	
4	0	0	0	0	575	101	
5	0	0	0	0	575	101	
6	0	0	0	0	575	101	
7	0	0	0	0	575	100	
8	0	0	0	0	575	102	
9	0	0	0	0	577	100	
10	0	0	0	0	577	102	
11	0	0	0	0	576	100	
12	0	0	0	0	575	102	
13	0	0	0	0	573	100	
14	0	0	0	0	571	102	
15	0	0	0	0	569	100	
0	0	0	0	0	570	102	
1	0	0	0	0	571	100	
2	0	0	0	0	571	101	
3	0	0	0	0	571	100	
4	0	0	0	0	569	102	
5	0	0	0	0	568	100	
6	0	0	0	0	567	102	
7	0	0	0	0	567	100	
8	0	0	0	0	567	102	
9	0	0	0	0	566	101	
10	0	0	0	0	566	102	
11	0	0	0	0	566	100	
12	0	0	0	0	565	102	
13	0	0	0	0	564	101	
14	0	0	0	0	564	100	
15	0	0	0	0	563	102	
0	0	0	0	0	562	101	
1	0	0	0	0	562	101	
2	0	0	0	0	560	102	
3	0	0	0	0	558	101	
4	0	0	0	0	556	101	
5	0	0	0	0	555	100	
6	0	0	0	0	552	102	
7	0	0	0	0	551	100	
8	0	0	0	0	550	102	
9	0	0	0	0	547	101	
10	0	0	0	0	545	102	
11	0	0	0	0	543	101	
12	0	0	0	0	541	102	
13	0	0	0	0	539	101	
14	0	0	0	0	537	101	
15	0	0	0	0	536	101	
0	0	0	0	0	535	100	
1	0	0	0	0	533	101	
2	0	0	0	0	530	101	
3	0	0	0	0	527	101	
4	0	0	0	0	526	101	
5	0	0	0	0	527	102	
6	0	0	0	0	528	100	
7	0	0	0	0	527	102	
8	0	0	0	0	526	100	
9	0	0	0	0	525	102	
10	0	0	0	0	524	100	
11	0	0	0	0	523	102	
12	0	0	0	0	524	100	
13	0	0	0	0	525	102	
14	0	0	0	0	525	100	
15	0	0	0	0	523	102	
0	0	0	0	0	521	100	
1	0	0	0	0	520	102	
2	0	0	0	0	519	100	
3	0	0	0	0	519	102	
4	0	0	0	0	515	101	
5	0	0	0	0	513	102	
6	0	0	0	0	512	101	
7	0	0	0	0	512	101	
8	0	0	0	0	512	102	
9	0	0	0	0	512	100	
10	0	0	0	0	512	102	
11	0	0	0	0	512	100	
12	0	0	0	0	511	102	
13	0	0	0	0	510	100	
14	0	0	0	0	510	102	
15	0	0	0	0	509	100	
0	0	0	0	0	507	102	
1	0	0	0	0	505	100	
2	0	0	0	0	505	102	
3	0	0	0	0	504	100	
4	0	0	0	0	504	102	
5	0	0	0	0	505	100	
6	0	0	0	0	507	102	
7	0	0	0	0	508	101	
8	0	0	0	0	507	102	
9	0	0	0	0	507	101	
10	0	0	0	0	507	102	
11	0	0	0	0	506	101	
12	0	0	0	0	504	102	
13	0	0	0	0	502	100	
14	0	0	0	0	502	102	
15	0	0	0	0	500	100	
0	0	0	0	0	500	102	
1	0	0	0	0	500	100	
2	0	0	0	0	501	102	
3	0	0	0	0	501	100	
4	0	0	0	0	502	102	
5	0	0	0	0	503	100	
6	0	0	0	0	504	102	
7	0	0	0	0	503	100	
8	0	0	0	0	503	102	
9	0	0	0	0	502	101	
10	0	0	0	0	501	102	
11	0	0	0	0	499	101	
12	0	0	0	0	500	101	
13	0	0	0	0	501	102	
14	0	0	0	0	501	101	
15	0	0	0	0	501	102	
0	0	0	0	0	500	100	
1	0	0	0	0	499	102	
2	0	0	0	0	499	101	
3	0	0	0	0	499	102	
4	0	0	0	0	499	101	
5	0	0	0	0	499	102	
6	0	0	0	0	499	100	
7	0	0	0	0	500	102	
8	0	0	0	0	501	100	
9	0	0	0	0	502	102	
10	0	0	0	0	503	101	
11	0	0	0	0	503	102	
12	0	0	0	0	503	100	
13	0	0	0	0	502	102	
14	0	0	0	0	500	100	
15	0	0	0	0	500	102	
0	0	0	0	0	500	100	
1	0	0	0	0	501	102	
2	0	0	0	0	502	100	
3	0	0	0	0	502	101	
4	0	0	0	0	502	101	
5	0	0	0	0	502	102	
6	0	0	0	0	501	101	
7	0	0	0	0	501	102	
8	0	0	0	0	501	100	
9	0	0	0	0	502	102	
10	0	0	0	0	501	100	
11	0	0	0	0	500	102	
12	0	0	0	0	500	100	
13	0	0	0	0	501	102	
14	0	0	0	0	502	100	
15	0	0	0	0	504	102	
0	0	0	0	0	505	100	
1	0	0	0	0	507	102	
2	0	0	0	0	507	100	
3	0	0	0	0	505	102	
4	0	0	0	0	504	100	
5	0	0	0	0	504	102	
6	0	0	0	0	505	100	
7	0	0	0	0	505	102	
8	0	0	0	0	503	102	
9	0	0	0	0	503	101	
10	0	0	0	0	503	102	
11	0	0	0	0	503	101	
12	0	0	0	0	503	102	
13	0	0	0	0	502	101	
14	0	0	0	0	500	102	
15	0	0	0	0	502	101	
0	0	0	0	0	504	102	
1	0	0	0	0	504	101	
2	0	0	0	0	504	102	
3	0	0	0	0	504	101	
4	0	0	0	0	504	102	
5	0	0	0	0	506	100	
6	0	0	0	0	508	102	
7	0	0	0	0	509	100	
8	0	0	0	0	510	102	
9	0	0	0	0	511	100	
10	0	0	0	0	512	102	
11	0	0	0	0	513	100	
12	0	0	0	0	514	102	
13	0	0	0	0	513	100	
14	0	0	0	0	511	102	
15	0	0	0	0	509	101	
0	0	0	0	0	508	102	
1	0	0	0	0	505	101	
2	0	0	0	0	504	101	
3	0	0	0	0	502	102	
4	0	0	0	0	500	100	
5	0	0	0	0	502	102	
6	0	0	0	0	504	100	
7	0	0	0	0	507	102	
8	0	0	0	0	507	100	
9	0	0	0	0	507	102	
10	0	0	0	0	508	100	
11	0	0	0	0	509	102	
12	0	0	0	0	508	100	
13	0	0	0	0	505	102	
14	0	0	0	0	505	100	
15	0	0	0	0	505	102	
0	0	0	0	0	505	100	
1	0	0	0	0	506	102	
2	0	0	0	0	505	100	
3	0	0	0	0	505	102	
4	0	0	0	0	505	100	
5	0	0	0	0	505	102	
6	0	0	0	0	504	100	
7	0	0	0	0	502	102	
8	0	0	0	0	499	100	
9	0	0	0	0	496	102	
10	0	0	0	0	496	100	
11	0	0	0	0	496	102	
12	0	0	0	0	498	100	
13	0	0	0	0	499	102	
14	0	0	0	0	499	100	
15	0	0	0	0	498	102	
0	0	0	0	0	497	100	
1	0	0	0	0	496	102	
2	0	0	0	0	496	100	
3	0	0	0	0	495	102	
4	0	0	0	0	495	100	
5	0	0	0	0	496	102	
6	0	0	0	0	497	100	
7	0	0	0	0	497	102	
8	0	0	0	0	497	100	
9	0	0	0	0	497	102	
10	0	0	0	0	495	101	
11	0	0	0	0	493	102	
12	0	0	0	0	492	101	
13	0	0	0	0	493	102	
14	0	0	0	0	491	101	
15	0	0	0	0	487	102	
0	0	0	0	0	487	101	
1	0	0	0	0	487	102	
2	0	0	0	0	487	101	
3	0	0	0	0	487	101	
4	0	0	0	0	488	102	
5	0	0	0	0	488	100	
6	0	0	0	0	488	102	
7	0	0	0	0	489	100	
8	0	0	0	0	489	102	
9	0	0	0	0	489	100	
10	0	0	0	0	489	102	
11	0	0	0	0	488	101	
12	0	0	0	0	487	102	
13	0	0	0	0	486	101	
14	0	0	0	0	485	102	
15	0	0	0	0	487	100	
0	0	0	0	0	486	102	
1	0	0	0	0	485	100	
2	0	0	0	0	483	102	
3	0	0	0	0	480	100	
4	0	0	0	0	478	102	
5	0	0	0	0	476	101	
6	0	0	0	0	479	102	
7	0	0	0	0	481	101	
8	0	0	0	0	482	102	
9	0	0	0	0	481	101	
10	0	0	0	0	481	102	
11	0	0	0	0	483	101	
12	0	0	0	0	484	102	
13	0	0	0	0	484	101	
14	0	0	0	0	483	102	
15	0	0	0	0	483	101	
0	0	0	0	0	482	101	
1	0	0	0	0	485	102	
2	0	0	0	0	487	101	
3	0	0	0	0	487	102	
4	0	0	0	0	486	100	
5	0	0	0	0	486	102	
6	0	0	0	0	485	101	
7	0	0	0	0	484	102	
8	0	0	0	0	484	102	
9	0	0	0	0	483	101	
10	0	0	0	0	481	102	
11	0	0	0	0	480	102	
12	0	0	0	0	482	100	
13	0	0	0	0	481	102	
14	0	0	0	0	481	100	
15	0	0	0	0	482	102	
0	0	0	0	0	483	101	
1	0	0	0	0	483	102	
2	0	0	0	0	484	102	
3	0	0	0	0	484	101	
4	0	0	0	0	484	102	
5	0	0	0	0	482	101	
6	0	0	0	0	482	102	
7	0	0	0	0	483	101	
8	0	0	0	0	482	102	
9	0	0	0	0	481	101	
10	0	0	0	0	483	102	
11	0	0	0	0	486	100	
12	0	0	0	0	489	102	
13	0	0	0	0	490	100	
14	0	0	0	0	490	102	
15	0	0	0	0	489	100	
0	0	0	0	0	489	102	
1	0	0	0	0	491	100	
2	0	0	0	0	490	102	
3	0	0	0	0	489	100	
4	0	0	0	0	488	102	
5	0	0	0	0	488	100	
6	0	0	0	0	488	102	
7	0	0	0	0	488	100	
8	0	0	0	0	491	102	
9	0	0	0	0	493	100	
10	0	0	0	0	493	102	
11	0	0	0	0	493	101	
12	0	0	0	0	494	102	
13	0	0	0	0	494	102	
14	0	0	0	0	496	101	
15	0	0	0	0	496	102	
0	0	0	0	0	496	100	
1	0	0	0	0	496	102	
2	0	0	0	0	494	100	
3	0	0	0	0	492	102	
4	0	0	0	0	492	100	
5	0	0	0	0	489	102	
6	0	0	0	0	488	100	
7	0	0	0	0	487	102	
8	0	0	0	0	486	100	
9	0	0	0	0	485	102	
10	0	0	0	0	485	100	
11	0	0	0	0	487	102	
12	0	0	0	0	487	101	
13	0	0	0	0	488	102	
14	0	0	0	0	491	101	
15	0	0	0	0	493	102	
0	0	0	0	0	495	100	
1	0	0	0	0	496	102	
2	0	0	0	0	496	100	
3	0	0	0	0	495	102	
4	0	0	0	0	494	100	
5	0	0	0	0	493	102	
6	0	0	0	0	492	101	
7	0	0	0	0	491	102	
8	0	0	0	0	489	101	
9	0	0	0	0	489	102	
10	0	0	0	0	488	102	
11	0	0	0	0	487	101	
12	0	0	0	0	489	102	
13	0	0	0	0	492	100	
14	0	0	0	0	493	102	
15	0	0	0	0	495	101	
0	0	0	0	0	497	102	
1	0	0	0	0	497	101	
2	0	0	0	0	497	101	
3	0	0	0	0	497	102	
4	0	0	0	0	497	100	
5	0	0	0	0	497	102	
6	0	0	0	0	498	100	
7	0	0	0	0	497	102	
8	0	0	0	0	496	101	
9	0	0	0	0	495	102	
10	0	0	0	0	495	101	
11	0	0	0	0	492	102	
12	0	0	0	0	492	100	
13	0	0	0	0	492	102	
14	0	0	0	0	492	101	
15	0	0	0	0	491	102	
0	0	0	0	0	489	100	
1	0	0	0	0	489	102	
2	0	0	0	0	490	101	
3	0	0	0	0	490	102	
4	0	0	0	0	491	102	
5	0	0	0	0	492	101	
6	0	0	0	0	493	101	
7	0	0	0	0	492	102	
8	0	0	0	0	492	101	
9	0	0	0	0	492	101	
10	0	0	0	0	493	102	
11	0	0	0	0	493	100	
12	0	0	0	0	493	102	
13	0	0	0	0	493	100	
14	0	0	0	0	492	102	
15	0	0	0	0	492	100	
0	0	0	0	0	491	102	
1	0	0	0	0	490	100	
2	0	0	0	0	490	102	
3	0	0	0	0	491	101	
4	0	0	0	0	491	102	
5	0	0	0	0	488	101	
6	0	0	0	0	487	101	
7	0	0	0	0	487	101	
8	0	0	0	0	486	101	
9	0	0	0	0	486	102	
10	0	0	0	0	486	100	
11	0	0	0	0	486	102	
12	0	0	0	0	487	100	
13	0	0	0	0	489	102	
14	0	0	0	0	491	100	
15	0	0	0	0	492	102	
0	0	0	0	0	492	101	
1	0	0	0	0	492	102	
2	0	0	0	0	491	101	
3	0	0	0	0	488	101	
4	0	0	0	0	487	102	
5	0	0	0	0	486	100	
6	0	0	0	0	486	102	
7	0	0	0	0	487	100	
8	0	0	0	0	489	102	
9	0	0	0	0	491	101	
10	0	0	0	0	492	101	
11	0	0	0	0	492	102	
12	0	0	0	0	492	100	
13	0	0	0	0	493	102	
14	0	0	0	0	493	101	
15	0	0	0	0	493	102	
0	0	0	0	0	492	102	
1	0	0	0	0	492	100	
2	0	0	0	0	492	102	
3	0	0	0	0	494	100	
4	0	0	0	0	496	102	
5	0	0	0	0	497	101	
6	0	0	0	0	497	101	
7	0	0	0	0	496	101	
8	0	0	0	0	495	101	
9	0	0	0	0	494	101	
10	0	0	0	0	493	102	
11	0	0	0	0	493	101	
12	0	0	0	0	492	101	
13	0	0	0	0	492	101	
14	0	0	0	0	495	101	
15	0	0	0	0	495	102	
0	0	0	0	0	495	100	
1	0	0	0	0	496	102	
2	0	0	0	0	496	100	
3	0	0	0	0	496	102	
4	0	0	0	0	495	100	
5	0	0	0	0	496	102	
6	0	0	0	0	497	101	
7	0	0	0	0	497	101	
8	0	0	0	0	498	102	
9	0	0	0	0	499	100	
10	0	0	0	0	497	102	
11	0	0	0	0	496	100	
12	0	0	0	0	494	102	
13	0	0	0	0	493	100	
14	0	0	0	0	493	102	
15	0	0	0	0	492	101	
0	0	0	0	0	491	102	
1	0	0	0	0	491	101	
2	0	0	0	0	491	102	
3	0	0	0	0	492	102	
4	0	0	0	0	494	100	
5	0	0	0	0	496	102	
6	0	0	0	0	495	100	
7	0	0	0	0	493	102	
8	0	0	0	0	490	100	
9	0	0	0	0	488	102	
10	0	0	0	0	487	101	
11	0	0	0	0	486	101	
12	0	0	0	0	487	102	
13	0	0	0	0	490	100	
14	0	0	0	0	491	102	
15	0	0	0	0	491	100	
0	0	0	0	0	491	102	
1	0	0	0	0	491	100	
2	0	0	0	0	492	102	
3	0	0	0	0	493	101	
4	0	0	0	0	493	102	
5	0	0	0	0	493	101	
6	0	0	0	0	494	102	
7	0	0	0	0	493	101	
8	0	0	0	0	494	102	
9	0	0	0	0	495	101	
10	0	0	0	0	494	102	
11	0	0	0	0	493	102	
12	0	0	0	0	492	102	
13	0	0	0	0	492	102	
14	0	0	0	0	491	101	
15	0	0	0	0	491	102	
0	0	0	0	0	491	100	
1	0	0	0	0	491	102	
2	0	0	0	0	490	100	
3	0	0	0	0	489	102	
4	0	0	0	0	489	100	
5	0	0	0	0	488	102	
6	0	0	0	0	489	101	
7	0	0	0	0	489	102	
8	0	0	0	0	490	101	
9	0	0	0	0	492	101	
10	0	0	0	0	493	101	
11	0	0	0	0	494	102	
12	0	0	0	0	496	101	
13	0	0	0	0	497	101	
14	0	0	0	0	497	101	
15	0	0	0	0	496	100	
0	0	0	0	0	496	102	
1	0	0	0	0	496	101	
2	0	0	0	0	497	102	
3	0	0	0	0	497	100	
4	0	0	0	0	497	102	
5	0	0	0	0	497	100	
6	0	0	0	0	497	102	
7	0	0	0	0	497	100	
8	0	0	0	0	497	102	
9	0	0	0	0	498	100	
10	0	0	0	0	497	102	
11	0	0	0	0	497	100	
12	0	0	0	0	496	102	
13	0	0	0	0	496	100	
14	0	0	0	0	497	102	
15	0	0	0	0	496	101	
0	0	0	0	0	496	102	
1	0	0	0	0	495	101	
2	0	0	0	0	494	102	
3	0	0	0	0	495	101	
4	0	0	0	0	496	102	
5	0	0	0	0	498	101	
6	0	0	0	0	499	102	
7	0	0	0	0	500	101	
8	0	0	0	0	502	102	
9	0	0	0	0	503	101	
10	0	0	0	0	504	101	
11	0	0	0	0	504	102	
12	0	0	0	0	504	100	
13	0	0	0	0	501	102	
14	0	0	0	0	500	100	
15	0	0	0	0	500	102	
0	0	0	0	0	500	101	
1	0	0	0	0	501	102	
2	0	0	0	0	502	100	
3	0	0	0	0	503	102	
4	0	0	0	0	503	101	
5	0	0	0	0	503	102	
6	0	0	0	0	503	100	
7	0	0	0	0	504	102	
8	0	0	0	0	503	100	
9	0	0	0	0	502	102	
10	0	0	0	0	501	101	
11	0	0	0	0	501	101	
12	0	0	0	0	500	102	
13	0	0	0	0	499	101	
14	0	0	0	0	499	101	
15	0	0	0	0	499	101	
0	0	0	0	0	498	102	
1	0	0	0	0	500	100	
2	0	0	0	0	504	102	
3	0	0	0	0	507	101	
4	0	0	0	0	508	102	
5	0	0	0	0	509	101	
6	0	0	0	0	509	100	
7	0	0	0	0	509	102	
8	0	0	0	0	510	100	
9	0	0	0	0	508	102	
10	0	0	0	0	508	100	
11	0	0	0	0	509	102	
12	0	0	0	0	509	101	
13	0	0	0	0	510	102	
14	0	0	0	0	511	100	
15	0	0	0	0	510	102	
0	0	0	0	0	510	100	
1	0	0	0	0	511	102	
2	0	0	0	0	510	100	
3	0	0	0	0	510	102	
4	0	0	0	0	511	100	
5	0	0	0	0	512	102	
6	0	0	0	0	512	100	
7	0	0	0	0	512	102	
8	0	0	0	0	513	101	
9	0	0	0	0	513	101	
10	0	0	0	0	514	102	
11	0	0	0	0	514	100	
12	0	0	0	0	514	102	
13	0	0	0	0	513	100	
14	0	0	0	0	514	102	
15	0	0	0	0	515	101	
0	0	0	0	0	515	102	
1	0	0	0	0	515	101	
2	0	0	0	0	516	102	
3	0	0	0	0	516	101	
4	0	0	0	0	516	102	
5	0	0	0	0	516	101	
6	0	0	0	0	515	101	
7	0	0	0	0	515	102	
8	0	0	0	0	514	100	
9	0	0	0	0	512	102	
10	0	0	0	0	511	100	
11	0	0	0	0	512	102	
12	0	0	0	0	512	100	
13	0	0	0	0	512	102	
14	0	0	0	0	513	101	
15	0	0	0	0	512	102	
0	0	0	0	0	512	102	
1	0	0	0	0	512	101	
2	0	0	0	0	513	102	
3	0	0	0	0	514	100	
4	0	0	0	0	515	102	
5	0	0	0	0	515	100	
6	0	0	0	0	516	102	
7	0	0	0	0	517	100	
8	0	0	0	0	517	102	
9	0	0	0	0	517	100	
10	0	0	0	0	518	102	
11	0	0	0	0	516	101	
12	0	0	0	0	515	101	
13	0	0	0	0	515	102	
14	0	0	0	0	513	100	
15	0	0	0	0	512	102	
0	0	0	0	0	512	100	
1	0	0	0	0	513	102	
2	0	0	0	0	513	101	
3	0	0	0	0	514	101	
4	0	0	0	0	514	102	
5	0	0	0	0	512	102	
6	0	0	0	0	511	102	
7	0	0	0	0	511	100	
8	0	0	0	0	510	102	
9	0	0	0	0	508	100	
10	0	0	0	0	509	102	
11	0	0	0	0	509	101	
12	0	0	0	0	508	100	
13	0	0	0	0	508	102	
14	0	0	0	0	509	100	
15	0	0	0	0	510	102	
0	0	0	0	0	509	100	
1	0	0	0	0	509	102	
2	0	0	0	0	511	101	
3	0	0	0	0	512	100	
4	0	0	0	0	512	102	
5	0	0	0	0	512	100	
6	0	0	0	0	512	101	
7	0	0	0	0	513	101	
8	0	0	0	0	513	102	
9	0	0	0	0	512	100	
10	0	0	0	0	512	102	
11	0	0	0	0	512	100	
12	0	0	0	0	512	102	
13	0	0	0	0	512	101	
14	0	0	0	0	513	101	
15	0	0	0	0	513	102	
0	0	0	0	0	513	101	
1	0	0	0	0	513	101	
2	0	0	0	0	511	100	
3	0	0	0	0	509	102	
4	0	0	0	0	508	100	
5	0	0	0	0	505	102	
6	0	0	0	0	504	100	
7	0	0	0	0	503	102	
8	0	0	0	0	502	101	
9	0	0	0	0	501	102	
10	0	0	0	0	499	102	
11	0	0	0	0	499	101	
12	0	0	0	0	499	102	
13	0	0	0	0	498	100	
14	0	0	0	0	497	102	
15	0	0	0	0	496	100	
0	0	0	0	0	497	102	
1	0	0	0	0	497	100	
2	0	0	0	0	498	102	
3	0	0	0	0	498	100	
4	0	0	0	0	497	102	
5	0	0	0	0	497	100	
6	0	0	0	0	497	102	
7	0	0	0	0	497	101	
8	0	0	0	0	497	102	
9	0	0	0	0	499	101	
10	0	0	0	0	502	101	
11	0	0	0	0	504	102	
12	0	0	0	0	505	100	
13	0	0	0	0	506	102	
14	0	0	0	0	505	100	
15	0	0	0	0	503	102	
0	0	0	0	0	503	100	
1	0	0	0	0	502	102	
2	0	0	0	0	501	101	
3	0	0	0	0	502	101	
4	0	0	0	0	504	101	
5	0	0	0	0	507	101	
6	0	0	0	0	510	101	
7	0	0	0	0	510	102	
8	0	0	0	0	508	101	
9	0	0	0	0	508	102	
10	0	0	0	0	507	100	
11	0	0	0	0	508	102	
12	0	0	0	0	509	101	
13	0	0	0	0	508	101	
14	0	0	0	0	508	102	
15	0	0	0	0	508	100	
0	0	0	0	0	506	102	
1	0	0	0	0	506	100	
2	0	0	0	0	507	102	
3	0	0	0	0	506	100	
4	0	0	0	0	505	102	
5	0	0	0	0	504	101	
6	0	0	0	0	503	102	
7	0	0	0	0	503	101	
8	0	0	0	0	504	101	
9	0	0	0	0	505	101	
10	0	0	0	0	505	101	
11	0	0	0	0	506	102	
12	0	0	0	0	507	101	
13	0	0	0	0	506	101	
14	0	0	0	0	507	101	
15	0	0	0	0	507	101	
0	0	0	0	0	507	101	
1	0	0	0	0	507	102	
2	0	0	0	0	507	100	
3	0	0	0	0	506	102	
4	0	0	0	0	505	100	
5	0	0	0	0	503	102	
6	0	0	0	0	502	100	
7	0	0	0	0	501	102	
8	0	0	0	0	500	100	
9	0	0	0	0	499	102	
10	0	0	0	0	499	100	
11	0	0	0	0	498	102	
12	0	0	0	0	497	100	
13	0	0	0	0	496	102	
14	0	0	0	0	496	100	
15	0	0	0	0	496	102	
0	0	0	0	0	498	100	
1	0	0	0	0	499	102	
2	0	0	0	0	499	100	
3	0	0	0	0	500	102	
4	0	0	0	0	500	101	
5	0	0	0	0	500	101	
6	0	0	0	0	501	101	
7	0	0	0	0	502	101	
8	0	0	0	0	501	102	
9	0	0	0	0	499	100	
10	0	0	0	0	498	102	
11	0	0	0	0	499	100	
12	0	0	0	0	499	102	
13	0	0	0	0	500	100	
14	0	0	0	0	500	102	
15	0	0	0	0	500	100	
0	0	0	0	0	499	102	
1	0	0	0	0	499	100	
2	0	0	0	0	501	102	
3	0	0	0	0	502	101	
4	0	0	0	0	502	102	
5	0	0	0	0	501	101	
6	0	0	0	0	502	100	
7	0	0	0	0	504	102	
8	0	0	0	0	504	100	
9	0	0	0	0	504	102	
10	0	0	0	0	504	100	
11	0	0	0	0	504	102	
12	0	0	0	0	503	101	
13	0	0	0	0	504	102	
14	0	0	0	0	502	101	
15	0	0	0	0	503	102	
0	0	0	0	0	505	100	
1	0	0	0	0	506	102	
2	0	0	0	0	506	100	
3	0	0	0	0	505	102	
4	0	0	0	0	504	100	
5	0	0	0	0	504	102	
6	0	0	0	0	504	100	
7	0	0	0	0	506	102	
8	0	0	0	0	508	100	
9	0	0	0	0	509	102	
10	0	0	0	0	509	101	
11	0	0	0	0	508	101	
12	0	0	0	0	508	101	
13	0	0	0	0	508	100	
14	0	0	0	0	510	102	
15	0	0	0	0	512	100	
0	0	0	0	0	512	102	
1	0	0	0	0	514	101	
2	0	0	0	0	516	102	
3	0	0	0	0	518	100	
4	0	0	0	0	519	102	
5	0	0	0	0	518	100	
6	0	0	0	0	519	102	
7	0	0	0	0	519	101	
8	0	0	0	0	516	100	
9	0	0	0	0	515	102	
10	0	0	0	0	515	100	
11	0	0	0	0	514	102	
12	0	0	0	0	514	100	
13	0	0	0	0	513	102	
14	0	0	0	0	514	100	
15	0	0	0	0	515	102	
0	0	0	0	0	517	101	
1	0	0	0	0	517	101	
2	0	0	0	0	516	101	
3	0	0	0	0	515	101	
4	0	0	0	0	514	101	
5	0	0	0	0	512	100	
6	0	0	0	0	510	102	
7	0	0	0	0	508	100	
8	0	0	0	0	508	102	
9	0	0	0	0	506	100	
10	0	0	0	0	504	102	
11	0	0	0	0	503	100	
12	0	0	0	0	504	102	
13	0	0	0	0	506	100	
14	0	0	0	0	507	102	
15	0	0	0	0	508	100	
0	0	0	0	0	510	102	
1	0	0	0	0	510	100	
2	0	0	0	0	511	101	
3	0	0	0	0	509	100	
4	0	0	0	0	507	102	
5	0	0	0	0	505	100	
6	0	0	0	0	503	102	
7	0	0	0	0	502	101	
8	0	0	0	0	501	102	
9	0	0	0	0	500	101	
10	0	0	0	0	499	102	
11	0	0	0	0	498	101	
12	0	0	0	0	496	102	
13	0	0	0	0	495	101	
14	0	0	0	0	495	101	
15	0	0	0	0	494	101	
0	0	0	0	0	493	102	
1	0	0	0	0	491	101	
2	0	0	0	0	487	100	
3	0	0	0	0	486	102	
4	0	0	0	0	484	100	
5	0	0	0	0	483	102	
6	0	0	0	0	483	100	
7	0	0	0	0	483	102	
8	0	0	0	0	481	100	
9	0	0	0	0	480	102	
10	0	0	0	0	478	101	
11	0	0	0	0	477	100	
12	0	0	0	0	477	102	
13	0	0	0	0	475	100	
14	0	0	0	0	473	102	
15	0	0	0	0	472	100	
0	0	0	0	0	474	102	
1	0	0	0	0	475	100	
2	0	0	0	0	474	102	
3	0	0	0	0	473	101	
4	0	0	0	0	473	102	
5	0	0	0	0	476	101	
6	0	0	0	0	476	101	
7	0	0	0	0	477	101	
8	0	0	0	0	477	101	
9	0	0	0	0	475	101	
10	0	0	0	0	475	100	
11	0	0	0	0	475	102	
12	0	0	0	0	474	100	
13	0	0	0	0	472	102	
14	0	0	0	0	472	100	
15	0	0	0	0	473	102	
0	0	0	0	0	472	100	
1	0	0	0	0	470	102	
2	0	0	0	0	468	100	
3	0	0	0	0	469	102	
4	0	0	0	0	471	100	
5	0	0	0	0	471	102	
6	0	0	0	0	471	100	
7	0	0	0	0	470	102	
8	0	0	0	0	467	101	
9	0	0	0	0	466	102	
10	0	0	0	0	466	101	
11	0	0	0	0	466	100	
12	0	0	0	0	465	102	
13	0	0	0	0	465	100	
14	0	0	0	0	467	102	
15	0	0	0	0	468	100	
0	0	0	0	0	469	102	
1	0	0	0	0	470	100	
2	0	0	0	0	471	102	
3	0	0	0	0	472	101	
4	0	0	0	0	473	102	
5	0	0	0	0	472	101	
6	0	0	0	0	472	101	
7	0	0	0	0	471	101	
8	0	0	0	0	469	101	
9	0	0	0	0	465	101	
10	0	0	0	0	462	101	
11	0	0	0	0	460	101	
12	0	0	0	0	456	100	
13	0	0	0	0	454	102	
14	0	0	0	0	452	100	
15	0	0	0	0	452	102	
0	0	0	0	0	453	100	
1	0	0	0	0	455	102	
2	0	0	0	0	456	101	
3	0	0	0	0	457	102	
4	0	0	0	0	458	101	
5	0	0	0	0	460	101	
6	0	0	0	0	463	101	
7	0	0	0	0	467	101	
8	0	0	0	0	472	102	
9	0	0	0	0	478	100	
10	0	0	0	0	486	102	
11	0	0	0	0	496	100	
12	0	0	0	0	507	102	
13	0	0	0	0	518	100	
14	0	0	0	0	529	101	
15	0	0	0	0	540	101	
0	0	0	0	0	550	100	
1	0	0	0	0	560	101	
2	0	0	0	0	569	99	
3	0	0	0	0	578	101	
4	0	0	0	0	586	99	
5	0	0	0	0	593	101	
6	0	0	0	0	597	100	
7	0	0	0	0	600	101	
8	0	0	0	0	604	101	
9	0	0	0	0	607	100	
10	0	0	0	0	607	101	
11	0	0	0	0	606	100	
12	0	0	0	0	605	101	
13	0	0	0	0	605	99	
14	0	0	0	0	604	101	
15	0	0	0	0	601	100	
0	0	0	0	0	595	102	
1	0	0	0	0	588	100	
2	0	0	0	0	580	101	
3	0	0	0	0	572	100	
4	0	0	0	0	564	101	
5	0	0	0	0	557	101	
6	0	0	0	0	548	100	
7	0	0	0	0	540	101	
8	0	0	0	0	531	100	
9	0	0	0	0	521	101	
10	0	0	0	0	510	100	
11	0	0	0	0	497	102	
12	0	0	0	0	483	100	
13	0	0	0	0	469	102	
14	0	0	0	0	455	101	
15	0	0	0	0	443	101	
0	0	0	0	0	434	101	
1	0	0	0	0	427	101	
2	0	0	0	0	422	102	
3	0	0	0	0	419	100	
4	0	0	0	0	417	102	
5	0	0	0	0	415	100	
6	0	0	0	0	416	102	
7	0	0	0	0	418	101	
8	0	0	0	0	417	102	
9	0	0	0	0	416	101	
10	0	0	0	0	415	102	
11	0	0	0	0	414	102	
12	0	0	0	0	415	100	
13	0	0	0	0	418	102	
14	0	0	0	0	422	100	
15	0	0	0	0	425	102	
0	0	0	0	0	428	101	
1	0	0	0	0	431	102	
2	0	0	0	0	434	101	
3	0	0	0	0	438	102	
4	0	0	0	0	439	101	
5	0	0	0	0	440	100	
6	0	0	0	0	440	102	
7	0	0	0	0	439	101	
8	0	0	0	0	439	101	
9	0	0	0	0	439	100	
10	0	0	0	0	438	102	
11	0	0	0	0	436	100	
12	0	0	0	0	437	102	
13	0	0	0	0	438	101	
14	0	0	0	0	438	102	
15	0	0	0	0	438	101	
0	0	0	0	0	439	102	
1	0	0	0	0	441	101	
2	0	0	0	0	444	102	
3	0	0	0	0	445	101	
4	0	0	0	0	447	102	
5	0	0	0	0	448	101	
6	0	0	0	0	450	102	
7	0	0	0	0	451	101	
8	0	0	0	0	452	100	
9	0	0	0	0	452	102	
10	0	0	0	0	453	100	
11	0	0	0	0	453	102	
12	0	0	0	0	452	100	
13	0	0	0	0	451	102	
14	0	0	0	0	451	100	
15	0	0	0	0	452	102	
0	0	0	0	0	453	100	
1	0	0	0	0	454	102	
2	0	0	0	0	454	100	
3	0	0	0	0	455	102	
4	0	0	0	0	454	101	
5	0	0	0	0	456	102	
6	0	0	0	0	458	101	
7	0	0	0	0	459	102	
8	0	0	0	0	461	100	
9	0	0	0	0	463	102	
10	0	0	0	0	464	100	
11	0	0	0	0	467	102	
12	0	0	0	0	468	100	
13	0	0	0	0	470	102	
14	0	0	0	0	470	100	
15	0	0	0	0	470	102	
0	0	0	0	0	470	101	
1	0	0	0	0	470	101	
2	0	0	0	0	469	101	
3	0	0	0	0	467	102	
4	0	0	0	0	465	101	
5	0	0	0	0	467	101	
6	0	0	0	0	466	101	
7	0	0	0	0	466	101	
8	0	0	0	0	465	101	
9	0	0	0	0	466	100	
10	0	0	0	0	467	101	
11	0	0	0	0	467	102	
12	0	0	0	0	468	101	
13	0	0	0	0	469	101	
14	0	0	0	0	470	101	
15	0	0	0	0	471	100	
0	0	0	0	0	471	101	
1	0	0	0	0	472	100	
2	0	0	0	0	472	101	
3	0	0	0	0	473	100	
4	0	0	0	0	473	102	
5	0	0	0	0	473	100	
6	0	0	0	0	475	102	
7	0	0	0	0	475	100	
8	0	0	0	0	476	102	
9	0	0	0	0	475	100	
10	0	0	0	0	475	102	
11	0	0	0	0	475	100	
12	0	0	0	0	474	101	
13	0	0	0	0	472	100	
14	0	0	0	0	471	101	
15	0	0	0	0	468	100	
0	0	0	0	0	466	102	
1	0	0	0	0	464	100	
2	0	0	0	0	463	102	
3	0	0	0	0	463	100	
4	0	0	0	0	464	102	
5	0	0	0	0	466	101	
6	0	0	0	0	468	101	
7	0	0	0	0	472	101	
8	0	0	0	0	474	100	
9	0	0	0	0	477	101	
10	0	0	0	0	479	100	
11	0	0	0	0	479	101	
12	0	0	0	0	478	100	
13	0	0	0	0	477	102	
14	0	0	0	0	476	100	
15	0	0	0	0	475	101	
0	0	0	0	0	473	100	
1	0	0	0	0	473	101	
2	0	0	0	0	473	100	
3	0	0	0	0	473	102	
4	0	0	0	0	473	100	
5	0	0	0	0	475	102	
6	0	0	0	0	475	101	
7	0	0	0	0	476	102	
8	0	0	0	0	478	100	
9	0	0	0	0	478	101	
10	0	0	0	0	477	101	
11	0	0	0	0	476	100	
12	0	0	0	0	475	101	
13	0	0	0	0	475	100	
14	0	0	0	0	474	101	
15	0	0	0	0	474	100	
0	0	0	0	0	474	101	
1	0	0	0	0	475	100	
2	0	0	0	0	476	102	
3	0	0	0	0	476	100	
4	0	0	0	0	475	102	
5	0	0	0	0	473	101	
6	0	0	0	0	473	102	
7	0	0	0	0	472	100	
8	0	0	0	0	471	102	
9	0	0	0	0	471	101	
10	0	0	0	0	471	100	
11	0	0	0	0	472	101	
12	0	0	0	0	472	100	
13	0	0	0	0	473	101	
14	0	0	0	0	476	100	
15	0	0	0	0	478	101	
0	0	0	0	0	478	100	
1	0	0	0	0	477	101	
2	0	0	0	0	477	100	
3	0	0	0	0	475	101	
4	0	0	0	0	475	100	
5	0	0	0	0	475	102	
6	0	0	0	0	475	100	
7	0	0	0	0	476	102	
8	0	0	0	0	477	100	
9	0	0	0	0	477	102	
10	0	0	0	0	478	101	
11	0	0	0	0	480	101	
12	0	0	0	0	483	101	
13	0	0	0	0	485	101	
14	0	0	0	0	485	101	
15	0	0	0	0	484	100	
0	0	0	0	0	486	101	
1	0	0	0	0	487	100	
2	0	0	0	0	488	101	
3	0	0	0	0	487	100	
4	0	0	0	0	487	101	
5	0	0	0	0	488	100	
6	0	0	0	0	488	101	
7	0	0	0	0	488	100	
8	0	0	0	0	486	101	
9	0	0	0	0	486	100	
10	0	0	0	0	485	101	
11	0	0	0	0	485	100	
12	0	0	0	0	485	101	
13	0	0	0	0	487	100	
14	0	0	0	0	490	102	
15	0	0	0	0	490	100	
0	0	0	0	0	491	102	
1	0	0	0	0	491	101	
2	0	0	0	0	491	100	
3	0	0	0	0	491	101	
4	0	0	0	0	490	100	
5	0	0	0	0	491	101	
6	0	0	0	0	491	101	
7	0	0	0	0	490	101	
8	0	0	0	0	489	101	
9	0	0	0	0	487	101	
10	0	0	0	0	487	100	
11	0	0	0	0	485	101	
12	0	0	0	0	483	100	
13	0	0	0	0	483	101	
14	0	0	0	0	483	100	
15	0	0	0	0	484	101	
0	0	0	0	0	485	101	
1	0	0	0	0	486	101	
2	0	0	0	0	487	101	
3	0	0	0	0	488	101	
4	0	0	0	0	490	100	
5	0	0	0	0	490	101	
6	0	0	0	0	491	100	
7	0	0	0	0	490	101	
8	0	0	0	0	489	100	
9	0	0	0	0	489	102	
10	0	0	0	0	490	100	
11	0	0	0	0	492	102	
12	0	0	0	0	494	101	
13	0	0	0	0	495	100	
14	0	0	0	0	496	101	
15	0	0	0	0	497	100	
0	0	0	0	0	499	101	
1	0	0	0	0	499	100	
2	0	0	0	0	499	101	
3	0	0	0	0	497	100	
4	0	0	0	0	497	101	
5	0	0	0	0	496	100	
6	0	0	0	0	496	101	
7	0	0	0	0	498	100	
8	0	0	0	0	500	101	
9	0	0	0	0	501	100	
10	0	0	0	0	503	101	
11	0	0	0	0	504	100	
12	0	0	0	0	504	101	
13	0	0	0	0	504	100	
14	0	0	0	0	504	102	
15	0	0	0	0	504	100	
0	0	0	0	0	504	102	
1	0	0	0	0	504	101	
2	0	0	0	0	507	101	
3	0	0	0	0	508	101	
4	0	0	0	0	508	101	
5	0	0	0	0	508	101	
6	0	0	0	0	508	101	
7	0	0	0	0	509	101	
8	0	0	0	0	508	100	
9	0	0	0	0	507	101	
10	0	0	0	0	508	100	
11	0	0	0	0	508	101	
12	0	0	0	0	508	100	
13	0	0	0	0	509	101	
14	0	0	0	0	511	100	
15	0	0	0	0	514	101	
0	0	0	0	0	516	99	
1	0	0	0	0	517	101	
2	0	0	0	0	518	99	
3	0	0	0	0	518	101	
4	0	0	0	0	518	100	
5	0	0	0	0	518	101	
6	0	0	0	0	519	100	
7	0	0	0	0	518	101	
8	0	0	0	0	516	100	
9	0	0	0	0	515	102	
10	0	0	0	0	514	100	
11	0	0	0	0	514	102	
12	0	0	0	0	513	101	
13	0	0	0	0	512	100	
14	0	0	0	0	512	101	
15	0	0	0	0	512	100	
0	0	0	0	0	512	101	
1	0	0	0	0	512	100	
2	0	0	0	0	512	101	
3	0	0	0	0	513	100	
4	0	0	0	0	515	101	
5	0	0	0	0	518	100	
6	0	0	0	0	519	101	
7	0	0	0	0	520	100	
8	0	0	0	0	522	102	
9	0	0	0	0	521	100	
10	0	0	0	0	520	101	
11	0	0	0	0	519	101	
12	0	0	0	0	516	100	
13	0	0	0	0	516	101	
14	0	0	0	0	514	100	
15	0	0	0	0	513	101	
0	0	0	0	0	511	100	
1	0	0	0	0	510	101	
2	0	0	0	0	508	100	
3	0	0	0	0	508	101	
4	0	0	0	0	508	100	
5	0	0	0	0	507	101	
6	0	0	0	0	506	100	
7	0	0	0	0	505	101	
8	0	0	0	0	502	99	
9	0	0	0	0	499	101	
10	0	0	0	0	498	100	
11	0	0	0	0	496	101	
12	0	0	0	0	495	100	
13	0	0	0	0	494	101	
14	0	0	0	0	494	100	
15	0	0	0	0	493	101	
0	0	0	0	0	492	100	
1	0	0	0	0	492	101	
2	0	0	0	0	494	100	
3	0	0	0	0	494	101	
4	0	0	0	0	493	100	
5	0	0	0	0	491	102	
6	0	0	0	0	488	101	
7	0	0	0	0	487	101	
8	0	0	0	0	486	101	
9	0	0	0	0	485	100	
10	0	0	0	0	483	101	
11	0	0	0	0	483	100	
12	0	0	0	0	483	101	
13	0	0	0	0	481	101	
14	0	0	0	0	480	101	
15	0	0	0	0	478	100	
0	0	0	0	0	476	101	
1	0	0	0	0	474	100	
2	0	0	0	0	473	101	
3	0	0	0	0	472	100	
4	0	0	0	0	472	101	
5	0	0	0	0	472	100	
6	0	0	0	0	472	101	
7	0	0	0	0	472	100	
8	0	0	0	0	471	101	
9	0	0	0	0	469	100	
10	0	0	0	0	469	101	
11	0	0	0	0	470	101	
12	0	0	0	0	467	101	
13	0	0	0	0	464	101	
14	0	0	0	0	464	101	
15	0	0	0	0	464	100	
0	0	0	0	0	464	101	
1	0	0	0	0	465	101	
2	0	0	0	0	466	101	
3	0	0	0	0	466	102	
4	0	0	0	0	467	100	
5	0	0	0	0	467	102	
6	0	0	0	0	467	101	
7	0	0	0	0	467	101	
8	0	0	0	0	465	101	
9	0	0	0	0	464	100	
10	0	0	0	0	463	101	
11	0	0	0	0	464	100	
12	0	0	0	0	464	101	
13	0	0	0	0	464	100	
14	0	0	0	0	464	101	
15	0	0	0	0	463	100	
0	0	0	0	0	461	101	
1	0	0	0	0	461	100	
2	0	0	0	0	459	101	
3	0	0	0	0	459	100	
4	0	0	0	0	460	101	
5	0	0	0	0	459	100	
6	0	0	0	0	459	101	
7	0	0	0	0	459	100	
8	0	0	0	0	460	102	
9	0	0	0	0	459	100	
10	0	0	0	0	459	101	
11	0	0	0	0	459	101	
12	0	0	0	0	457	100	
13	0	0	0	0	457	101	
14	0	0	0	0	458	100	
15	0	0	0	0	460	101	
0	0	0	0	0	462	100	
1	0	0	0	0	464	101	
2	0	0	0	0	467	100	
3	0	0	0	0	470	102	
4	0	0	0	0	473	100	
5	0	0	0	0	474	101	
6	0	0	0	0	475	101	
7	0	0	0	0	476	100	
8	0	0	0	0	477	101	
9	0	0	0	0	479	100	
10	0	0	0	0	480	101	
11	0	0	0	0	480	100	
12	0	0	0	0	481	101	
13	0	0	0	0	481	101	
14	0	0	0	0	480	100	
15	0	0	0	0	480	102	
0	0	0	0	0	479	101	
1	0	0	0	0	478	101	
2	0	0	0	0	477	101	
3	0	0	0	0	477	101	
4	0	0	0	0	476	101	
5	0	0	0	0	476	101	
6	0	0	0	0	478	101	
7	0	0	0	0	478	100	
8	0	0	0	0	478	101	
9	0	0	0	0	478	100	
10	0	0	0	0	477	101	
11	0	0	0	0	476	100	
12	0	0	0	0	476	101	
13	0	0	0	0	478	100	
14	0	0	0	0	479	101	
15	0	0	0	0	480	100	
0	0	0	0	0	479	101	
1	0	0	0	0	479	100	
2	0	0	0	0	481	101	
3	0	0	0	0	483	100	
4	0	0	0	0	484	101	
5	0	0	0	0	487	100	
6	0	0	0	0	489	101	
7	0	0	0	0	490	100	
8	0	0	0	0	490	101	
9	0	0	0	0	491	100	
10	0	0	0	0	490	101	
11	0	0	0	0	487	100	
12	0	0	0	0	487	101	
13	0	0	0	0	488	100	
14	0	0	0	0	488	101	
15	0	0	0	0	489	100	
0	0	0	0	0	489	102	
1	0	0	0	0	490	101	
2	0	0	0	0	491	100	
3	0	0	0	0	490	101	
4	0	0	0	0	490	100	
5	0	0	0	0	488	101	
6	0	0	0	0	489	100	
7	0	0	0	0	488	101	
8	0	0	0	0	487	100	
9	0	0	0	0	487	101	
10	0	0	0	0	486	100	
11	0	0	0	0	486	101	
12	0	0	0	0	487	101	
13	0	0	0	0	487	100	
14	0	0	0	0	488	101	
15	0	0	0	0	487	100	
0	0	0	0	0	487	101	
1	0	0	0	0	486	100	
2	0	0	0	0	486	101	
3	0	0	0	0	486	100	
4	0	0	0	0	486	101	
5	0	0	0	0	488	100	
6	0	0	0	0	489	101	
7	0	0	0	0	492	100	
8	0	0	0	0	494	101	
9	0	0	0	0	493	100	
10	0	0	0	0	494	101	
11	0	0	0	0	495	100	
12	0	0	0	0	495	101	
13	0	0	0	0	495	100	
14	0	0	0	0	494	101	
15	0	0	0	0	495	100	
0	0	0	0	0	496	101	
1	0	0	0	0	496	100	
2	0	0	0	0	495	101	
3	0	0	0	0	494	100	
4	0	0	0	0	494	101	
5	0	0	0	0	496	100	
6	0	0	0	0	498	101	
7	0	0	0	0	501	100	
8	0	0	0	0	503	101	
9	0	0	0	0	504	100	
10	0	0	0	0	504	101	
11	0	0	0	0	503	101	
12	0	0	0	0	502	100	
13	0	0	0	0	502	101	
14	0	0	0	0	501	100	
15	0	0	0	0	500	101	
0	0	0	0	0	499	100	
1	0	0	0	0	499	101	
2	0	0	0	0	500	99	
3	0	0	0	0	502	101	
4	0	0	0	0	501	100	
5	0	0	0	0	500	101	
6	0	0	0	0	500	100	
7	0	0	0	0	500	101	
8	0	0	0	0	499	100	
9	0	0	0	0	501	101	
10	0	0	0	0	503	100	
11	0	0	0	0	503	101	
12	0	0	0	0	502	101	
13	0	0	0	0	502	100	
14	0	0	0	0	502	101	
15	0	0	0	0	503	100	
0	0	0	0	0	501	101	
1	0	0	0	0	499	101	
2	0	0	0	0	500	100	
3	0	0	0	0	503	101	
4	0	0	0	0	505	100	
5	0	0	0	0	507	101	
6	0	0	0	0	509	100	
7	0	0	0	0	511	101	
8	0	0	0	0	512	100	
9	0	0	0	0	512	101	
10	0	0	0	0	512	100	
11	0	0	0	0	512	101	
12	0	0	0	0	512	100	
13	0	0	0	0	511	101	
14	0	0	0	0	511	100	
15	0	0	0	0	512	101	
0	0	0	0	0	511	100	
1	0	0	0	0	512	102	
2	0	0	0	0	510	100	
3	0	0	0	0	511	102	
4	0	0	0	0	511	100	
5	0	0	0	0	511	102	
6	0	0	0	0	511	100	
7	0	0	0	0	509	101	
8	0	0	0	0	506	100	
9	0	0	0	0	505	101	
10	0	0	0	0	505	100	
11	0	0	0	0	506	101	
12	0	0	0	0	506	101	
13	0	0	0	0	505	100	
14	0	0	0	0	504	101	
15	0	0	0	0	504	99	
0	0	0	0	0	504	101	
1	0	0	0	0	505	100	
2	0	0	0	0	505	101	
3	0	0	0	0	505	100	
4	0	0	0	0	503	101	
5	0	0	0	0	503	100	
6	0	0	0	0	504	101	
7	0	0	0	0	504	100	
8	0	0	0	0	504	101	
9	0	0	0	0	503	100	
10	0	0	0	0	503	102	
11	0	0	0	0	505	100	
12	0	0	0	0	505	102	
13	0	0	0	0	506	101	
14	0	0	0	0	505	100	
15	0	0	0	0	504	101	
0	0	0	0	0	501	102	
1	0	0	0	0	499	100	
2	0	0	0	0	498	101	
3	0	0	0	0	497	101	
4	0	0	0	0	498	101	
5	0	0	0	0	500	101	
6	0	0	0	0	502	100	
7	0	0	0	0	504	101	
8	0	0	0	0	507	100	
9	0	0	0	0	509	101	
10	0	0	0	0	510	100	
11	0	0	0	0	510	101	
12	0	0	0	0	510	100	
13	0	0	0	0	509	101	
14	0	0	0	0	509	100	
15	0	0	0	0	507	101	
0	0	0	0	0	507	100	
1	0	0	0	0	506	101	
2	0	0	0	0	504	101	
3	0	0	0	0	503	100	
4	0	0	0	0	503	101	
5	0	0	0	0	502	100	
6	0	0	0	0	503	101	
7	0	0	0	0	502	100	
8	0	0	0	0	503	101	
9	0	0	0	0	503	100	
10	0	0	0	0	502	101	
11	0	0	0	0	502	100	
12	0	0	0	0	502	101	
13	0	0	0	0	502	100	
14	0	0	0	0	503	101	
15	0	0	0	0	503	100	
0	0	0	0	0	503	101	
1	0	0	0	0	502	100	
2	0	0	0	0	503	101	
3	0	0	0	0	504	101	
4	0	0	0	0	504	100	
5	0	0	0	0	504	101	
6	0	0	0	0	504	100	
7	0	0	0	0	505	100	
8	0	0	0	0	506	101	
9	0	0	0	0	505	100	
10	0	0	0	0	506	101	
11	0	0	0	0	506	100	
12	0	0	0	0	508	101	
13	0	0	0	0	510	99	
14	0	0	0	0	510	101	
15	0	0	0	0	510	100	
0	0	0	0	0	510	101	
1	0	0	0	0	511	100	
2	0	0	0	0	509	101	
3	0	0	0	0	507	101	
4	0	0	0	0	506	101	
5	0	0	0	0	505	101	
6	0	0	0	0	504	100	
7	0	0	0	0	504	101	
8	0	0	0	0	506	99	
9	0	0	0	0	507	101	
10	0	0	0	0	508	99	
11	0	0	0	0	508	101	
12	0	0	0	0	510	100	
13	0	0	0	0	512	101	
14	0	0	0	0	513	100	
15	0	0	0	0	511	101	
0	0	0	0	0	510	100	
1	0	0	0	0	508	101	
2	0	0	0	0	505	100	
3	0	0	0	0	503	101	
4	0	0	0	0	500	101	
5	0	0	0	0	499	100	
6	0	0	0	0	499	101	
7	0	0	0	0	499	100	
8	0	0	0	0	500	101	
9	0	0	0	0	501	100	
10	0	0	0	0	502	101	
11	0	0	0	0	503	100	
12	0	0	0	0	503	101	
13	0	0	0	0	506	100	
14	0	0	0	0	507	101	
15	0	0	0	0	506	100	
0	0	0	0	0	505	101	
1	0	0	0	0	504	100	
2	0	0	0	0	504	101	
3	0	0	0	0	503	100	
4	0	0	0	0	503	101	
5	0	0	0	0	503	100	
6	0	0	0	0	503	100	
7	0	0	0	0	504	101	
8	0	0	0	0	505	100	
9	0	0	0	0	504	101	
10	0	0	0	0	504	100	
11	0	0	0	0	504	101	
12	0	0	0	0	505	99	
13	0	0	0	0	505	101	
14	0	0	0	0	504	100	
15	0	0	0	0	503	101	
0	0	0	0	0	502	100	
1	0	0	0	0	502	101	
2	0	0	0	0	503	100	
3	0	0	0	0	504	101	
4	0	0	0	0	505	99	
5	0	0	0	0	506	101	
6	0	0	0	0	505	100	
7	0	0	0	0	506	101	
8	0	0	0	0	507	101	
9	0	0	0	0	510	101	
10	0	0	0	0	512	100	
11	0	0	0	0	512	101	
12	0	0	0	0	511	99	
13	0	0	0	0	510	101	
14	0	0	0	0	509	100	
15	0	0	0	0	507	101	
0	0	0	0	0	506	100	
1	0	0	0	0	505	101	
2	0	0	0	0	504	100	
3	0	0	0	0	504	101	
4	0	0	0	0	504	100	
5	0	0	0	0	505	101	
6	0	0	0	0	505	101	
7	0	0	0	0	504	100	
8	0	0	0	0	502	101	
9	0	0	0	0	502	100	
10	0	0	0	0	503	101	
11	0	0	0	0	503	100	
12	0	0	0	0	504	101	
13	0	0	0	0	504	100	
14	0	0	0	0	503	101	
15	0	0	0	0	503	100	
0	0	0	0	0	503	101	
1	0	0	0	0	504	100	
2	0	0	0	0	505	101	
3	0	0	0	0	507	101	
4	0	0	0	0	508	100	
5	0	0	0	0	508	101	
6	0	0	0	0	509	100	
7	0	0	0	0	510	101	
8	0	0	0	0	510	100	
9	0	0	0	0	509	101	
10	0	0	0	0	507	100	
11	0	0	0	0	506	101	
12	0	0	0	0	507	100	
13	0	0	0	0	505	101	
14	0	0	0	0	504	100	
15	0	0	0	0	502	101	
0	0	0	0	0	500	100	
1	0	0	0	0	500	101	
2	0	0	0	0	500	100	
3	0	0	0	0	502	101	
4	0	0	0	0	502	101	
5	0	0	0	0	502	100	
6	0	0	0	0	502	101	
7	0	0	0	0	501	99	
8	0	0	0	0	499	101	
9	0	0	0	0	499	100	
10	0	0	0	0	498	101	
11	0	0	0	0	499	101	
12	0	0	0	0	499	100	
13	0	0	0	0	500	101	
14	0	0	0	0	503	99	
15	0	0	0	0	503	101	
0	0	0	0	0	503	100	
1	0	0	0	0	502	101	
2	0	0	0	0	502	99	
3	0	0	0	0	500	101	
4	0	0	0	0	500	100	
5	0	0	0	0	501	101	
6	0	0	0	0	501	100	
7	0	0	0	0	503	101	
8	0	0	0	0	504	100	
9	0	0	0	0	504	101	
10	0	0	0	0	503	100	
11	0	0	0	0	502	101	
12	0	0	0	0	501	100	
13	0	0	0	0	501	101	
14	0	0	0	0	501	100	
15	0	0	0	0	500	101	
0	0	0	0	0	500	100	
1	0	0	0	0	500	101	
2	0	0	0	0	500	100	
3	0	0	0	0	502	101	
4	0	0	0	0	504	100	
5	0	0	0	0	507	100	
6	0	0	0	0	508	101	
7	0	0	0	0	507	99	
8	0	0	0	0	505	101	
9	0	0	0	0	504	100	
10	0	0	0	0	503	101	
11	0	0	0	0	502	100	
12	0	0	0	0	502	101	
13	0	0	0	0	500	101	
14	0	0	0	0	499	100	
15	0	0	0	0	499	101	
0	0	0	0	0	501	100	
1	0	0	0	0	502	100	
2	0	0	0	0	502	101	
3	0	0	0	0	504	100	
4	0	0	0	0	506	101	
5	0	0	0	0	509	100	
6	0	0	0	0	512	101	
7	0	0	0	0	514	100	
8	0	0	0	0	515	101	
9	0	0	0	0	516	99	
10	0	0	0	0	516	101	
11	0	0	0	0	516	99	
12	0	0	0	0	516	101	
13	0	0	0	0	514	99	
14	0	0	0	0	512	101	
15	0	0	0	0	511	100	
0	0	0	0	0	510	101	
1	0	0	0	0	512	99	
2	0	0	0	0	513	101	
3	0	0	0	0	514	99	
4	0	0	0	0	515	101	
5	0	0	0	0	515	99	
6	0	0	0	0	514	101	
7	0	0	0	0	513	100	
8	0	0	0	0	512	101	
9	0	0	0	0	513	100	
10	0	0	0	0	513	101	
11	0	0	0	0	513	99	
12	0	0	0	0	512	101	
13	0	0	0	0	510	100	
14	0	0	0	0	510	101	
15	0	0	0	0	509	100	
0	0	0	0	0	509	101	
1	0	0	0	0	509	99	
2	0	0	0	0	510	101	
3	0	0	0	0	511	99	
4	0	0	0	0	511	101	
5	0	0	0	0	511	99	
6	0	0	0	0	508	101	
7	0	0	0	0	507	99	
8	0	0	0	0	504	101	
9	0	0	0	0	502	99	
10	0	0	0	0	501	101	
11	0	0	0	0	502	100	
12	0	0	0	0	503	101	
13	0	0	0	0	505	100	
14	0	0	0	0	507	101	
15	0	0	0	0	508	100	
0	0	0	0	0	509	101	
1	0	0	0	0	512	101	
2	0	0	0	0	515	100	
3	0	0	0	0	517	100	
4	0	0	0	0	518	101	
5	0	0	0	0	518	100	
6	0	0	0	0	518	101	
7	0	0	0	0	516	99	
8	0	0	0	0	515	101	
9	0	0	0	0	515	99	
10	0	0	0	0	514	101	
11	0	0	0	0	512	99	
12	0	0	0	0	512	101	
13	0	0	0	0	512	100	
14	0	0	0	0	511	101	
15	0	0	0	0	511	99	
0	0	0	0	0	510	101	
1	0	0	0	0	510	99	
2	0	0	0	0	510	101	
3	0	0	0	0	509	99	
4	0	0	0	0	508	101	
5	0	0	0	0	508	99	
6	0	0	0	0	509	101	
7	0	0	0	0	511	101	
8	0	0	0	0	511	100	
9	0	0	0	0	512	101	
10	0	0	0	0	511	100	
11	0	0	0	0	511	101	
12	0	0	0	0	510	101	
13	0	0	0	0	508	100	
14	0	0	0	0	508	101	
15	0	0	0	0	508	100	
0	0	0	0	0	509	101	
1	0	0	0	0	510	101	
2	0	0	0	0	512	100	
3	0	0	0	0	513	101	
4	0	0	0	0	513	99	
5	0	0	0	0	513	101	
6	0	0	0	0	512	99	
7	0	0	0	0	511	101	
8	0	0	0	0	511	99	
9	0	0	0	0	512	101	
10	0	0	0	0	512	101	
11	0	0	0	0	512	100	
12	0	0	0	0	512	101	
13	0	0	0	0	512	101	
14	0	0	0	0	512	100	
15	0	0	0	0	514	101	
0	0	0	0	0	515	100	
1	0	0	0	0	514	101	
2	0	0	0	0	516	100	
3	0	0	0	0	517	100	
4	0	0	0	0	516	101	
5	0	0	0	0	516	101	
6	0	0	0	0	516	100	
7	0	0	0	0	516	101	
8	0	0	0	0	517	99	
9	0	0	0	0	519	101	
10	0	0	0	0	518	100	
11	0	0	0	0	519	101	
12	0	0	0	0	518	100	
13	0	0	0	0	516	101	
14	0	0	0	0	515	99	
15	0	0	0	0	514	101	
0	0	0	0	0	512	100	
1	0	0	0	0	511	101	
2	0	0	0	0	511	100	
3	0	0	0	0	510	101	
4	0	0	0	0	510	101	
5	0	0	0	0	508	100	
6	0	0	0	0	507	101	
7	0	0	0	0	505	99	
8	0	0	0	0	505	101	
9	0	0	0	0	505	100	
10	0	0	0	0	506	101	
11	0	0	0	0	506	100	
12	0	0	0	0	507	101	
13	0	0	0	0	508	100	
14	0	0	0	0	511	100	
15	0	0	0	0	513	101	
0	0	0	0	0	515	99	
1	0	0	0	0	517	101	
2	0	0	0	0	519	99	
3	0	0	0	0	518	101	
4	0	0	0	0	518	99	
5	0	0	0	0	517	101	
6	0	0	0	0	516	99	
7	0	0	0	0	515	101	
8	0	0	0	0	514	99	
9	0	0	0	0	513	101	
10	0	0	0	0	512	99	
11	0	0	0	0	512	101	
12	0	0	0	0	512	100	
13	0	0	0	0	513	101	
14	0	0	0	0	515	100	
15	0	0	0	0	515	101	
0	0	0	0	0	515	100	
1	0	0	0	0	515	100	
2	0	0	0	0	515	101	
3	0	0	0	0	514	100	
4	0	0	0	0	515	101	
5	0	0	0	0	515	101	
6	0	0	0	0	515	101	
7	0	0	0	0	515	101	
8	0	0	0	0	515	100	
9	0	0	0	0	514	101	
10	0	0	0	0	513	99	
11	0	0	0	0	514	101	
12	0	0	0	0	515	100	
13	0	0	0	0	516	101	
14	0	0	0	0	514	99	
15	0	0	0	0	512	101	
0	0	0	0	0	513	99	
1	0	0	0	0	515	101	
2	0	0	0	0	516	99	
3	0	0	0	0	516	101	
4	0	0	0	0	515	99	
5	0	0	0	0	515	101	
6	0	0	0	0	515	100	
7	0	0	0	0	516	101	
8	0	0	0	0	517	100	
9	0	0	0	0	517	101	
10	0	0	0	0	517	100	
11	0	0	0	0	518	101	
12	0	0	0	0	518	100	
13	0	0	0	0	519	101	
14	0	0	0	0	519	100	
15	0	0	0	0	520	101	
0	0	0	0	0	519	100	
1	0	0	0	0	518	101	
2	0	0	0	0	516	101	
3	0	0	0	0	512	100	
4	0	0	0	0	509	101	
5	0	0	0	0	508	100	
6	0	0	0	0	507	101	
7	0	0	0	0	508	100	
8	0	0	0	0	508	101	
9	0	0	0	0	509	100	
10	0	0	0	0	509	101	
11	0	0	0	0	510	100	
12	0	0	0	0	512	101	
13	0	0	0	0	513	100	
14	0	0	0	0	515	101	
15	0	0	0	0	515	99	
0	0	0	0	0	516	101	
1	0	0	0	0	517	99	
2	0	0	0	0	515	101	
3	0	0	0	0	515	100	
4	0	0	0	0	514	101	
5	0	0	0	0	514	99	
6	0	0	0	0	515	101	
7	0	0	0	0	515	99	
8	0	0	0	0	515	101	
9	0	0	0	0	514	99	
10	0	0	0	0	513	101	
11	0	0	0	0	512	100	
12	0	0	0	0	512	101	
13	0	0	0	0	512	101	
14	0	0	0	0	511	101	
15	0	0	0	0	511	100	
0	0	0	0	0	511	101	
1	0	0	0	0	511	100	
2	0	0	0	0	512	101	
3	0	0	0	0	514	100	
4	0	0	0	0	514	101	
5	0	0	0	0	512	100	
6	0	0	0	0	511	101	
7	0	0	0	0	511	100	
8	0	0	0	0	512	101	
9	0	0	0	0	512	101	
10	0	0	0	0	511	101	
11	0	0	0	0	510	101	
12	0	0	0	0	511	100	
13	0	0	0	0	511	101	
14	0	0	0	0	511	100	
15	0	0	0	0	513	101	
0	0	0	0	0	513	99	
1	0	0	0	0	513	101	
2	0	0	0	0	512	99	
3	0	0	0	0	512	101	
4	0	0	0	0	513	100	
5	0	0	0	0	513	100	
6	0	0	0	0	513	101	
7	0	0	0	0	514	100	
8	0	0	0	0	515	101	
9	0	0	0	0	515	101	
10	0	0	0	0	515	100	
11	0	0	0	0	516	101	
12	0	0	0	0	518	99	
13	0	0	0	0	516	101	
14	0	0	0	0	515	100	
15	0	0	0	0	514	101	
0	0	0	0	0	515	99	
1	0	0	0	0	516	101	
2	0	0	0	0	515	99	
3	0	0	0	0	516	101	
4	0	0	0	0	518	99	
5	0	0	0	0	520	101	
6	0	0	0	0	520	99	
7	0	0	0	0	519	101	
8	0	0	0	0	518	101	
9	0	0	0	0	517	100	
10	0	0	0	0	516	101	
11	0	0	0	0	515	100	
12	0	0	0	0	515	101	
13	0	0	0	0	517	100	
14	0	0	0	0	518	100	
15	0	0	0	0	518	101	
0	0	0	0	0	516	99	
1	0	0	0	0	516	101	
2	0	0	0	0	515	100	
3	0	0	0	0	513	101	
4	0	0	0	0	512	99	
5	0	0	0	0	512	101	
6	0	0	0	0	511	100	
7	0	0	0	0	511	101	
8	0	0	0	0	512	100	
9	0	0	0	0	512	101	
10	0	0	0	0	509	100	
11	0	0	0	0	509	100	
12	0	0	0	0	510	101	
13	0	0	0	0	510	101	
14	0	0	0	0	511	100	
15	0	0	0	0	509	101	
0	0	0	0	0	509	101	
1	0	0	0	0	510	100	
2	0	0	0	0	509	101	
3	0	0	0	0	509	99	
4	0	0	0	0	508	101	
5	0	0	0	0	508	100	
6	0	0	0	0	508	101	
7	0	0	0	0	510	100	
8	0	0	0	0	510	101	
9	0	0	0	0	510	99	
10	0	0	0	0	511	101	
11	0	0	0	0	512	100	
12	0	0	0	0	515	101	
13	0	0	0	0	517	100	
14	0	0	0	0	518	101	
15	0	0	0	0	517	101	
0	0	0	0	0	515	100	
1	0	0	0	0	514	101	
2	0	0	0	0	512	99	
3	0	0	0	0	510	101	
4	0	0	0	0	508	100	
5	0	0	0	0	506	101	
6	0	0	0	0	505	100	
7	0	0	0	0	505	101	
8	0	0	0	0	505	100	
9	0	0	0	0	505	101	
10	0	0	0	0	505	100	
11	0	0	0	0	505	101	
12	0	0	0	0	504	100	
13	0	0	0	0	504	101	
14	0	0	0	0	504	101	
15	0	0	0	0	504	100	
0	0	0	0	0	503	101	
1	0	0	0	0	502	99	
2	0	0	0	0	502	101	
3	0	0	0	0	504	99	
4	0	0	0	0	506	101	
5	0	0	0	0	508	100	
6	0	0	0	0	508	101	
7	0	0	0	0	508	100	
8	0	0	0	0	509	101	
9	0	0	0	0	509	100	
10	0	0	0	0	509	101	
11	0	0	0	0	511	100	
12	0	0	0	0	511	101	
13	0	0	0	0	511	100	
14	0	0	0	0	512	101	
15	0	0	0	0	514	99	
0	0	0	0	0	515	101	
1	0	0	0	0	516	99	
2	0	0	0	0	515	101	
3	0	0	0	0	514	99	
4	0	0	0	0	512	101	
5	0	0	0	0	512	100	
6	0	0	0	0	510	101	
7	0	0	0	0	508	99	
8	0	0	0	0	507	101	
9	0	0	0	0	507	100	
10	0	0	0	0	506	101	
11	0	0	0	0	506	100	
12	0	0	0	0	507	101	
13	0	0	0	0	508	100	
14	0	0	0	0	511	101	
15	0	0	0	0	515	100	
0	0	0	0	0	517	101	
1	0	0	0	0	518	100	
2	0	0	0	0	519	101	
3	0	0	0	0	519	100	
4	0	0	0	0	518	101	
5	0	0	0	0	516	100	
6	0	0	0	0	515	101	
7	0	0	0	0	513	99	
8	0	0	0	0	512	101	
9	0	0	0	0	511	99	
10	0	0	0	0	512	101	
11	0	0	0	0	512	100	
12	0	0	0	0	512	101	
13	0	0	0	0	512	99	
14	0	0	0	0	512	101	
15	0	0	0	0	512	99	
0	0	0	0	0	513	101	
1	0	0	0	0	514	100	
2	0	0	0	0	516	101	
3	0	0	0	0	518	100	
4	0	0	0	0	519	101	
5	0	0	0	0	520	100	
6	0	0	0	0	521	101	
7	0	0	0	0	523	100	
8	0	0	0	0	525	101	
9	0	0	0	0	526	100	
10	0	0	0	0	526	101	
11	0	0	0	0	526	100	
12	0	0	0	0	526	101	
13	0	0	0	0	526	99	
14	0	0	0	0	526	101	
15	0	0	0	0	527	99	
0	0	0	0	0	527	101	
1	0	0	0	0	528	100	
2	0	0	0	0	529	101	
3	0	0	0	0	530	99	
4	0	0	0	0	531	101	
5	0	0	0	0	531	99	
6	0	0	0	0	530	101	
7	0	0	0	0	529	100	
8	0	0	0	0	527	101	
9	0	0	0	0	525	100	
10	0	0	0	0	524	101	
11	0	0	0	0	523	100	
12	0	0	0	0	522	101	
13	0	0	0	0	521	100	
14	0	0	0	0	521	101	
15	0	0	0	0	521	100	
0	0	0	0	0	521	101	
1	0	0	0	0	522	100	
2	0	0	0	0	522	100	
3	0	0	0	0	523	100	
4	0	0	0	0	523	101	
5	0	0	0	0	523	100	
6	0	0	0	0	523	101	
7	0	0	0	0	523	100	
8	0	0	0	0	521	101	
9	0	0	0	0	518	100	
10	0	0	0	0	514	101	
11	0	0	0	0	512	101	
12	0	0	0	0	510	99	
13	0	0	0	0	511	101	
14	0	0	0	0	511	99	
15	0	0	0	0	510	101	
0	0	0	0	0	511	99	
1	0	0	0	0	511	101	
2	0	0	0	0	511	99	
3	0	0	0	0	511	101	
4	0	0	0	0	509	99	
5	0	0	0	0	508	101	
6	0	0	0	0	507	99	
7	0	0	0	0	504	101	
8	0	0	0	0	501	100	
9	0	0	0	0	500	101	
10	0	0	0	0	501	100	
11	0	0	0	0	502	101	
12	0	0	0	0	502	100	
13	0	0	0	0	499	101	
14	0	0	0	0	497	100	
15	0	0	0	0	496	101	
0	0	0	0	0	498	100	
1	0	0	0	0	499	101	
2	0	0	0	0	501	100	
3	0	0	0	0	504	101	
4	0	0	0	0	507	100	
5	0	0	0	0	508	101	
6	0	0	0	0	510	100	
7	0	0	0	0	510	100	
8	0	0	0	0	509	101	
9	0	0	0	0	505	100	
10	0	0	0	0	503	100	
11	0	0	0	0	502	101	
12	0	0	0	0	501	101	
13	0	0	0	0	501	100	
14	0	0	0	0	501	101	
15	0	0	0	0	501	101	
0	0	0	0	0	502	101	
1	0	0	0	0	503	99	
2	0	0	0	0	505	101	
3	0	0	0	0	507	100	
4	0	0	0	0	508	101	
5	0	0	0	0	510	100	
6	0	0	0	0	511	101	
7	0	0	0	0	512	100	
8	0	0	0	0	513	101	
9	0	0	0	0	512	100	
10	0	0	0	0	511	100	
11	0	0	0	0	509	101	
12	0	0	0	0	508	99	
13	0	0	0	0	507	101	
14	0	0	0	0	508	100	
15	0	0	0	0	507	100	
0	0	0	0	0	505	100	
1	0	0	0	0	503	101	
2	0	0	0	0	502	100	
3	0	0	0	0	500	101	
4	0	0	0	0	499	99	
5	0	0	0	0	498	101	
6	0	0	0	0	497	100	
7	0	0	0	0	497	101	
8	0	0	0	0	497	100	
9	0	0	0	0	497	100	
10	0	0	0	0	495	100	
11	0	0	0	0	494	101	
12	0	0	0	0	494	100	
13	0	0	0	0	493	101	
14	0	0	0	0	493	101	
15	0	0	0	0	492	100	
0	0	0	0	0	492	101	
1	0	0	0	0	492	100	
2	0	0	0	0	493	101	
3	0	0	0	0	496	101	
4	0	0	0	0	498	101	
5	0	0	0	0	499	99	
6	0	0	0	0	499	101	
7	0	0	0	0	502	99	
8	0	0	0	0	505	101	
9	0	0	0	0	509	100	
10	0	0	0	0	513	100	
11	0	0	0	0	522	101	
12	0	0	0	0	532	100	
13	0	0	0	0	543	101	
14	0	0	0	0	555	100	
15	0	0	0	0	567	101	
0	0	0	0	0	581	100	
1	0	0	0	0	593	100	
2	0	0	0	0	604	100	
3	0	0	0	0	613	101	
4	0	0	0	0	621	99	
5	0	0	0	0	628	101	
6	0	0	0	0	633	100	
7	0	0	0	0	636	100	
8	0	0	0	0	640	100	
9	0	0	0	0	639	99	
10	0	0	0	0	640	101	
11	0	0	0	0	641	99	
12	0	0	0	0	641	101	
13	0	0	0	0	643	99	
14	0	0	0	0	644	100	
15	0	0	0	0	645	99	
0	0	0	0	0	645	101	
1	0	0	0	0	642	99	
2	0	0	0	0	635	101	
3	0	0	0	0	625	99	
4	0	0	0	0	616	101	
5	0	0	0	0	607	99	
6	0	0	0	0	598	101	
7	0	0	0	0	590	99	
8	0	0	0	0	580	101	
9	0	0	0	0	570	99	
10	0	0	0	0	559	101	
11	0	0	0	0	547	99	
12	0	0	0	0	534	101	
13	0	0	0	0	521	99	
14	0	0	0	0	509	101	
15	0	0	0	0	496	100	
0	0	0	0	0	484	101	
1	0	0	0	0	473	100	
2	0	0	0	0	465	101	
3	0	0	0	0	461	100	
4	0	0	0	0	457	101	
5	0	0	0	0	455	100	
6	0	0	0	0	451	101	
7	0	0	0	0	451	100	
8	0	0	0	0	450	101	
9	0	0	0	0	450	101	
10	0	0	0	0	448	101	
11	0	0	0	0	448	101	
12	0	0	0	0	448	100	
13	0	0	0	0	448	101	
14	0	0	0	0	450	100	
15	0	0	0	0	454	101	
0	0	0	0	0	455	100	
1	0	0	0	0	459	101	
2	0	0	0	0	462	100	
3	0	0	0	0	464	101	
4	0	0	0	0	465	100	
5	0	0	0	0	467	101	
6	0	0	0	0	468	100	
7	0	0	0	0	470	101	
8	0	0	0	0	471	100	
9	0	0	0	0	470	101	
10	0	0	0	0	469	100	
11	0	0	0	0	467	101	
12	0	0	0	0	468	100	
13	0	0	0	0	468	101	
14	0	0	0	0	468	100	
15	0	0	0	0	468	101	
0	0	0	0	0	468	101	
1	0	0	0	0	468	101	
2	0	0	0	0	467	101	
3	0	0	0	0	466	100	
4	0	0	0	0	468	101	
5	0	0	0	0	467	100	
6	0	0	0	0	468	101	
7	0	0	0	0	468	100	
8	0	0	0	0	469	101	
9	0	0	0	0	470	100	
10	0	0	0	0	471	101	
11	0	0	0	0	472	101	
12	0	0	0	0	472	100	
13	0	0	0	0	472	101	
14	0	0	0	0	475	100	
15	0	0	0	0	476	101	
0	0	0	0	0	478	100	
1	0	0	0	0	480	101	
2	0	0	0	0	482	99	
3	0	0	0	0	482	101	
4	0	0	0	0	482	99	
5	0	0	0	0	483	101	
6	0	0	0	0	483	100	
7	0	0	0	0	482	101	
8	0	0	0	0	482	100	
9	0	0	0	0	480	101	
10	0	0	0	0	479	100	
11	0	0	0	0	479	101	
12	0	0	0	0	478	100	
13	0	0	0	0	479	101	
14	0	0	0	0	478	100	
15	0	0	0	0	479	100	
0	0	0	0	0	478	101	
1	0	0	0	0	478	100	
2	0	0	0	0	478	101	
3	0	0	0	0	476	100	
4	0	0	0	0	475	101	
5	0	0	0	0	475	100	
6	0	0	0	0	476	101	
7	0	0	0	0	476	101	
8	0	0	0	0	476	100	
9	0	0	0	0	480	100	
10	0	0	0	0	486	101	
11	0	0	0	0	491	100	
12	0	0	0	0	493	100	
13	0	0	0	0	492	101	
14	0	0	0	0	492	100	
15	0	0	0	0	491	101	
0	0	0	0	0	489	99	
1	0	0	0	0	488	101	
2	0	0	0	0	487	99	
3	0	0	0	0	488	101	
4	0	0	0	0	488	100	
5	0	0	0	0	488	101	
6	0	0	0	0	488	100	
7	0	0	0	0	488	101	
8	0	0	0	0	489	100	
9	0	0	0	0	490	101	
10	0	0	0	0	492	100	
11	0	0	0	0	493	101	
12	0	0	0	0	493	100	
13	0	0	0	0	493	101	
14	0	0	0	0	493	100	
15	0	0	0	0	494	101	
0	0	0	0	0	494	99	
1	0	0	0	0	493	101	
2	0	0	0	0	492	99	
3	0	0	0	0	490	101	
4	0	0	0	0	489	99	
5	0	0	0	0	490	101	
6	0	0	0	0	491	99	
7	0	0	0	0	491	101	
8	0	0	0	0	491	100	
9	0	0	0	0	492	101	
10	0	0	0	0	492	100	
11	0	0	0	0	492	101	
12	0	0	0	0	494	101	
13	0	0	0	0	496	101	
14	0	0	0	0	498	101	
15	0	0	0	0	499	100	
0	0	0	0	0	498	101	
1	0	0	0	0	498	99	
2	0	0	0	0	499	101	
3	0	0	0	0	498	100	
4	0	0	0	0	497	101	
5	0	0	0	0	497	100	
6	0	0	0	0	497	101	
7	0	0	0	0	498	100	
8	0	0	0	0	499	100	
9	0	0	0	0	501	101	
10	0	0	0	0	502	100	
11	0	0	0	0	503	101	
12	0	0	0	0	504	99	
13	0	0	0	0	503	101	
14	0	0	0	0	502	99	
15	0	0	0	0	501	101	
0	0	0	0	0	500	99	
1	0	0	0	0	501	101	
2	0	0	0	0	503	100	
3	0	0	0	0	504	101	
4	0	0	0	0	504	100	
5	0	0	0	0	504	101	
6	0	0	0	0	502	99	
7	0	0	0	0	502	101	
8	0	0	0	0	503	99	
9	0	0	0	0	503	101	
10	0	0	0	0	503	100	
11	0	0	0	0	504	101	
12	0	0	0	0	506	101	
13	0	0	0	0	507	100	
14	0	0	0	0	507	101	
15	0	0	0	0	507	99	
0	0	0	0	0	505	101	
1	0	0	0	0	507	99	
2	0	0	0	0	510	101	
3	0	0	0	0	510	100	
4	0	0	0	0	512	101	
5	0	0	0	0	514	99	
6	0	0	0	0	513	101	
7	0	0	0	0	513	99	
8	0	0	0	0	512	101	
9	0	0	0	0	512	99	
10	0	0	0	0	513	101	
11	0	0	0	0	513	100	
12	0	0	0	0	513	101	
13	0	0	0	0	513	101	
14	0	0	0	0	513	100	
15	0	0	0	0	514	101	
0	0	0	0	0	515	100	
1	0	0	0	0	516	101	
2	0	0	0	0	518	99	
3	0	0	0	0	518	101	
4	0	0	0	0	516	99	
5	0	0	0	0	515	101	
6	0	0	0	0	515	99	
7	0	0	0	0	515	101	
8	0	0	0	0	514	99	
9	0	0	0	0	515	101	
10	0	0	0	0	515	100	
11	0	0	0	0	518	101	
12	0	0	0	0	518	100	
13	0	0	0	0	518	101	
14	0	0	0	0	518	100	
15	0	0	0	0	517	101	
0	0	0	0	0	517	100	
1	0	0	0	0	517	100	
2	0	0	0	0	518	101	
3	0	0	0	0	518	100	
4	0	0	0	0	518	101	
5	0	0	0	0	519	99	
6	0	0	0	0	520	101	
7	0	0	0	0	521	99	
8	0	0	0	0	522	101	
9	0	0	0	0	523	99	
10	0	0	0	0	523	101	
11	0	0	0	0	524	99	
12	0	0	0	0	524	101	
13	0	0	0	0	523	99	
14	0	0	0	0	523	101	
15	0	0	0	0	522	100	
0	0	0	0	0	523	101	
1	0	0	0	0	524	100	
2	0	0	0	0	526	100	
3	0	0	0	0	529	101	
4	0	0	0	0	531	99	
5	0	0	0	0	531	101	
6	0	0	0	0	532	99	
7	0	0	0	0	531	101	
8	0	0	0	0	528	100	
9	0	0	0	0	528	101	
10	0	0	0	0	527	100	
11	0	0	0	0	526	101	
12	0	0	0	0	524	100	
13	0	0	0	0	525	101	
14	0	0	0	0	526	99	
15	0	0	0	0	530	101	
0	0	0	0	0	532	99	
1	0	0	0	0	534	101	
2	0	0	0	0	536	99	
3	0	0	0	0	537	101	
4	0	0	0	0	538	100	
5	0	0	0	0	539	101	
6	0	0	0	0	538	100	
7	0	0	0	0	538	101	
8	0	0	0	0	537	101	
9	0	0	0	0	536	99	
10	0	0	0	0	536	101	
11	0	0	0	0	535	99	
12	0	0	0	0	534	101	
13	0	0	0	0	534	100	
14	0	0	0	0	534	99	
15	0	0	0	0	535	101	
0	0	0	0	0	534	99	
1	0	0	0	0	534	101	
2	0	0	0	0	534	100	
3	0	0	0	0	536	101	
4	0	0	0	0	536	100	
5	0	0	0	0	537	101	
6	0	0	0	0	537	101	
7	0	0	0	0	538	99	
8	0	0	0	0	540	101	
9	0	0	0	0	542	99	
10	0	0	0	0	544	101	
11	0	0	0	0	546	100	
12	0	0	0	0	549	100	
13	0	0	0	0	550	101	
14	0	0	0	0	551	99	
15	0	0	0	0	551	101	
0	0	0	0	0	552	99	
1	0	0	0	0	553	101	
2	0	0	0	0	552	100	
3	0	0	0	0	551	99	
4	0	0	0	0	550	101	
5	0	0	0	0	549	100	
6	0	0	0	0	548	101	
7	0	0	0	0	547	100	
8	0	0	0	0	547	99	
9	0	0	0	0	547	101	
10	0	0	0	0	548	99	
11	0	0	0	0	548	100	
12	0	0	0	0	548	100	
13	0	0	0	0	549	101	
14	0	0	0	0	551	99	
15	0	0	0	0	552	101	
0	0	0	0	0	555	99	
1	0	0	0	0	556	101	
2	0	0	0	0	557	100	
3	0	0	0	0	558	100	
4	0	0	0	0	558	100	
5	0	0	0	0	555	99	
6	0	0	0	0	551	101	
7	0	0	0	0	549	99	
8	0	0	0	0	546	101	
9	0	0	0	0	543	99	
10	0	0	0	0	542	101	
11	0	0	0	0	543	99	
12	0	0	0	0	543	101	
13	0	0	0	0	540	100	
14	0	0	0	0	538	101	
15	0	0	0	0	537	100	
0	0	0	0	0	537	101	
1	0	0	0	0	536	100	
2	0	0	0	0	534	101	
3	0	0	0	0	532	100	
4	0	0	0	0	531	101	
5	0	0	0	0	529	100	
6	0	0	0	0	529	101	
7	0	0	0	0	529	100	
8	0	0	0	0	528	100	
9	0	0	0	0	527	100	
10	0	0	0	0	528	101	
11	0	0	0	0	529	100	
12	0	0	0	0	530	100	
13	0	0	0	0	529	100	
14	0	0	0	0	528	101	
15	0	0	0	0	526	100	
0	0	0	0	0	525	101	
1	0	0	0	0	522	100	
2	0	0	0	0	519	100	
3	0	0	0	0	518	101	
4	0	0	0	0	516	100	
5	0	0	0	0	514	101	
6	0	0	0	0	510	99	
7	0	0	0	0	507	101	
8	0	0	0	0	502	99	
9	0	0	0	0	499	101	
10	0	0	0	0	497	100	
11	0	0	0	0	495	101	
12	0	0	0	0	493	100	
13	0	0	0	0	491	101	
14	0	0	0	0	489	100	
15	0	0	0	0	489	101	
0	0	0	0	0	489	100	
1	0	0	0	0	488	100	
2	0	0	0	0	487	101	
3	0	0	0	0	487	100	
4	0	0	0	0	487	101	
5	0	0	0	0	486	100	
6	0	0	0	0	486	101	
7	0	0	0	0	483	99	
8	0	0	0	0	479	101	
9	0	0	0	0	476	100	
10	0	0	0	0	474	101	
11	0	0	0	0	472	100	
12	0	0	0	0	471	101	
13	0	0	0	0	470	101	
14	0	0	0	0	471	101	
15	0	0	0	0	471	100	
0	0	0	0	0	473	101	
1	0	0	0	0	475	100	
2	0	0	0	0	476	101	
3	0	0	0	0	476	101	
4	0	0	0	0	476	100	
5	0	0	0	0	476	101	
6	0	0	0	0	476	100	
7	0	0	0	0	475	101	
8	0	0	0	0	473	100	
9	0	0	0	0	472	101	
10	0	0	0	0	471	100	
11	0	0	0	0	471	101	
12	0	0	0	0	471	100	
13	0	0	0	0	472	101	
14	0	0	0	0	472	100	
15	0	0	0	0	471	101	
0	0	0	0	0	471	100	
1	0	0	0	0	471	101	
2	0	0	0	0	471	100	
3	0	0	0	0	470	101	
4	0	0	0	0	471	101	
5	0	0	0	0	471	100	
6	0	0	0	0	471	101	
7	0	0	0	0	472	99	
8	0	0	0	0	475	101	
9	0	0	0	0	476	100	
10	0	0	0	0	476	101	
11	0	0	0	0	476	100	
12	0	0	0	0	475	101	
13	0	0	0	0	472	100	
14	0	0	0	0	469	101	
15	0	0	0	0	469	100	
0	0	0	0	0	469	101	
1	0	0	0	0	469	100	
2	0	0	0	0	470	101	
3	0	0	0	0	471	100	
4	0	0	0	0	471	101	
5	0	0	0	0	472	101	
6	0	0	0	0	473	100	
7	0	0	0	0	475	101	
8	0	0	0	0	476	99	
9	0	0	0	0	478	101	
10	0	0	0	0	479	100	
11	0	0	0	0	478	101	
12	0	0	0	0	477	100	
13	0	0	0	0	477	101	
14	0	0	0	0	479	100	
15	0	0	0	0	480	101	
0	0	0	0	0	480	100	
1	0	0	0	0	479	101	
2	0	0	0	0	479	100	
3	0	0	0	0	479	101	
4	0	0	0	0	478	100	
5	0	0	0	0	478	101	
6	0	0	0	0	479	101	
7	0	0	0	0	481	101	
8	0	0	0	0	482	100	
9	0	0	0	0	483	101	
10	0	0	0	0	483	100	
11	0	0	0	0	482	101	
12	0	0	0	0	480	100	
13	0	0	0	0	481	101	
14	0	0	0	0	483	101	
15	0	0	0	0	484	100	
0	0	0	0	0	485	101	
1	0	0	0	0	486	100	
2	0	0	0	0	487	101	
3	0	0	0	0	487	100	
4	0	0	0	0	487	101	
5	0	0	0	0	488	100	
6	0	0	0	0	489	100	
7	0	0	0	0	489	101	
8	0	0	0	0	489	101	
9	0	0	0	0	489	101	
10	0	0	0	0	489	100	
11	0	0	0	0	489	101	
12	0	0	0	0	488	100	
13	0	0	0	0	488	101	
14	0	0	0	0	488	100	
15	0	0	0	0	488	101	
0	0	0	0	0	487	100	
1	0	0	0	0	486	101	
2	0	0	0	0	486	100	
3	0	0	0	0	486	101	
4	0	0	0	0	487	100	
5	0	0	0	0	487	101	
6	0	0	0	0	487	100	
7	0	0	0	0	486	101	
8	0	0	0	0	485	101	
9	0	0	0	0	485	101	
10	0	0	0	0	485	100	
11	0	0	0	0	484	101	
12	0	0	0	0	484	100	
13	0	0	0	0	484	101	
14	0	0	0	0	483	99	
15	0	0	0	0	484	101	
0	0	0	0	0	484	100	
1	0	0	0	0	485	100	
2	0	0	0	0	487	101	
3	0	0	0	0	488	99	
4	0	0	0	0	489	101	
5	0	0	0	0	490	99	
6	0	0	0	0	490	101	
7	0	0	0	0	491	101	
8	0	0	0	0	490	100	
9	0	0	0	0	490	101	
10	0	0	0	0	491	99	
11	0	0	0	0	492	101	
12	0	0	0	0	495	100	
13	0	0	0	0	497	101	
14	0	0	0	0	498	101	
15	0	0	0	0	497	101	
0	0	0	0	0	497	101	
1	0	0	0	0	496	99	
2	0	0	0	0	494	101	
3	0	0	0	0	493	101	
4	0	0	0	0	492	100	
5	0	0	0	0	492	101	
6	0	0	0	0	492	100	
7	0	0	0	0	493	101	
8	0	0	0	0	494	100	
9	0	0	0	0	495	101	
10	0	0	0	0	496	99	
11	0	0	0	0	496	101	
12	0	0	0	0	495	99	
13	0	0	0	0	494	101	
14	0	0	0	0	492	101	
15	0	0	0	0	492	100	
0	0	0	0	0	493	101	
1	0	0	0	0	493	100	
2	0	0	0	0	493	101	
3	0	0	0	0	494	99	
4	0	0	0	0	495	101	
5	0	0	0	0	497	100	
6	0	0	0	0	501	101	
7	0	0	0	0	503	101	
8	0	0	0	0	504	99	
9	0	0	0	0	504	101	
10	0	0	0	0	504	99	
11	0	0	0	0	504	101	
12	0	0	0	0	504	101	
13	0	0	0	0	504	100	
14	0	0	0	0	503	101	
15	0	0	0	0	503	99	
0	0	0	0	0	503	100	
1	0	0	0	0	501	101	
2	0	0	0	0	499	99	
3	0	0	0	0	498	101	
4	0	0	0	0	498	99	
5	0	0	0	0	497	101	
6	0	0	0	0	496	100	
7	0	0	0	0	497	101	
8	0	0	0	0	497	101	
9	0	0	0	0	498	100	
10	0	0	0	0	495	101	
11	0	0	0	0	495	99	
12	0	0	0	0	496	101	
13	0	0	0	0	496	100	
14	0	0	0	0	496	100	
15	0	0	0	0	497	101	
0	0	0	0	0	497	100	
1	0	0	0	0	497	101	
2	0	0	0	0	497	99	
3	0	0	0	0	496	101	
4	0	0	0	0	496	101	
5	0	0	0	0	496	99	
6	0	0	0	0	497	101	
7	0	0	0	0	497	99	
8	0	0	0	0	499	101	
9	0	0	0	0	500	100	
10	0	0	0	0	501	100	
11	0	0	0	0	503	101	
12	0	0	0	0	502	99	
13	0	0	0	0	502	101	
14	0	0	0	0	504	100	
15	0	0	0	0	504	101	
0	0	0	0	0	504	100	
1	0	0	0	0	503	100	
2	0	0	0	0	502	101	
3	0	0	0	0	501	100	
4	0	0	0	0	501	101	
5	0	0	0	0	501	99	
6	0	0	0	0	502	101	
7	0	0	0	0	502	99	
8	0	0	0	0	503	101	
9	0	0	0	0	502	101	
10	0	0	0	0	503	99	
11	0	0	0	0	503	101	
12	0	0	0	0	503	99	
13	0	0	0	0	501	101	
14	0	0	0	0	500	100	
15	0	0	0	0	497	100	
0	0	0	0	0	497	101	
1	0	0	0	0	498	100	
2	0	0	0	0	500	101	
3	0	0	0	0	501	100	
4	0	0	0	0	502	101	
5	0	0	0	0	504	99	
6	0	0	0	0	505	101	
7	0	0	0	0	507	99	
8	0	0	0	0	508	101	
9	0	0	0	0	510	100	
10	0	0	0	0	512	100	
11	0	0	0	0	512	101	
12	0	0	0	0	512	100	
13	0	0	0	0	512	101	
14	0	0	0	0	513	100	
15	0	0	0	0	514	101	
0	0	0	0	0	515	99	
1	0	0	0	0	515	101	
2	0	0	0	0	515	99	
3	0	0	0	0	515	101	
4	0	0	0	0	515	101	
5	0	0	0	0	515	100	
6	0	0	0	0	515	101	
7	0	0	0	0	514	100	
8	0	0	0	0	514	101	
9	0	0	0	0	512	99	
10	0	0	0	0	511	101	
11	0	0	0	0	510	100	
12	0	0	0	0	509	100	
13	0	0	0	0	509	101	
14	0	0	0	0	510	100	
15	0	0	0	0	511	101	
0	0	0	0	0	512	99	
1	0	0	0	0	515	101	
2	0	0	0	0	518	100	
3	0	0	0	0	519	100	
4	0	0	0	0	519	101	
5	0	0	0	0	517	100	
6	0	0	0	0	514	101	
7	0	0	0	0	512	99	
8	0	0	0	0	512	101	
9	0	0	0	0	512	100	
10	0	0	0	0	512	100	
11	0	0	0	0	511	101	
12	0	0	0	0	511	99	
13	0	0	0	0	512	101	
14	0	0	0	0	514	100	
15	0	0	0	0	515	100	
0	0	0	0	0	515	101	
1	0	0	0	0	514	100	
2	0	0	0	0	513	101	
3	0	0	0	0	512	99	
4	0	0	0	0	512	101	
5	0	0	0	0	514	101	
6	0	0	0	0	514	100	
7	0	0	0	0	512	101	
8	0	0	0	0	511	99	
9	0	0	0	0	511	101	
10	0	0	0	0	511	100	
11	0	0	0	0	512	100	
12	0	0	0	0	513	101	
13	0	0	0	0	516	99	
14	0	0	0	0	516	101	
15	0	0	0	0	518	99	
0	0	0	0	0	519	101	
1	0	0	0	0	519	100	
2	0	0	0	0	519	100	
3	0	0	0	0	518	101	
4	0	0	0	0	517	100	
5	0	0	0	0	518	101	
6	0	0	0	0	518	99	
7	0	0	0	0	519	101	
8	0	0	0	0	517	99	
9	0	0	0	0	515	101	
10	0	0	0	0	515	100	
11	0	0	0	0	515	100	
12	0	0	0	0	515	101	
13	0	0	0	0	515	100	
14	0	0	0	0	516	100	
15	0	0	0	0	515	101	
0	0	0	0	0	514	99	
1	0	0	0	0	514	101	
2	0	0	0	0	512	99	
3	0	0	0	0	511	101	
4	0	0	0	0	510	100	
5	0	0	0	0	510	101	
6	0	0	0	0	510	100	
7	0	0	0	0	510	101	
8	0	0	0	0	510	100	
9	0	0	0	0	510	101	
10	0	0	0	0	510	101	
11	0	0	0	0	511	101	
12	0	0	0	0	510	101	
13	0	0	0	0	509	100	
14	0	0	0	0	508	101	
15	0	0	0	0	507	101	
0	0	0	0	0	509	100	
1	0	0	0	0	510	101	
2	0	0	0	0	511	99	
3	0	0	0	0	510	101	
4	0	0	0	0	509	99	
5	0	0	0	0	510	101	
6	0	0	0	0	511	100	
7	0	0	0	0	511	101	
8	0	0	0	0	513	99	
9	0	0	0	0	513	101	
10	0	0	0	0	514	99	
11	0	0	0	0	516	101	
12	0	0	0	0	519	100	
13	0	0	0	0	521	100	
14	0	0	0	0	522	100	
15	0	0	0	0	521	101	
0	0	0	0	0	520	99	
1	0	0	0	0	519	101	
2	0	0	0	0	518	100	
3	0	0	0	0	517	100	
4	0	0	0	0	517	101	
5	0	0	0	0	515	99	
6	0	0	0	0	515	101	
7	0	0	0	0	513	100	
8	0	0	0	0	512	101	
9	0	0	0	0	512	101	
10	0	0	0	0	512	100	
11	0	0	0	0	512	100	
12	0	0	0	0	514	101	
13	0	0	0	0	514	100	
14	0	0	0	0	515	100	
15	0	0	0	0	515	101	
0	0	0	0	0	515	99	
1	0	0	0	0	516	101	
2	0	0	0	0	515	99	
3	0	0	0	0	513	101	
4	0	0	0	0	512	99	
5	0	0	0	0	513	101	
6	0	0	0	0	514	99	
7	0	0	0	0	512	101	
8	0	0	0	0	511	100	
9	0	0	0	0	510	101	
10	0	0	0	0	509	100	
11	0	0	0	0	509	101	
12	0	0	0	0	510	100	
13	0	0	0	0	512	101	
14	0	0	0	0	513	100	
15	0	0	0	0	513	101	
0	0	0	0	0	513	99	
1	0	0	0	0	515	101	
2	0	0	0	0	517	99	
3	0	0	0	0	520	101	
4	0	0	0	0	520	100	
5	0	0	0	0	519	101	
6	0	0	0	0	519	100	
7	0	0	0	0	519	101	
8	0	0	0	0	518	100	
9	0	0	0	0	517	100	
10	0	0	0	0	516	101	
11	0	0	0	0	513	100	
12	0	0	0	0	513	101	
13	0	0	0	0	513	100	
14	0	0	0	0	513	101	
15	0	0	0	0	513	99	
0	0	0	0	0	514	101	
1	0	0	0	0	514	100	
2	0	0	0	0	514	100	
3	0	0	0	0	514	100	
4	0	0	0	0	514	101	
5	0	0	0	0	514	99	
6	0	0	0	0	514	101	
7	0	0	0	0	515	99	
8	0	0	0	0	515	101	
9	0	0	0	0	515	99	
10	0	0	0	0	514	101	
11	0	0	0	0	512	99	
12	0	0	0	0	509	101	
13	0	0	0	0	510	99	
14	0	0	0	0	512	101	
15	0	0	0	0	513	99	
0	0	0	0	0	515	101	
1	0	0	0	0	516	100	
2	0	0	0	0	517	101	
3	0	0	0	0	519	99	
4	0	0	0	0	521	101	
5	0	0	0	0	523	100	
6	0	0	0	0	523	101	
7	0	0	0	0	523	100	
8	0	0	0	0	522	101	
9	0	0	0	0	520	100	
10	0	0	0	0	520	100	
11	0	0	0	0	519	101	
12	0	0	0	0	521	100	
13	0	0	0	0	520	101	
14	0	0	0	0	520	99	
15	0	0	0	0	521	101	
0	0	0	0	0	521	99	
1	0	0	0	0	521	101	
2	0	0	0	0	520	99	
3	0	0	0	0	520	101	
4	0	0	0	0	521	100	
5	0	0	0	0	521	101	
6	0	0	0	0	521	100	
7	0	0	0	0	521	101	
8	0	0	0	0	521	100	
9	0	0	0	0	521	101	
10	0	0	0	0	520	100	
11	0	0	0	0	521	101	
12	0	0	0	0	521	100	
13	0	0	0	0	520	101	
14	0	0	0	0	520	100	
15	0	0	0	0	519	100	
0	0	0	0	0	520	101	
1	0	0	0	0	521	99	
2	0	0	0	0	521	101	
3	0	0	0	0	521	100	
4	0	0	0	0	521	100	
5	0	0	0	0	519	100	
6	0	0	0	0	519	101	
7	0	0	0	0	518	99	
8	0	0	0	0	518	100	
9	0	0	0	0	518	100	
10	0	0	0	0	518	101	
11	0	0	0	0	518	100	
12	0	0	0	0	517	101	
13	0	0	0	0	518	99	
14	0	0	0	0	518	101	
15	0	0	0	0	519	100	
0	0	0	0	0	519	101	
1	0	0	0	0	518	100	
2	0	0	0	0	520	101	
3	0	0	0	0	521	99	
4	0	0	0	0	524	101	
5	0	0	0	0	526	99	
6	0	0	0	0	529	101	
7	0	0	0	0	530	99	
8	0	0	0	0	531	101	
9	0	0	0	0	531	99	
10	0	0	0	0	531	101	
11	0	0	0	0	530	100	
12	0	0	0	0	529	100	
13	0	0	0	0	527	100	
14	0	0	0	0	526	100	
15	0	0	0	0	525	100	
0	0	0	0	0	524	101	
1	0	0	0	0	523	99	
2	0	0	0	0	522	101	
3	0	0	0	0	522	99	
4	0	0	0	0	522	101	
5	0	0	0	0	523	99	
6	0	0	0	0	522	101	
7	0	0	0	0	523	99	
8	0	0	0	0	523	101	
9	0	0	0	0	524	99	
10	0	0	0	0	523	101	
11	0	0	0	0	522	99	
12	0	0	0	0	521	101	
13	0	0	0	0	520	99	
14	0	0	0	0	519	101	
15	0	0	0	0	517	99	
0	0	0	0	0	515	101	
1	0	0	0	0	514	99	
2	0	0	0	0	513	101	
3	0	0	0	0	512	99	
4	0	0	0	0	512	101	
5	0	0	0	0	514	100	
6	0	0	0	0	514	100	
7	0	0	0	0	515	101	
8	0	0	0	0	519	99	
9	0	0	0	0	521	101	
10	0	0	0	0	523	100	
11	0	0	0	0	524	100	
12	0	0	0	0	526	101	
13	0	0	0	0	526	99	
14	0	0	0	0	523	101	
15	0	0	0	0	522	99	
0	0	0	0	0	520	101	
1	0	0	0	0	519	99	
2	0	0	0	0	519	101	
3	0	0	0	0	518	99	
4	0	0	0	0	517	101	
5	0	0	0	0	518	99	
6	0	0	0	0	520	101	
7	0	0	0	0	522	99	
8	0	0	0	0	524	101	
9	0	0	0	0	524	99	
10	0	0	0	0	525	101	
11	0	0	0	0	527	100	
12	0	0	0	0	526	100	
13	0	0	0	0	525	101	
14	0	0	0	0	524	100	
15	0	0	0	0	523	101	
0	0	0	0	0	521	99	
1	0	0	0	0	519	101	
2	0	0	0	0	517	99	
3	0	0	0	0	515	101	
4	0	0	0	0	514	101	
5	0	0	0	0	512	100	
6	0	0	0	0	512	101	
7	0	0	0	0	512	100	
8	0	0	0	0	512	101	
9	0	0	0	0	512	99	
10	0	0	0	0	515	101	
11	0	0	0	0	516	99	
12	0	0	0	0	516	101	
13	0	0	0	0	516	99	
14	0	0	0	0	516	101	
15	0	0	0	0	518	99	
0	0	0	0	0	519	101	
1	0	0	0	0	519	99	
2	0	0	0	0	520	101	
3	0	0	0	0	519	99	
4	0	0	0	0	518	101	
5	0	0	0	0	516	99	
6	0	0	0	0	515	101	
7	0	0	0	0	514	99	
8	0	0	0	0	515	101	
9	0	0	0	0	517	99	
10	0	0	0	0	518	101	
11	0	0	0	0	518	99	
12	0	0	0	0	518	101	
13	0	0	0	0	516	100	
14	0	0	0	0	515	101	
15	0	0	0	0	514	100	
0	0	0	0	0	512	100	
1	0	0	0	0	513	100	
2	0	0	0	0	512	100	
3	0	0	0	0	512	100	
4	0	0	0	0	513	101	
5	0	0	0	0	514	100	
6	0	0	0	0	517	100	
7	0	0	0	0	521	101	
8	0	0	0	0	525	100	
9	0	0	0	0	525	100	
10	0	0	0	0	525	100	
11	0	0	0	0	525	101	
12	0	0	0	0	524	99	
13	0	0	0	0	523	101	
14	0	0	0	0	520	99	
15	0	0	0	0	517	101	
0	0	0	0	0	515	99	
1	0	0	0	0	515	101	
2	0	0	0	0	516	99	
3	0	0	0	0	517	101	
4	0	0	0	0	517	99	
5	0	0	0	0	517	101	
6	0	0	0	0	517	99	
7	0	0	0	0	518	101	
8	0	0	0	0	518	99	
9	0	0	0	0	518	101	
10	0	0	0	0	518	99	
11	0	0	0	0	519	101	
12	0	0	0	0	517	99	
13	0	0	0	0	516	101	
14	0	0	0	0	513	99	
15	0	0	0	0	512	101	
0	0	0	0	0	511	100	
1	0	0	0	0	511	101	
2	0	0	0	0	511	100	
3	0	0	0	0	511	101	
4	0	0	0	0	512	100	
5	0	0	0	0	513	101	
6	0	0	0	0	514	100	
7	0	0	0	0	513	100	
8	0	0	0	0	514	100	
9	0	0	0	0	515	100	
10	0	0	0	0	513	101	
11	0	0	0	0	512	100	
12	0	0	0	0	512	101	
13	0	0	0	0	511	101	
14	0	0	0	0	511	100	
15	0	0	0	0	510	101	
0	0	0	0	0	508	100	
1	0	0	0	0	509	101	
2	0	0	0	0	508	100	
3	0	0	0	0	508	100	
4	0	0	0	0	508	101	
5	0	0	0	0	509	99	
6	0	0	0	0	508	101	
7	0	0	0	0	508	99	
8	0	0	0	0	510	101	
9	0	0	0	0	513	99	
10	0	0	0	0	515	101	
11	0	0	0	0	517	99	
12	0	0	0	0	518	101	
13	0	0	0	0	517	99	
14	0	0	0	0	516	101	
15	0	0	0	0	515	99	
0	0	0	0	0	514	101	
1	0	0	0	0	513	100	
2	0	0	0	0	513	100	
3	0	0	0	0	512	100	
4	0	0	0	0	511	100	
5	0	0	0	0	512	101	
6	0	0	0	0	512	99	
7	0	0	0	0	512	101	
8	0	0	0	0	513	99	
9	0	0	0	0	514	101	
10	0	0	0	0	514	100	
11	0	0	0	0	513	101	
12	0	0	0	0	512	100	
13	0	0	0	0	511	100	
14	0	0	0	0	512	101	
15	0	0	0	0	514	100	
0	0	0	0	0	513	100	
1	0	0	0	0	514	99	
2	0	0	0	0	515	101	
3	0	0	0	0	514	99	
4	0	0	0	0	513	101	
5	0	0	0	0	512	99	
6	0	0	0	0	512	101	
7	0	0	0	0	512	100	
8	0	0	0	0	513	101	
9	0	0	0	0	514	100	
10	0	0	0	0	515	100	
11	0	0	0	0	518	100	
12	0	0	0	0	518	99	
13	0	0	0	0	518	101	
14	0	0	0	0	518	99	
15	0	0	0	0	517	101	
0	0	0	0	0	516	99	
1	0	0	0	0	515	101	
2	0	0	0	0	514	99	
3	0	0	0	0	513	101	
4	0	0	0	0	512	99	
5	0	0	0	0	512	101	
6	0	0	0	0	512	100	
7	0	0	0	0	511	101	
8	0	0	0	0	510	100	
9	0	0	0	0	510	100	
10	0	0	0	0	511	101	
11	0	0	0	0	510	99	
12	0	0	0	0	510	101	
13	0	0	0	0	509	100	
14	0	0	0	0	507	101	
15	0	0	0	0	504	100	
0	0	0	0	0	502	100	
1	0	0	0	0	502	101	
2	0	0	0	0	503	99	
3	0	0	0	0	505	101	
4	0	0	0	0	509	99	
5	0	0	0	0	513	101	
6	0	0	0	0	516	99	
7	0	0	0	0	519	101	
8	0	0	0	0	521	99	
9	0	0	0	0	523	101	
10	0	0	0	0	523	99	
11	0	0	0	0	521	101	
12	0	0	0	0	522	100	
13	0	0	0	0	523	100	
14	0	0	0	0	524	100	
15	0	0	0	0	523	101	
0	0	0	0	0	523	99	
1	0	0	0	0	523	101	
2	0	0	0	0	524	99	
3	0	0	0	0	525	101	
4	0	0	0	0	524	99	
5	0	0	0	0	524	101	
6	0	0	0	0	524	100	
7	0	0	0	0	526	101	
8	0	0	0	0	526	100	
9	0	0	0	0	524	100	
10	0	0	0	0	523	101	
11	0	0	0	0	521	99	
12	0	0	0	0	521	101	
13	0	0	0	0	521	99	
14	0	0	0	0	519	101	
15	0	0	0	0	518	99	
0	0	0	0	0	516	101	
1	0	0	0	0	515	99	
2	0	0	0	0	515	101	
3	0	0	0	0	513	99	
4	0	0	0	0	512	101	
5	0	0	0	0	511	100	
6	0	0	0	0	511	101	
7	0	0	0	0	513	99	
8	0	0	0	0	514	101	
9	0	0	0	0	514	99	
10	0	0	0	0	515	101	
11	0	0	0	0	515	99	
12	0	0	0	0	515	101	
13	0	0	0	0	515	100	
14	0	0	0	0	515	100	
15	0	0	0	0	515	100	
0	0	0	0	0	515	99	
1	0	0	0	0	516	101	
2	0	0	0	0	518	99	
3	0	0	0	0	519	101	
4	0	0	0	0	520	99	
5	0	0	0	0	519	101	
6	0	0	0	0	519	99	
7	0	0	0	0	518	101	
8	0	0	0	0	518	99	
9	0	0	0	0	516	101	
10	0	0	0	0	515	99	
11	0	0	0	0	512	101	
12	0	0	0	0	511	100	
13	0	0	0	0	511	101	
14	0	0	0	0	511	100	
15	0	0	0	0	512	100	
0	0	0	0	0	512	100	
1	0	0	0	0	512	100	
2	0	0	0	0	513	100	
3	0	0	0	0	514	99	
4	0	0	0	0	515	101	
5	0	0	0	0	516	100	
6	0	0	0	0	517	100	
7	0	0	0	0	516	100	
8	0	0	0	0	515	100	
9	0	0	0	0	515	100	
10	0	0	0	0	515	100	
11	0	0	0	0	516	101	
12	0	0	0	0	515	99	
13	0	0	0	0	515	101	
14	0	0	0	0	514	99	
15	0	0	0	0	515	101	
0	0	0	0	0	513	99	
1	0	0	0	0	513	101	
2	0	0	0	0	512	99	
3	0	0	0	0	511	101	
4	0	0	0	0	511	100	
5	0	0	0	0	510	100	
6	0	0	0	0	509	100	
7	0	0	0	0	509	100	
8	0	0	0	0	510	100	
9	0	0	0	0	511	100	
10	0	0	0	0	511	100	
11	0	0	0	0	511	100	
12	0	0	0	0	510	100	
13	0	0	0	0	510	99	
14	0	0	0	0	511	101	
15	0	0	0	0	511	99	
0	0	0	0	0	512	100	
1	0	0	0	0	513	100	
2	0	0	0	0	514	100	
3	0	0	0	0	515	99	
4	0	0	0	0	517	100	
5	0	0	0	0	519	100	
6	0	0	0	0	520	100	
7	0	0	0	0	519	100	
8	0	0	0	0	519	100	
9	0	0	0	0	518	99	
10	0	0	0	0	517	101	
11	0	0	0	0	516	99	
12	0	0	0	0	515	101	
13	0	0	0	0	514	99	
14	0	0	0	0	512	101	
15	0	0	0	0	511	99	
0	0	0	0	0	510	101	
1	0	0	0	0	510	99	
2	0	0	0	0	510	101	
3	0	0	0	0	510	99	
4	0	0	0	0	511	100	
5	0	0	0	0	513	100	
6	0	0	0	0	515	100	
7	0	0	0	0	515	100	
8	0	0	0	0	515	101	
9	0	0	0	0	515	99	
10	0	0	0	0	515	100	
11	0	0	0	0	515	99	
12	0	0	0	0	515	101	
13	0	0	0	0	514	99	
14	0	0	0	0	514	101	
15	0	0	0	0	515	100	
0	0	0	0	0	516	100	
1	0	0	0	0	517	100	
2	0	0	0	0	516	99	
3	0	0	0	0	517	100	
4	0	0	0	0	517	101	
5	0	0	0	0	517	100	
6	0	0	0	0	517	101	
7	0	0	0	0	517	99	
8	0	0	0	0	516	101	
9	0	0	0	0	515	99	
10	0	0	0	0	514	101	
11	0	0	0	0	513	100	
12	0	0	0	0	512	100	
13	0	0	0	0	512	100	
14	0	0	0	0	511	100	
15	0	0	0	0	513	101	
0	0	0	0	0	513	99	
1	0	0	0	0	513	100	
2	0	0	0	0	512	99	
3	0	0	0	0	513	101	
4	0	0	0	0	513	99	
5	0	0	0	0	513	101	
6	0	0	0	0	512	100	
7	0	0	0	0	512	101	
8	0	0	0	0	512	100	
9	0	0	0	0	512	100	
10	0	0	0	0	513	100	
11	0	0	0	0	514	101	
12	0	0	0	0	518	99	
13	0	0	0	0	521	100	
14	0	0	0	0	523	99	
15	0	0	0	0	526	100	
0	0	0	0	0	527	99	
1	0	0	0	0	527	100	
2	0	0	0	0	528	99	
3	0	0	0	0	528	100	
4	0	0	0	0	528	99	
5	0	0	0	0	527	101	
6	0	0	0	0	525	99	
7	0	0	0	0	525	101	
8	0	0	0	0	525	99	
9	0	0	0	0	525	101	
10	0	0	0	0	524	99	
11	0	0	0	0	523	101	
12	0	0	0	0	521	100	
13	0	0	0	0	519	99	
14	0	0	0	0	520	101	
15	0	0	0	0	519	99	
0	0	0	0	0	518	100	
1	0	0	0	0	519	99	
2	0	0	0	0	520	100	
3	0	0	0	0	520	99	
4	0	0	0	0	520	100	
5	0	0	0	0	520	99	
6	0	0	0	0	520	101	
7	0	0	0	0	521	99	
8	0	0	0	0	521	101	
9	0	0	0	0	520	99	
10	0	0	0	0	520	101	
11	0	0	0	0	520	99	
12	0	0	0	0	519	101	
13	0	0	0	0	519	100	
14	0	0	0	0	517	101	
15	0	0	0	0	514	100	
0	0	0	0	0	512	100	
1	0	0	0	0	511	100	
2	0	0	0	0	508	100	
3	0	0	0	0	506	100	
4	0	0	0	0	504	99	
5	0	0	0	0	503	100	
6	0	0	0	0	502	100	
7	0	0	0	0	500	101	
8	0	0	0	0	498	99	
9	0	0	0	0	496	100	
10	0	0	0	0	495	99	
11	0	0	0	0	494	100	
12	0	0	0	0	494	99	
13	0	0	0	0	495	101	
14	0	0	0	0	495	99	
15	0	0	0	0	496	100	
0	0	0	0	0	497	99	
1	0	0	0	0	497	101	
2	0	0	0	0	496	100	
3	0	0	0	0	495	100	
4	0	0	0	0	495	100	
5	0	0	0	0	495	101	
6	0	0	0	0	495	100	
7	0	0	0	0	494	100	
8	0	0	0	0	494	100	
9	0	0	0	0	494	99	
10	0	0	0	0	495	100	
11	0	0	0	0	494	99	
12	0	0	0	0	493	101	
13	0	0	0	0	492	100	
14	0	0	0	0	492	101	
15	0	0	0	0	492	100	
0	0	0	0	0	494	100	
1	0	0	0	0	494	100	
2	0	0	0	0	494	100	
3	0	0	0	0	493	100	
4	0	0	0	0	493	99	
5	0	0	0	0	494	100	
6	0	0	0	0	494	99	
7	0	0	0	0	494	101	
8	0	0	0	0	495	99	
9	0	0	0	0	494	101	
10	0	0	0	0	493	100	
11	0	0	0	0	491	101	
12	0	0	0	0	492	100	
13	0	0	0	0	492	100	
14	0	0	0	0	491	100	
15	0	0	0	0	491	99	
0	0	0	0	0	491	100	
1	0	0	0	0	491	99	
2	0	0	0	0	489	100	
3	0	0	0	0	488	99	
4	0	0	0	0	487	101	
5	0	0	0	0	486	99	
6	0	0	0	0	485	100	
7	0	0	0	0	486	99	
8	0	0	0	0	487	101	
9	0	0	0	0	487	100	
10	0	0	0	0	487	101	
11	0	0	0	0	488	100	
12	0	0	0	0	488	101	
13	0	0	0	0	486	99	
14	0	0	0	0	483	101	
15	0	0	0	0	481	100	
0	0	0	0	0	483	100	
1	0	0	0	0	484	100	
2	0	0	0	0	486	99	
3	0	0	0	0	489	100	
4	0	0	0	0	491	100	
5	0	0	0	0	494	100	
6	0	0	0	0	497	100	
7	0	0	0	0	499	100	
8	0	0	0	0	502	100	
9	0	0	0	0	508	100	
10	0	0	0	0	516	100	
11	0	0	0	0	525	100	
12	0	0	0	0	534	100	
13	0	0	0	0	543	100	
14	0	0	0	0	553	101	
15	0	0	0	0	565	99	
0	0	0	0	0	576	101	
1	0	0	0	0	588	99	
2	0	0	0	0	598	100	
3	0	0	0	0	608	100	
4	0	0	0	0	616	99	
5	0	0	0	0	624	100	
6	0	0	0	0	629	98	
7	0	0	0	0	634	100	
8	0	0	0	0	637	98	
9	0	0	0	0	638	100	
10	0	0	0	0	638	98	
11	0	0	0	0	638	100	
12	0	0	0	0	637	99	
13	0	0	0	0	637	100	
14	0	0	0	0	635	99	
15	0	0	0	0	632	100	
0	0	0	0	0	626	98	
1	0	0	0	0	620	100	
2	0	0	0	0	611	99	
3	0	0	0	0	600	100	
4	0	0	0	0	590	99	
5	0	0	0	0	580	101	
6	0	0	0	0	572	99	
7	0	0	0	0	561	100	
8	0	0	0	0	550	99	
9	0	0	0	0	538	100	
10	0	0	0	0	526	100	
11	0	0	0	0	514	100	
12	0	0	0	0	501	100	
13	0	0	0	0	489	100	
14	0	0	0	0	478	99	
15	0	0	0	0	467	100	
0	0	0	0	0	460	100	
1	0	0	0	0	453	100	
2	0	0	0	0	448	99	
3	0	0	0	0	443	101	
4	0	0	0	0	438	99	
5	0	0	0	0	436	101	
6	0	0	0	0	436	100	
7	0	0	0	0	435	101	
8	0	0	0	0	436	99	
9	0	0	0	0	440	101	
10	0	0	0	0	443	100	
11	0	0	0	0	446	101	
12	0	0	0	0	450	100	
13	0	0	0	0	455	100	
14	0	0	0	0	459	100	
15	0	0	0	0	463	99	
0	0	0	0	0	464	101	
1	0	0	0	0	466	99	
2	0	0	0	0	468	101	
3	0	0	0	0	470	100	
4	0	0	0	0	472	101	
5	0	0	0	0	473	100	
6	0	0	0	0	473	100	
7	0	0	0	0	475	100	
8	0	0	0	0	475	99	
9	0	0	0	0	476	100	
10	0	0	0	0	478	99	
11	0	0	0	0	480	100	
12	0	0	0	0	481	99	
13	0	0	0	0	480	101	
14	0	0	0	0	479	99	
15	0	0	0	0	479	101	
0	0	0	0	0	478	100	
1	0	0	0	0	478	101	
