# OpenSignals Text File Format. Version 1
# {"98:D3:B1:FD:3D:90": {"position": 0, "device": "bitalino_rev", "device name": "98:D3:B1:FD:3D:90", "device connection": "/dev/tty.BITalino-DevB", "sampling rate": 1000, "resolution": [4, 1, 1, 1, 1, 10, 10, 10, 10, 6, 6], "firmware version": 1281, "comments": "", "keywords": "", "mode": 0, "sync interval": 2, "date": "2022-4-6", "time": "9:39:21.840", "channels": [1, 2, 3, 4, 5, 6], "sensor": ["RAW", "ECGBIT", "EDABITREV", "RAW", "RAW", "RAW"], "label": ["A1", "A2", "A3", "A4", "A5", "A6"], "column": ["nSeq", "I1", "I2", "O1", "O2", "A1", "A2", "A3", "A4", "A5", "A6"], "special": [{}, {}, {}, {}, {}, {}], "digital IO": [0, 0, 1, 1]}}
# EndOfHeader
0	0	0	0	0	510	458	165	515	38	2	
1	0	0	0	0	504	457	166	515	38	2	
2	0	0	0	0	505	458	165	518	38	2	
3	0	0	0	0	493	458	166	524	38	2	
4	0	0	0	0	499	457	165	523	38	2	
5	0	0	0	0	494	457	166	521	38	2	
6	0	0	0	0	498	455	165	517	38	2	
7	0	0	0	0	494	455	166	516	38	2	
8	0	0	0	0	515	455	166	513	38	2	
9	0	0	0	0	510	454	166	511	38	2	
10	0	0	0	0	516	453	166	511	38	2	
11	0	0	0	0	519	452	165	511	38	2	
12	0	0	0	0	523	453	166	513	38	2	
13	0	0	0	0	520	455	165	513	38	2	
14	0	0	0	0	513	457	166	513	38	2	
15	0	0	0	0	514	460	166	513	38	2	
0	0	0	0	0	513	461	165	513	38	2	
1	0	0	0	0	498	463	166	514	38	2	
2	0	0	0	0	498	467	165	516	38	2	
3	0	0	0	0	494	469	166	516	38	2	
4	0	0	0	0	499	472	165	516	38	2	
5	0	0	0	0	497	473	166	514	38	2	
6	0	0	0	0	498	474	166	514	38	2	
7	0	0	0	0	507	475	166	514	38	2	
8	0	0	0	0	511	476	166	512	38	2	
9	0	0	0	0	507	476	166	512	38	2	
10	0	0	0	0	512	477	166	510	38	2	
11	0	0	0	0	517	480	166	511	38	2	
12	0	0	0	0	516	483	166	512	38	2	
13	0	0	0	0	514	486	165	513	38	2	
14	0	0	0	0	524	490	166	519	38	2	
15	0	0	0	0	514	493	165	519	38	2	
0	0	0	0	0	509	497	166	519	38	2	
1	0	0	0	0	504	500	165	519	38	2	
2	0	0	0	0	504	504	166	519	38	2	
3	0	0	0	0	505	509	166	518	38	2	
4	0	0	0	0	508	512	164	518	38	2	
5	0	0	0	0	495	516	166	517	38	2	
6	0	0	0	0	496	519	165	516	38	2	
7	0	0	0	0	502	519	166	517	38	2	
8	0	0	0	0	501	521	166	515	38	2	
9	0	0	0	0	507	521	165	514	38	2	
10	0	0	0	0	514	521	166	513	38	2	
11	0	0	0	0	517	522	166	512	38	2	
12	0	0	0	0	515	522	165	510	38	2	
13	0	0	0	0	510	523	166	511	38	2	
14	0	0	0	0	511	525	166	510	38	2	
15	0	0	0	0	519	527	165	512	38	2	
0	0	0	0	0	512	530	166	512	38	2	
1	0	0	0	0	509	534	164	512	38	2	
2	0	0	0	0	507	537	166	512	38	2	
3	0	0	0	0	505	539	164	512	38	2	
4	0	0	0	0	495	543	166	512	38	2	
5	0	0	0	0	495	545	165	513	38	2	
6	0	0	0	0	498	548	165	512	38	2	
7	0	0	0	0	496	550	165	510	38	2	
8	0	0	0	0	501	551	164	508	38	2	
9	0	0	0	0	510	552	166	519	38	2	
10	0	0	0	0	506	551	164	510	38	2	
11	0	0	0	0	511	550	165	515	38	2	
12	0	0	0	0	513	549	164	509	38	2	
13	0	0	0	0	519	548	166	511	38	2	
14	0	0	0	0	522	547	165	507	38	2	
15	0	0	0	0	518	547	165	508	38	2	
0	0	0	0	0	513	549	165	509	38	2	
1	0	0	0	0	514	551	164	512	38	2	
2	0	0	0	0	510	554	165	511	38	2	
3	0	0	0	0	515	557	164	510	38	2	
4	0	0	0	0	502	558	166	523	38	2	
5	0	0	0	0	502	560	165	512	38	2	
6	0	0	0	0	499	561	164	514	38	2	
7	0	0	0	0	499	563	165	527	38	2	
8	0	0	0	0	500	561	164	515	38	2	
9	0	0	0	0	499	562	166	513	38	2	
10	0	0	0	0	506	561	165	511	38	2	
11	0	0	0	0	511	560	164	510	38	2	
12	0	0	0	0	515	560	166	511	38	2	
13	0	0	0	0	519	560	164	513	38	2	
14	0	0	0	0	514	561	166	513	38	2	
15	0	0	0	0	519	563	166	513	38	2	
0	0	0	0	0	522	567	165	517	38	2	
1	0	0	0	0	510	569	164	525	38	2	
2	0	0	0	0	513	572	165	517	38	2	
3	0	0	0	0	508	574	164	516	38	2	
4	0	0	0	0	500	576	165	515	38	2	
5	0	0	0	0	502	577	164	515	38	2	
6	0	0	0	0	503	578	166	515	38	2	
7	0	0	0	0	496	578	165	515	38	2	
8	0	0	0	0	497	579	165	515	38	2	
9	0	0	0	0	504	578	165	515	38	2	
10	0	0	0	0	497	579	165	516	38	2	
11	0	0	0	0	510	577	165	515	38	2	
12	0	0	0	0	515	575	164	513	38	2	
13	0	0	0	0	512	574	165	512	38	2	
14	0	0	0	0	513	572	164	525	38	2	
15	0	0	0	0	519	571	165	516	38	2	
0	0	0	0	0	518	569	164	516	38	2	
1	0	0	0	0	519	568	165	515	38	2	
2	0	0	0	0	514	568	165	515	38	2	
3	0	0	0	0	513	570	165	515	38	2	
4	0	0	0	0	502	572	164	514	38	2	
5	0	0	0	0	506	573	165	512	38	2	
6	0	0	0	0	499	574	164	512	38	2	
7	0	0	0	0	501	577	165	511	38	2	
8	0	0	0	0	493	582	164	510	38	2	
9	0	0	0	0	497	583	166	510	38	2	
10	0	0	0	0	502	581	165	508	38	2	
11	0	0	0	0	507	578	165	508	38	2	
12	0	0	0	0	503	573	165	507	38	2	
13	0	0	0	0	505	566	164	507	38	2	
14	0	0	0	0	519	562	166	507	38	2	
15	0	0	0	0	512	560	164	507	38	2	
0	0	0	0	0	519	560	166	508	38	2	
1	0	0	0	0	517	561	165	510	38	2	
2	0	0	0	0	518	562	165	510	38	2	
3	0	0	0	0	519	563	165	512	38	2	
4	0	0	0	0	509	563	166	515	38	2	
5	0	0	0	0	505	562	165	516	38	2	
6	0	0	0	0	506	563	164	516	38	2	
7	0	0	0	0	502	561	165	515	38	2	
8	0	0	0	0	504	561	164	516	38	2	
9	0	0	0	0	501	560	165	515	38	2	
10	0	0	0	0	497	560	164	514	38	2	
11	0	0	0	0	500	560	166	513	38	2	
12	0	0	0	0	505	560	165	513	38	2	
13	0	0	0	0	513	562	165	514	38	2	
14	0	0	0	0	509	562	166	513	38	2	
15	0	0	0	0	518	561	164	512	38	2	
0	0	0	0	0	518	559	166	511	38	2	
1	0	0	0	0	513	557	165	511	38	2	
2	0	0	0	0	521	557	165	512	38	2	
3	0	0	0	0	516	558	165	514	38	2	
4	0	0	0	0	506	561	164	515	38	2	
5	0	0	0	0	505	563	165	516	38	2	
6	0	0	0	0	509	563	164	517	38	2	
7	0	0	0	0	496	564	166	519	38	2	
8	0	0	0	0	495	564	164	520	38	2	
9	0	0	0	0	503	564	166	521	38	2	
10	0	0	0	0	501	563	165	520	38	2	
11	0	0	0	0	500	560	166	519	38	2	
12	0	0	0	0	505	559	165	518	38	2	
13	0	0	0	0	510	556	165	516	38	2	
14	0	0	0	0	512	554	165	514	38	2	
15	0	0	0	0	515	551	164	512	38	2	
0	0	0	0	0	516	551	166	512	38	2	
1	0	0	0	0	518	552	165	512	38	2	
2	0	0	0	0	520	552	166	512	38	2	
3	0	0	0	0	515	552	165	511	38	2	
4	0	0	0	0	515	552	165	512	38	2	
5	0	0	0	0	504	552	165	513	38	2	
6	0	0	0	0	509	551	164	520	38	2	
7	0	0	0	0	502	550	165	525	38	2	
8	0	0	0	0	503	549	164	526	38	2	
9	0	0	0	0	499	548	166	527	38	2	
10	0	0	0	0	499	546	165	526	38	2	
11	0	0	0	0	496	544	166	527	38	2	
12	0	0	0	0	499	542	166	525	38	2	
13	0	0	0	0	500	542	164	523	38	2	
14	0	0	0	0	511	546	166	521	38	2	
15	0	0	0	0	509	552	164	518	38	2	
0	0	0	0	0	518	557	166	517	38	2	
1	0	0	0	0	517	561	165	514	38	2	
2	0	0	0	0	519	561	166	512	38	2	
3	0	0	0	0	524	559	165	508	38	2	
4	0	0	0	0	519	553	166	506	38	2	
5	0	0	0	0	508	547	165	506	38	2	
6	0	0	0	0	509	541	165	506	38	2	
7	0	0	0	0	510	536	166	507	38	2	
8	0	0	0	0	500	529	164	507	38	2	
9	0	0	0	0	504	521	166	508	38	2	
10	0	0	0	0	506	516	165	508	38	2	
11	0	0	0	0	502	512	166	508	38	2	
12	0	0	0	0	492	511	166	507	38	2	
13	0	0	0	0	510	510	165	507	38	2	
14	0	0	0	0	507	511	165	503	38	2	
15	0	0	0	0	509	514	165	504	38	2	
0	0	0	0	0	510	516	166	505	38	2	
1	0	0	0	0	516	519	165	508	38	2	
2	0	0	0	0	511	524	166	508	38	2	
3	0	0	0	0	518	527	166	509	38	2	
4	0	0	0	0	519	531	164	509	38	2	
5	0	0	0	0	510	534	166	510	38	2	
6	0	0	0	0	512	536	164	512	38	2	
7	0	0	0	0	510	539	166	513	38	2	
8	0	0	0	0	507	542	165	513	38	2	
9	0	0	0	0	502	543	165	515	38	2	
10	0	0	0	0	494	544	165	513	38	2	
11	0	0	0	0	497	543	164	512	38	2	
12	0	0	0	0	494	541	166	510	38	2	
13	0	0	0	0	504	539	165	510	38	2	
14	0	0	0	0	508	536	165	508	38	2	
15	0	0	0	0	512	532	166	506	38	2	
0	0	0	0	0	507	529	164	504	38	2	
1	0	0	0	0	513	527	166	502	38	2	
2	0	0	0	0	515	525	165	503	38	2	
3	0	0	0	0	510	524	166	504	38	2	
4	0	0	0	0	519	525	166	508	38	2	
5	0	0	0	0	525	526	166	515	38	2	
6	0	0	0	0	518	529	166	509	38	2	
7	0	0	0	0	515	533	166	512	38	2	
8	0	0	0	0	511	539	166	515	38	2	
9	0	0	0	0	503	544	164	515	38	2	
10	0	0	0	0	497	550	166	515	38	2	
11	0	0	0	0	495	556	164	514	38	2	
12	0	0	0	0	495	562	165	515	38	2	
13	0	0	0	0	499	568	164	513	38	2	
14	0	0	0	0	504	570	166	512	38	2	
15	0	0	0	0	510	572	165	512	38	2	
0	0	0	0	0	504	573	166	512	38	2	
1	0	0	0	0	509	570	165	511	38	2	
2	0	0	0	0	512	566	166	511	38	2	
3	0	0	0	0	511	561	165	511	38	2	
4	0	0	0	0	520	555	166	510	38	2	
5	0	0	0	0	514	551	165	509	38	2	
6	0	0	0	0	518	548	165	510	38	2	
7	0	0	0	0	515	550	166	512	38	2	
8	0	0	0	0	513	552	164	514	38	2	
9	0	0	0	0	506	555	165	514	38	2	
10	0	0	0	0	503	556	164	519	38	2	
11	0	0	0	0	510	558	165	512	38	2	
12	0	0	0	0	498	562	164	512	38	2	
13	0	0	0	0	491	566	166	511	38	2	
14	0	0	0	0	488	568	164	510	38	2	
15	0	0	0	0	502	569	166	510	38	2	
0	0	0	0	0	505	569	165	508	38	2	
1	0	0	0	0	512	571	165	508	38	2	
2	0	0	0	0	514	571	165	507	38	2	
3	0	0	0	0	517	573	164	504	38	2	
4	0	0	0	0	517	575	166	504	38	2	
5	0	0	0	0	516	576	165	505	38	2	
6	0	0	0	0	518	576	165	506	38	2	
7	0	0	0	0	518	576	165	507	38	2	
8	0	0	0	0	513	577	164	508	38	2	
9	0	0	0	0	506	579	165	510	38	2	
10	0	0	0	0	507	579	165	510	38	2	
11	0	0	0	0	502	581	166	512	38	2	
12	0	0	0	0	496	583	165	514	38	2	
13	0	0	0	0	500	583	166	513	38	2	
14	0	0	0	0	488	581	165	512	38	2	
15	0	0	0	0	497	581	164	511	38	2	
0	0	0	0	0	500	580	165	523	38	2	
1	0	0	0	0	509	579	165	510	38	2	
2	0	0	0	0	511	579	165	510	38	2	
3	0	0	0	0	517	579	164	510	38	2	
4	0	0	0	0	516	579	165	508	38	2	
5	0	0	0	0	519	580	165	509	38	2	
6	0	0	0	0	517	580	166	508	38	2	
7	0	0	0	0	520	579	165	511	38	2	
8	0	0	0	0	510	580	164	511	38	2	
9	0	0	0	0	513	581	165	510	38	2	
10	0	0	0	0	514	583	165	511	38	2	
11	0	0	0	0	505	582	166	509	38	2	
12	0	0	0	0	494	582	165	508	38	2	
13	0	0	0	0	499	581	166	508	38	2	
14	0	0	0	0	500	579	165	508	38	2	
15	0	0	0	0	499	578	166	507	38	2	
0	0	0	0	0	501	575	164	507	38	2	
1	0	0	0	0	495	572	166	508	38	2	
2	0	0	0	0	502	572	165	509	38	2	
3	0	0	0	0	507	569	164	509	38	2	
4	0	0	0	0	518	568	166	510	38	2	
5	0	0	0	0	513	567	165	511	38	2	
6	0	0	0	0	515	564	165	512	38	2	
7	0	0	0	0	512	564	165	512	38	2	
8	0	0	0	0	515	564	164	513	38	2	
9	0	0	0	0	519	565	165	513	38	2	
10	0	0	0	0	508	564	164	514	38	2	
11	0	0	0	0	515	564	166	514	38	2	
12	0	0	0	0	505	563	165	514	38	2	
13	0	0	0	0	501	561	166	512	38	2	
14	0	0	0	0	502	559	165	515	38	2	
15	0	0	0	0	491	556	164	515	38	2	
0	0	0	0	0	504	552	166	515	38	2	
1	0	0	0	0	501	550	165	513	38	2	
2	0	0	0	0	501	547	166	512	38	2	
3	0	0	0	0	504	544	165	514	38	2	
4	0	0	0	0	516	541	166	508	38	2	
5	0	0	0	0	520	541	165	509	38	2	
6	0	0	0	0	512	540	166	509	38	2	
7	0	0	0	0	518	539	166	508	38	2	
8	0	0	0	0	513	539	165	508	38	2	
9	0	0	0	0	516	539	166	512	38	2	
10	0	0	0	0	519	541	165	508	38	2	
11	0	0	0	0	507	542	166	510	38	2	
12	0	0	0	0	507	542	165	510	38	2	
13	0	0	0	0	506	544	166	511	38	2	
14	0	0	0	0	499	545	165	511	38	2	
15	0	0	0	0	499	545	166	510	38	2	
0	0	0	0	0	494	544	166	508	38	2	
1	0	0	0	0	493	543	165	508	38	2	
2	0	0	0	0	504	541	166	507	38	2	
3	0	0	0	0	508	538	165	507	38	2	
4	0	0	0	0	508	536	166	506	38	2	
5	0	0	0	0	515	534	165	506	38	2	
6	0	0	0	0	524	532	166	506	38	2	
7	0	0	0	0	513	531	166	507	38	2	
8	0	0	0	0	517	529	166	508	38	2	
9	0	0	0	0	518	530	165	508	38	2	
10	0	0	0	0	510	531	166	508	38	2	
11	0	0	0	0	521	532	166	508	38	2	
12	0	0	0	0	513	532	165	510	38	2	
13	0	0	0	0	504	532	166	509	38	2	
14	0	0	0	0	504	532	165	510	38	2	
15	0	0	0	0	495	533	166	511	38	2	
0	0	0	0	0	495	533	165	511	38	2	
1	0	0	0	0	498	532	166	511	38	2	
2	0	0	0	0	509	532	166	510	38	2	
3	0	0	0	0	502	533	165	511	38	2	
4	0	0	0	0	504	535	166	511	38	2	
5	0	0	0	0	516	536	165	509	38	2	
6	0	0	0	0	515	537	166	509	38	2	
7	0	0	0	0	519	536	165	511	38	2	
8	0	0	0	0	517	534	166	511	38	2	
9	0	0	0	0	516	536	166	511	38	2	
10	0	0	0	0	520	541	165	511	38	2	
11	0	0	0	0	512	547	165	513	38	2	
12	0	0	0	0	509	551	164	514	38	2	
13	0	0	0	0	507	555	166	514	38	2	
14	0	0	0	0	508	555	165	513	38	2	
15	0	0	0	0	499	554	166	513	38	2	
0	0	0	0	0	498	553	165	512	38	2	
1	0	0	0	0	499	551	166	511	38	2	
2	0	0	0	0	495	548	166	519	38	2	
3	0	0	0	0	506	544	164	512	38	2	
4	0	0	0	0	505	544	166	510	38	2	
5	0	0	0	0	504	545	166	508	38	2	
6	0	0	0	0	507	546	166	508	38	2	
7	0	0	0	0	516	547	166	508	38	2	
8	0	0	0	0	520	548	166	509	38	2	
9	0	0	0	0	521	550	165	511	38	2	
10	0	0	0	0	522	551	166	512	38	2	
11	0	0	0	0	513	551	166	512	38	2	
12	0	0	0	0	510	551	164	513	38	2	
13	0	0	0	0	516	551	166	515	38	2	
14	0	0	0	0	509	553	165	514	38	2	
15	0	0	0	0	501	554	165	515	38	2	
0	0	0	0	0	504	555	166	515	38	2	
1	0	0	0	0	499	556	164	515	38	2	
2	0	0	0	0	502	558	166	515	38	2	
3	0	0	0	0	496	559	165	515	38	2	
4	0	0	0	0	510	558	166	514	38	2	
5	0	0	0	0	504	558	165	512	38	2	
6	0	0	0	0	509	556	165	511	38	2	
7	0	0	0	0	519	555	166	510	38	2	
8	0	0	0	0	510	555	164	510	38	2	
9	0	0	0	0	511	555	166	510	38	2	
10	0	0	0	0	514	555	165	513	38	2	
11	0	0	0	0	514	556	165	512	38	2	
12	0	0	0	0	513	559	165	513	38	2	
13	0	0	0	0	515	561	164	521	38	2	
14	0	0	0	0	508	564	166	528	38	2	
15	0	0	0	0	494	567	165	530	38	2	
0	0	0	0	0	500	569	166	529	38	2	
1	0	0	0	0	502	569	164	528	38	2	
2	0	0	0	0	502	571	166	525	38	2	
3	0	0	0	0	499	571	165	522	38	2	
4	0	0	0	0	505	570	166	519	38	2	
5	0	0	0	0	502	568	166	517	38	2	
6	0	0	0	0	502	567	164	515	38	2	
7	0	0	0	0	518	567	166	514	38	2	
8	0	0	0	0	514	567	165	511	38	2	
9	0	0	0	0	513	566	166	510	38	2	
10	0	0	0	0	524	566	165	510	38	2	
11	0	0	0	0	521	567	165	512	38	2	
12	0	0	0	0	512	568	165	515	38	2	
13	0	0	0	0	516	569	164	519	38	2	
14	0	0	0	0	519	570	166	519	38	2	
15	0	0	0	0	510	571	164	518	38	2	
0	0	0	0	0	499	573	166	517	38	2	
1	0	0	0	0	500	574	165	515	38	2	
2	0	0	0	0	501	575	165	514	38	2	
3	0	0	0	0	495	574	166	513	38	2	
4	0	0	0	0	497	572	164	512	38	2	
5	0	0	0	0	510	570	166	511	38	2	
6	0	0	0	0	501	568	164	510	38	2	
7	0	0	0	0	510	567	166	510	38	2	
8	0	0	0	0	514	565	165	509	38	2	
9	0	0	0	0	520	565	166	508	38	2	
10	0	0	0	0	510	568	166	510	38	2	
11	0	0	0	0	515	570	164	510	38	2	
12	0	0	0	0	520	573	166	511	38	2	
13	0	0	0	0	521	573	165	511	38	2	
14	0	0	0	0	512	573	166	511	38	2	
15	0	0	0	0	506	575	165	510	38	2	
0	0	0	0	0	504	575	164	509	38	2	
1	0	0	0	0	494	576	166	509	38	2	
2	0	0	0	0	503	576	164	508	38	2	
3	0	0	0	0	499	576	166	508	38	2	
4	0	0	0	0	495	578	166	507	38	2	
5	0	0	0	0	499	579	165	508	38	2	
6	0	0	0	0	499	579	166	509	38	2	
7	0	0	0	0	510	576	164	508	38	2	
8	0	0	0	0	512	575	166	508	38	2	
9	0	0	0	0	519	574	165	508	38	2	
10	0	0	0	0	515	574	165	508	38	2	
11	0	0	0	0	516	575	165	508	38	2	
12	0	0	0	0	523	576	164	508	38	2	
13	0	0	0	0	526	578	166	509	38	2	
14	0	0	0	0	513	578	165	510	38	2	
15	0	0	0	0	504	579	166	512	38	2	
0	0	0	0	0	511	580	165	514	38	2	
1	0	0	0	0	511	579	165	513	38	2	
2	0	0	0	0	496	578	166	514	38	2	
3	0	0	0	0	499	578	164	513	38	2	
4	0	0	0	0	499	579	166	513	38	2	
5	0	0	0	0	499	580	166	513	38	2	
6	0	0	0	0	496	581	164	511	38	2	
7	0	0	0	0	504	583	166	510	38	2	
8	0	0	0	0	509	583	165	510	38	2	
9	0	0	0	0	515	583	166	510	38	2	
10	0	0	0	0	519	583	166	510	38	2	
11	0	0	0	0	513	582	166	510	38	2	
12	0	0	0	0	517	583	165	515	38	2	
13	0	0	0	0	525	585	166	510	38	2	
14	0	0	0	0	515	587	164	510	38	2	
15	0	0	0	0	511	589	166	512	38	2	
0	0	0	0	0	503	589	164	513	38	2	
1	0	0	0	0	506	590	166	514	38	2	
2	0	0	0	0	499	588	164	515	38	2	
3	0	0	0	0	499	585	166	516	38	2	
4	0	0	0	0	503	582	164	514	38	2	
5	0	0	0	0	503	578	166	511	38	2	
6	0	0	0	0	500	575	164	508	38	2	
7	0	0	0	0	499	570	166	507	38	2	
8	0	0	0	0	500	565	164	507	38	2	
9	0	0	0	0	512	560	166	507	38	2	
10	0	0	0	0	508	555	166	507	38	2	
11	0	0	0	0	519	550	166	509	38	2	
12	0	0	0	0	521	545	166	512	38	2	
13	0	0	0	0	519	540	165	513	38	2	
14	0	0	0	0	511	536	166	518	38	2	
15	0	0	0	0	514	532	165	512	38	2	
0	0	0	0	0	512	529	166	513	38	2	
1	0	0	0	0	513	525	166	513	38	2	
2	0	0	0	0	509	520	166	512	38	2	
3	0	0	0	0	502	516	165	513	38	2	
4	0	0	0	0	505	512	166	512	38	2	
5	0	0	0	0	503	508	165	512	38	2	
6	0	0	0	0	496	504	166	513	38	2	
7	0	0	0	0	497	498	165	512	38	2	
8	0	0	0	0	500	494	166	512	38	2	
9	0	0	0	0	501	488	166	512	38	2	
10	0	0	0	0	507	483	166	511	38	2	
11	0	0	0	0	517	479	166	510	38	2	
12	0	0	0	0	516	476	165	509	38	2	
13	0	0	0	0	515	472	166	511	38	2	
14	0	0	0	0	516	467	166	510	38	2	
15	0	0	0	0	517	465	166	511	38	2	
0	0	0	0	0	509	465	165	511	38	2	
1	0	0	0	0	506	467	166	513	38	2	
2	0	0	0	0	509	469	165	512	38	2	
3	0	0	0	0	506	471	166	511	38	2	
4	0	0	0	0	504	475	165	511	38	2	
5	0	0	0	0	506	478	166	509	38	2	
6	0	0	0	0	496	482	166	507	38	2	
7	0	0	0	0	500	485	167	508	38	2	
8	0	0	0	0	508	489	166	508	38	2	
9	0	0	0	0	500	492	166	509	38	2	
10	0	0	0	0	501	494	166	510	38	2	
11	0	0	0	0	507	496	165	511	38	2	
12	0	0	0	0	518	500	167	511	38	2	
13	0	0	0	0	520	505	166	512	38	2	
14	0	0	0	0	517	509	166	513	38	2	
15	0	0	0	0	510	514	166	514	38	2	
0	0	0	0	0	515	516	165	515	38	2	
1	0	0	0	0	510	521	166	514	38	2	
2	0	0	0	0	512	524	165	515	38	2	
3	0	0	0	0	499	528	166	515	38	2	
4	0	0	0	0	508	529	165	515	38	2	
5	0	0	0	0	499	529	166	514	38	2	
6	0	0	0	0	497	529	166	518	38	2	
7	0	0	0	0	496	529	165	511	38	2	
8	0	0	0	0	501	530	166	510	38	2	
9	0	0	0	0	504	530	165	510	38	2	
10	0	0	0	0	504	531	166	511	38	2	
11	0	0	0	0	505	532	165	511	38	2	
12	0	0	0	0	512	531	166	511	38	2	
13	0	0	0	0	521	531	166	512	38	2	
14	0	0	0	0	518	530	165	512	38	2	
15	0	0	0	0	519	527	166	512	38	2	
0	0	0	0	0	517	526	165	513	38	2	
1	0	0	0	0	509	527	166	512	38	2	
2	0	0	0	0	512	529	165	513	38	2	
3	0	0	0	0	514	531	166	515	38	2	
4	0	0	0	0	504	533	165	515	38	2	
5	0	0	0	0	499	536	166	515	38	2	
6	0	0	0	0	506	539	165	513	38	2	
7	0	0	0	0	505	541	166	511	38	2	
8	0	0	0	0	492	541	165	508	38	2	
9	0	0	0	0	497	540	166	505	38	2	
10	0	0	0	0	508	537	166	505	38	2	
11	0	0	0	0	513	532	166	504	38	2	
12	0	0	0	0	515	531	165	508	38	2	
13	0	0	0	0	513	531	166	512	38	2	
14	0	0	0	0	522	530	165	514	38	2	
15	0	0	0	0	515	530	166	515	38	2	
0	0	0	0	0	514	527	165	516	38	2	
1	0	0	0	0	513	527	166	515	38	2	
2	0	0	0	0	509	527	165	515	38	2	
3	0	0	0	0	518	528	166	516	38	2	
4	0	0	0	0	506	529	166	516	38	2	
5	0	0	0	0	500	529	166	513	38	2	
6	0	0	0	0	498	530	166	512	38	2	
7	0	0	0	0	502	531	166	511	38	2	
8	0	0	0	0	499	531	166	510	38	2	
9	0	0	0	0	498	531	165	508	38	2	
10	0	0	0	0	497	531	166	506	38	2	
11	0	0	0	0	504	528	165	505	38	2	
12	0	0	0	0	505	527	166	505	38	2	
13	0	0	0	0	519	526	165	505	38	2	
14	0	0	0	0	520	524	166	505	38	2	
15	0	0	0	0	516	523	165	504	38	2	
0	0	0	0	0	519	523	167	506	38	2	
1	0	0	0	0	517	523	166	509	38	2	
2	0	0	0	0	509	523	166	511	38	2	
3	0	0	0	0	508	524	166	511	38	2	
4	0	0	0	0	507	525	165	511	38	2	
5	0	0	0	0	501	527	166	518	38	2	
6	0	0	0	0	502	528	165	512	38	2	
7	0	0	0	0	503	529	166	512	38	2	
8	0	0	0	0	505	530	165	510	38	2	
9	0	0	0	0	498	530	166	509	38	2	
10	0	0	0	0	496	531	165	511	38	2	
11	0	0	0	0	510	530	166	511	38	2	
12	0	0	0	0	514	529	165	511	38	2	
13	0	0	0	0	504	529	166	510	38	2	
14	0	0	0	0	512	529	165	509	38	2	
15	0	0	0	0	510	529	166	509	38	2	
0	0	0	0	0	519	529	165	509	38	2	
1	0	0	0	0	519	531	166	510	38	2	
2	0	0	0	0	519	532	166	511	38	2	
3	0	0	0	0	512	534	166	512	38	2	
4	0	0	0	0	511	535	166	512	38	2	
5	0	0	0	0	505	536	166	513	38	2	
6	0	0	0	0	511	538	165	513	38	2	
7	0	0	0	0	501	542	166	514	38	2	
8	0	0	0	0	497	543	165	514	38	2	
9	0	0	0	0	499	543	166	515	38	2	
10	0	0	0	0	503	543	166	515	38	2	
11	0	0	0	0	500	544	165	515	38	2	
12	0	0	0	0	508	543	166	516	38	2	
13	0	0	0	0	505	542	165	515	38	2	
14	0	0	0	0	514	539	166	514	38	2	
15	0	0	0	0	512	536	165	513	38	2	
0	0	0	0	0	513	534	166	511	38	2	
1	0	0	0	0	519	533	165	511	38	2	
2	0	0	0	0	519	534	166	510	38	2	
3	0	0	0	0	518	535	166	510	38	2	
4	0	0	0	0	513	536	166	511	38	2	
5	0	0	0	0	504	537	166	510	38	2	
6	0	0	0	0	509	538	166	510	38	2	
7	0	0	0	0	506	535	166	510	38	2	
8	0	0	0	0	498	533	165	509	38	2	
9	0	0	0	0	496	530	166	509	38	2	
10	0	0	0	0	503	528	165	510	38	2	
11	0	0	0	0	503	525	166	511	38	2	
12	0	0	0	0	504	520	165	511	38	2	
13	0	0	0	0	505	516	166	512	38	2	
14	0	0	0	0	503	512	165	510	38	2	
15	0	0	0	0	513	508	166	508	38	2	
0	0	0	0	0	508	503	166	509	38	2	
1	0	0	0	0	517	499	167	509	38	2	
2	0	0	0	0	521	496	166	509	38	2	
3	0	0	0	0	520	494	166	508	38	2	
4	0	0	0	0	514	491	166	508	38	2	
5	0	0	0	0	508	491	166	508	38	2	
6	0	0	0	0	510	491	166	509	38	2	
7	0	0	0	0	505	494	165	509	38	2	
8	0	0	0	0	505	495	166	511	38	2	
9	0	0	0	0	503	495	166	511	38	2	
10	0	0	0	0	500	492	167	510	38	2	
11	0	0	0	0	496	487	166	508	38	2	
12	0	0	0	0	497	480	166	506	38	2	
13	0	0	0	0	501	474	166	505	38	2	
14	0	0	0	0	504	470	166	506	38	2	
15	0	0	0	0	505	466	167	507	38	2	
0	0	0	0	0	506	463	167	507	38	2	
1	0	0	0	0	517	462	166	508	38	2	
2	0	0	0	0	521	462	167	509	38	2	
3	0	0	0	0	518	460	167	509	38	2	
4	0	0	0	0	512	460	166	508	38	2	
5	0	0	0	0	512	459	166	507	38	2	
6	0	0	0	0	518	458	166	509	38	2	
7	0	0	0	0	508	456	166	510	38	2	
8	0	0	0	0	510	455	166	510	38	2	
9	0	0	0	0	499	453	167	512	38	2	
10	0	0	0	0	494	450	167	512	38	2	
11	0	0	0	0	498	448	167	512	38	2	
12	0	0	0	0	506	444	167	522	38	2	
13	0	0	0	0	504	440	167	511	38	2	
14	0	0	0	0	506	439	167	510	38	2	
15	0	0	0	0	497	436	167	511	38	2	
0	0	0	0	0	508	434	167	510	38	2	
1	0	0	0	0	516	431	166	510	38	2	
2	0	0	0	0	519	429	167	510	38	2	
3	0	0	0	0	519	427	166	513	38	2	
4	0	0	0	0	515	425	167	515	38	2	
5	0	0	0	0	513	424	167	515	38	2	
6	0	0	0	0	515	424	166	514	38	2	
7	0	0	0	0	510	422	167	513	38	2	
8	0	0	0	0	512	423	166	515	38	2	
9	0	0	0	0	504	423	167	514	38	2	
10	0	0	0	0	499	422	167	513	38	2	
11	0	0	0	0	499	422	166	513	38	2	
12	0	0	0	0	492	422	167	512	38	2	
13	0	0	0	0	500	420	166	510	38	2	
14	0	0	0	0	508	418	167	509	38	2	
15	0	0	0	0	504	416	167	508	38	2	
0	0	0	0	0	505	414	167	507	38	2	
1	0	0	0	0	515	410	167	507	38	2	
2	0	0	0	0	515	408	167	509	38	2	
3	0	0	0	0	523	406	167	509	38	2	
4	0	0	0	0	511	403	167	510	38	2	
5	0	0	0	0	517	401	167	511	38	2	
6	0	0	0	0	517	402	167	512	38	2	
7	0	0	0	0	518	404	167	513	38	2	
8	0	0	0	0	515	405	167	515	38	2	
9	0	0	0	0	503	407	167	517	38	2	
10	0	0	0	0	505	408	167	519	38	2	
11	0	0	0	0	499	408	167	517	38	2	
12	0	0	0	0	503	408	166	515	38	2	
13	0	0	0	0	504	408	167	514	38	2	
14	0	0	0	0	500	407	166	513	38	2	
15	0	0	0	0	503	406	167	512	38	2	
0	0	0	0	0	502	406	167	513	38	2	
1	0	0	0	0	503	406	167	512	38	2	
2	0	0	0	0	513	404	167	511	38	2	
3	0	0	0	0	515	403	167	510	38	2	
4	0	0	0	0	516	403	167	508	38	2	
5	0	0	0	0	515	402	166	508	38	2	
6	0	0	0	0	511	404	167	508	38	2	
7	0	0	0	0	508	405	166	508	38	2	
8	0	0	0	0	512	407	167	510	38	2	
9	0	0	0	0	513	409	167	512	38	2	
10	0	0	0	0	509	411	167	512	38	2	
11	0	0	0	0	505	414	167	513	38	2	
12	0	0	0	0	496	413	167	513	38	2	
13	0	0	0	0	499	412	167	513	38	2	
14	0	0	0	0	503	411	166	512	38	2	
15	0	0	0	0	500	410	167	512	38	2	
0	0	0	0	0	502	408	167	511	38	2	
1	0	0	0	0	508	404	167	511	38	2	
2	0	0	0	0	509	403	167	510	38	2	
3	0	0	0	0	514	402	167	510	38	2	
4	0	0	0	0	512	401	167	511	38	2	
5	0	0	0	0	520	400	167	512	38	2	
6	0	0	0	0	522	399	167	513	38	2	
7	0	0	0	0	517	399	167	516	38	2	
8	0	0	0	0	515	400	167	517	38	2	
9	0	0	0	0	506	402	167	518	38	2	
10	0	0	0	0	506	404	167	519	38	2	
11	0	0	0	0	504	406	167	518	38	2	
12	0	0	0	0	507	408	167	517	38	2	
13	0	0	0	0	496	411	167	516	38	2	
14	0	0	0	0	495	412	167	514	38	2	
15	0	0	0	0	493	412	166	524	38	2	
0	0	0	0	0	501	413	167	514	38	2	
1	0	0	0	0	501	413	167	512	38	2	
2	0	0	0	0	510	412	167	509	38	2	
3	0	0	0	0	514	410	167	508	38	2	
4	0	0	0	0	523	407	167	509	38	2	
5	0	0	0	0	516	403	167	510	38	2	
6	0	0	0	0	526	402	166	510	38	2	
7	0	0	0	0	523	402	167	510	38	2	
8	0	0	0	0	511	402	166	510	38	2	
9	0	0	0	0	508	402	167	510	38	2	
10	0	0	0	0	509	403	167	510	38	2	
11	0	0	0	0	502	403	167	511	38	2	
12	0	0	0	0	502	403	167	512	38	2	
13	0	0	0	0	496	404	167	512	38	2	
14	0	0	0	0	497	406	167	512	38	2	
15	0	0	0	0	496	408	166	511	38	2	
0	0	0	0	0	496	412	167	512	38	2	
1	0	0	0	0	506	415	167	512	38	2	
2	0	0	0	0	512	416	167	512	38	2	
3	0	0	0	0	509	416	167	511	38	2	
4	0	0	0	0	517	412	167	511	38	2	
5	0	0	0	0	516	409	167	511	38	2	
6	0	0	0	0	515	407	167	512	38	2	
7	0	0	0	0	512	407	167	512	38	2	
8	0	0	0	0	521	407	167	514	38	2	
9	0	0	0	0	512	408	167	515	38	2	
10	0	0	0	0	515	409	167	516	38	2	
11	0	0	0	0	506	411	167	517	38	2	
12	0	0	0	0	499	413	167	517	38	2	
13	0	0	0	0	498	416	166	518	38	2	
14	0	0	0	0	496	417	167	517	38	2	
15	0	0	0	0	503	419	166	517	38	2	
0	0	0	0	0	500	419	167	517	38	2	
1	0	0	0	0	502	417	166	517	38	2	
2	0	0	0	0	500	415	167	518	38	2	
3	0	0	0	0	501	414	167	516	38	2	
4	0	0	0	0	507	413	167	515	38	2	
5	0	0	0	0	521	411	167	514	38	2	
6	0	0	0	0	518	412	167	513	38	2	
7	0	0	0	0	518	412	167	513	38	2	
8	0	0	0	0	520	413	167	512	38	2	
9	0	0	0	0	512	414	167	513	38	2	
10	0	0	0	0	515	415	167	513	38	2	
11	0	0	0	0	507	417	167	513	38	2	
12	0	0	0	0	503	419	167	513	38	2	
13	0	0	0	0	501	419	167	511	38	2	
14	0	0	0	0	494	420	167	510	38	2	
15	0	0	0	0	506	420	167	508	38	2	
0	0	0	0	0	499	420	167	507	38	2	
1	0	0	0	0	503	420	167	507	38	2	
2	0	0	0	0	507	419	167	507	38	2	
3	0	0	0	0	512	420	167	511	38	2	
4	0	0	0	0	508	420	167	506	38	2	
5	0	0	0	0	512	420	167	505	38	2	
6	0	0	0	0	515	421	167	506	38	2	
7	0	0	0	0	516	422	167	505	38	2	
8	0	0	0	0	514	423	167	507	38	2	
9	0	0	0	0	522	425	167	507	38	2	
10	0	0	0	0	516	428	167	507	38	2	
11	0	0	0	0	509	431	167	508	38	2	
12	0	0	0	0	510	435	167	510	38	2	
13	0	0	0	0	503	438	166	512	38	2	
14	0	0	0	0	507	438	167	514	38	2	
15	0	0	0	0	497	439	166	515	38	2	
0	0	0	0	0	500	440	167	515	38	2	
1	0	0	0	0	505	440	166	513	38	2	
2	0	0	0	0	495	442	167	513	38	2	
3	0	0	0	0	499	441	167	513	38	2	
4	0	0	0	0	502	440	167	512	38	2	
5	0	0	0	0	510	439	167	511	38	2	
6	0	0	0	0	514	438	166	510	38	2	
7	0	0	0	0	512	438	167	509	38	2	
8	0	0	0	0	517	437	166	507	38	2	
9	0	0	0	0	519	438	167	508	38	2	
10	0	0	0	0	520	439	167	509	38	2	
11	0	0	0	0	515	440	167	510	38	2	
12	0	0	0	0	511	440	167	512	38	2	
13	0	0	0	0	509	441	167	514	38	2	
14	0	0	0	0	504	441	166	514	38	2	
15	0	0	0	0	495	442	167	513	38	2	
0	0	0	0	0	502	441	166	513	38	2	
1	0	0	0	0	498	440	167	512	38	2	
2	0	0	0	0	493	438	167	512	38	2	
3	0	0	0	0	504	436	167	512	38	2	
4	0	0	0	0	506	435	167	511	38	2	
5	0	0	0	0	506	435	167	512	38	2	
6	0	0	0	0	510	433	167	511	38	2	
7	0	0	0	0	512	433	167	511	38	2	
8	0	0	0	0	520	432	166	511	38	2	
9	0	0	0	0	521	431	167	512	38	2	
10	0	0	0	0	515	430	166	512	38	2	
11	0	0	0	0	514	431	167	512	38	2	
12	0	0	0	0	515	433	166	513	38	2	
13	0	0	0	0	512	434	167	514	38	2	
14	0	0	0	0	509	437	167	515	38	2	
15	0	0	0	0	503	440	167	514	38	2	
0	0	0	0	0	500	443	167	514	38	2	
1	0	0	0	0	504	445	167	514	38	2	
2	0	0	0	0	501	444	167	512	38	2	
3	0	0	0	0	502	445	167	510	38	2	
4	0	0	0	0	497	444	167	509	38	2	
5	0	0	0	0	508	443	166	508	38	2	
6	0	0	0	0	506	443	167	507	38	2	
7	0	0	0	0	509	441	166	508	38	2	
8	0	0	0	0	511	441	167	508	38	2	
9	0	0	0	0	510	441	167	510	38	2	
10	0	0	0	0	522	442	167	511	38	2	
11	0	0	0	0	523	444	167	512	38	2	
12	0	0	0	0	519	445	167	513	38	2	
13	0	0	0	0	504	448	167	515	38	2	
14	0	0	0	0	517	450	167	515	38	2	
15	0	0	0	0	510	452	167	514	38	2	
0	0	0	0	0	499	455	167	513	38	2	
1	0	0	0	0	504	456	167	512	38	2	
2	0	0	0	0	497	459	167	510	38	2	
3	0	0	0	0	497	460	167	509	38	2	
4	0	0	0	0	495	460	167	510	38	2	
5	0	0	0	0	505	460	167	509	38	2	
6	0	0	0	0	508	461	167	508	38	2	
7	0	0	0	0	509	462	167	508	38	2	
8	0	0	0	0	516	462	167	506	38	2	
9	0	0	0	0	521	463	167	506	38	2	
10	0	0	0	0	513	464	167	507	38	2	
11	0	0	0	0	523	465	167	508	38	2	
12	0	0	0	0	517	470	167	510	38	2	
13	0	0	0	0	509	475	167	512	38	2	
14	0	0	0	0	513	481	167	511	38	2	
15	0	0	0	0	508	487	166	511	38	2	
0	0	0	0	0	507	496	167	511	38	2	
1	0	0	0	0	499	503	166	510	38	2	
2	0	0	0	0	499	507	167	512	38	2	
3	0	0	0	0	496	509	166	513	38	2	
4	0	0	0	0	495	506	167	521	38	2	
5	0	0	0	0	507	501	166	519	38	2	
6	0	0	0	0	500	497	167	511	38	2	
7	0	0	0	0	512	496	166	511	38	2	
8	0	0	0	0	510	495	167	512	38	2	
9	0	0	0	0	514	494	166	511	38	2	
10	0	0	0	0	515	496	167	511	38	2	
11	0	0	0	0	511	499	166	511	38	2	
12	0	0	0	0	522	502	167	519	38	2	
13	0	0	0	0	519	505	166	512	38	2	
14	0	0	0	0	508	508	167	510	38	2	
15	0	0	0	0	512	511	166	513	38	2	
0	0	0	0	0	500	515	167	513	38	2	
1	0	0	0	0	510	516	166	513	38	2	
2	0	0	0	0	491	519	167	514	38	2	
3	0	0	0	0	499	520	166	514	38	2	
4	0	0	0	0	500	522	167	515	38	2	
5	0	0	0	0	500	523	166	513	38	2	
6	0	0	0	0	507	523	167	512	38	2	
7	0	0	0	0	509	522	166	510	38	2	
8	0	0	0	0	519	521	167	509	38	2	
9	0	0	0	0	515	522	166	508	38	2	
10	0	0	0	0	509	522	167	508	38	2	
11	0	0	0	0	516	521	166	509	38	2	
12	0	0	0	0	516	521	167	509	38	2	
13	0	0	0	0	528	522	166	510	38	2	
14	0	0	0	0	517	524	167	517	38	2	
15	0	0	0	0	508	526	167	504	38	2	
0	0	0	0	0	506	526	167	504	38	2	
1	0	0	0	0	508	528	167	507	38	2	
2	0	0	0	0	499	529	166	508	38	2	
3	0	0	0	0	498	529	167	509	38	2	
4	0	0	0	0	499	530	166	510	38	2	
5	0	0	0	0	496	531	167	509	38	2	
6	0	0	0	0	498	531	166	508	38	2	
7	0	0	0	0	506	530	167	508	38	2	
8	0	0	0	0	508	528	166	508	38	2	
9	0	0	0	0	512	528	167	510	38	2	
10	0	0	0	0	513	527	166	509	38	2	
11	0	0	0	0	512	526	167	509	38	2	
12	0	0	0	0	513	527	166	509	38	2	
13	0	0	0	0	527	527	167	510	38	2	
14	0	0	0	0	521	528	167	509	38	2	
15	0	0	0	0	513	529	167	508	38	2	
0	0	0	0	0	515	531	167	508	38	2	
1	0	0	0	0	506	534	166	510	38	2	
2	0	0	0	0	503	537	167	511	38	2	
3	0	0	0	0	499	539	167	510	38	2	
4	0	0	0	0	502	540	167	510	38	2	
5	0	0	0	0	501	540	167	511	38	2	
6	0	0	0	0	493	539	167	510	38	2	
7	0	0	0	0	503	537	166	510	38	2	
8	0	0	0	0	504	535	167	510	38	2	
9	0	0	0	0	505	534	166	509	38	2	
10	0	0	0	0	505	532	167	509	38	2	
11	0	0	0	0	515	530	166	509	38	2	
12	0	0	0	0	515	529	167	508	38	2	
13	0	0	0	0	515	529	166	508	38	2	
14	0	0	0	0	519	531	167	507	38	2	
15	0	0	0	0	515	532	166	508	38	2	
0	0	0	0	0	513	534	167	510	38	2	
1	0	0	0	0	510	536	166	509	38	2	
2	0	0	0	0	508	538	167	512	38	2	
3	0	0	0	0	502	540	166	513	38	2	
4	0	0	0	0	501	542	167	514	38	2	
5	0	0	0	0	501	544	167	514	38	2	
6	0	0	0	0	494	544	167	513	38	2	
7	0	0	0	0	503	543	167	512	38	2	
8	0	0	0	0	502	542	167	511	38	2	
9	0	0	0	0	502	540	167	510	38	2	
10	0	0	0	0	511	538	167	509	38	2	
11	0	0	0	0	513	537	167	507	38	2	
12	0	0	0	0	519	537	167	507	38	2	
13	0	0	0	0	518	536	167	506	38	2	
14	0	0	0	0	519	536	167	506	38	2	
15	0	0	0	0	510	539	167	508	38	2	
0	0	0	0	0	510	540	166	509	38	2	
1	0	0	0	0	514	543	167	512	38	2	
2	0	0	0	0	512	546	166	514	38	2	
3	0	0	0	0	504	548	167	515	38	2	
4	0	0	0	0	500	550	166	517	38	2	
5	0	0	0	0	500	551	167	518	38	2	
6	0	0	0	0	499	552	167	517	38	2	
7	0	0	0	0	496	552	167	515	38	2	
8	0	0	0	0	503	553	167	515	38	2	
9	0	0	0	0	506	552	167	526	38	2	
10	0	0	0	0	503	551	167	523	38	2	
11	0	0	0	0	504	549	166	519	38	2	
12	0	0	0	0	512	547	167	510	38	2	
13	0	0	0	0	519	545	167	518	38	2	
14	0	0	0	0	516	545	167	508	38	2	
15	0	0	0	0	513	545	167	511	38	2	
0	0	0	0	0	513	547	167	510	38	2	
1	0	0	0	0	513	546	166	519	38	2	
2	0	0	0	0	517	547	167	512	38	2	
3	0	0	0	0	509	549	167	512	38	2	
4	0	0	0	0	506	550	167	513	38	2	
5	0	0	0	0	501	552	166	514	38	2	
6	0	0	0	0	495	551	167	519	38	2	
7	0	0	0	0	499	552	166	517	38	2	
8	0	0	0	0	499	551	167	516	38	2	
9	0	0	0	0	503	549	166	514	38	2	
10	0	0	0	0	505	548	167	516	38	2	
11	0	0	0	0	506	547	167	514	38	2	
12	0	0	0	0	515	544	167	513	38	2	
13	0	0	0	0	513	543	167	508	38	2	
14	0	0	0	0	518	540	167	508	38	2	
15	0	0	0	0	516	539	167	508	38	2	
0	0	0	0	0	515	539	167	508	38	2	
1	0	0	0	0	517	542	167	508	38	2	
2	0	0	0	0	513	545	166	510	38	2	
3	0	0	0	0	510	548	167	511	38	2	
4	0	0	0	0	509	550	167	513	38	2	
5	0	0	0	0	504	551	167	513	38	2	
6	0	0	0	0	495	550	167	516	38	2	
7	0	0	0	0	506	546	167	515	38	2	
8	0	0	0	0	499	543	167	514	38	2	
9	0	0	0	0	499	541	166	515	38	2	
10	0	0	0	0	497	539	167	514	38	2	
11	0	0	0	0	507	537	167	511	38	2	
12	0	0	0	0	502	536	167	510	38	2	
13	0	0	0	0	516	535	166	510	38	2	
14	0	0	0	0	515	536	167	510	38	2	
15	0	0	0	0	520	536	167	511	38	2	
0	0	0	0	0	515	536	167	513	38	2	
1	0	0	0	0	510	536	166	515	38	2	
2	0	0	0	0	511	536	167	516	38	2	
3	0	0	0	0	511	537	166	517	38	2	
4	0	0	0	0	511	539	167	518	38	2	
5	0	0	0	0	513	540	167	518	38	2	
6	0	0	0	0	503	541	167	518	38	2	
7	0	0	0	0	499	541	167	516	38	2	
8	0	0	0	0	505	542	167	516	38	2	
9	0	0	0	0	499	541	167	516	38	2	
10	0	0	0	0	499	540	166	515	38	2	
11	0	0	0	0	498	539	167	515	38	2	
12	0	0	0	0	511	537	166	512	38	2	
13	0	0	0	0	513	535	167	512	38	2	
14	0	0	0	0	513	532	167	510	38	2	
15	0	0	0	0	515	531	167	509	38	2	
0	0	0	0	0	518	530	167	508	38	2	
1	0	0	0	0	516	530	167	509	38	2	
2	0	0	0	0	515	531	167	510	38	2	
3	0	0	0	0	512	534	167	511	38	2	
4	0	0	0	0	514	536	167	511	38	2	
5	0	0	0	0	504	537	167	511	38	2	
6	0	0	0	0	499	539	167	513	38	2	
7	0	0	0	0	497	542	167	515	38	2	
8	0	0	0	0	499	545	167	515	38	2	
9	0	0	0	0	503	546	167	515	38	2	
10	0	0	0	0	497	545	166	514	38	2	
11	0	0	0	0	497	544	167	512	38	2	
12	0	0	0	0	504	542	167	511	38	2	
13	0	0	0	0	513	541	167	511	38	2	
14	0	0	0	0	512	540	167	510	38	2	
15	0	0	0	0	508	538	167	510	38	2	
0	0	0	0	0	514	537	167	510	38	2	
1	0	0	0	0	510	537	167	510	38	2	
2	0	0	0	0	512	537	167	510	38	2	
3	0	0	0	0	523	539	167	509	38	2	
4	0	0	0	0	512	539	167	508	38	2	
5	0	0	0	0	511	539	166	509	38	2	
6	0	0	0	0	503	541	167	510	38	2	
7	0	0	0	0	501	543	167	511	38	2	
8	0	0	0	0	498	545	167	512	38	2	
9	0	0	0	0	500	547	167	512	38	2	
10	0	0	0	0	508	547	166	514	38	2	
11	0	0	0	0	505	548	167	514	38	2	
12	0	0	0	0	496	550	167	512	38	2	
13	0	0	0	0	508	551	167	511	38	2	
14	0	0	0	0	503	551	167	510	38	2	
15	0	0	0	0	515	551	167	510	38	2	
0	0	0	0	0	514	552	166	510	38	2	
1	0	0	0	0	513	554	167	511	38	2	
2	0	0	0	0	522	554	167	513	38	2	
3	0	0	0	0	520	553	167	514	38	2	
4	0	0	0	0	516	554	167	513	38	2	
5	0	0	0	0	514	556	167	513	38	2	
6	0	0	0	0	503	559	167	514	38	2	
7	0	0	0	0	508	561	167	516	38	2	
8	0	0	0	0	497	562	168	515	38	2	
9	0	0	0	0	497	563	167	514	38	2	
10	0	0	0	0	500	565	167	514	38	2	
11	0	0	0	0	504	565	167	512	38	2	
12	0	0	0	0	506	564	166	511	38	2	
13	0	0	0	0	504	563	167	508	38	2	
14	0	0	0	0	507	562	166	508	38	2	
15	0	0	0	0	505	562	167	509	38	2	
0	0	0	0	0	519	562	167	510	38	2	
1	0	0	0	0	515	563	167	511	38	2	
2	0	0	0	0	515	563	167	513	38	2	
3	0	0	0	0	521	563	167	515	38	2	
4	0	0	0	0	516	564	167	516	38	2	
5	0	0	0	0	512	565	167	529	38	2	
6	0	0	0	0	517	568	166	519	38	2	
7	0	0	0	0	509	571	167	518	38	2	
8	0	0	0	0	503	573	167	520	38	2	
9	0	0	0	0	492	575	167	520	38	2	
10	0	0	0	0	495	575	166	518	38	2	
11	0	0	0	0	505	577	167	516	38	2	
12	0	0	0	0	496	577	167	515	38	2	
13	0	0	0	0	502	576	167	513	38	2	
14	0	0	0	0	504	575	167	512	38	2	
15	0	0	0	0	507	574	167	509	38	2	
0	0	0	0	0	512	572	167	508	38	2	
1	0	0	0	0	510	572	166	506	38	2	
2	0	0	0	0	518	572	167	506	38	2	
3	0	0	0	0	520	572	167	507	38	2	
4	0	0	0	0	519	572	167	508	38	2	
5	0	0	0	0	514	570	167	511	38	2	
6	0	0	0	0	515	570	167	513	38	2	
7	0	0	0	0	513	571	166	515	38	2	
8	0	0	0	0	509	572	167	515	38	2	
9	0	0	0	0	505	572	166	513	38	2	
10	0	0	0	0	503	572	167	512	38	2	
11	0	0	0	0	498	572	167	512	38	2	
12	0	0	0	0	497	571	167	511	38	2	
13	0	0	0	0	501	570	167	510	38	2	
14	0	0	0	0	499	568	167	508	38	2	
15	0	0	0	0	505	566	167	508	38	2	
0	0	0	0	0	502	562	167	507	38	2	
1	0	0	0	0	519	559	166	508	38	2	
2	0	0	0	0	519	558	167	511	38	2	
3	0	0	0	0	511	556	168	511	38	2	
4	0	0	0	0	515	555	167	512	38	2	
5	0	0	0	0	523	555	168	512	38	2	
6	0	0	0	0	514	555	167	512	38	2	
7	0	0	0	0	518	558	167	512	38	2	
8	0	0	0	0	512	561	166	512	38	2	
9	0	0	0	0	510	565	167	512	38	2	
10	0	0	0	0	500	569	166	512	38	2	
11	0	0	0	0	498	569	167	512	38	2	
12	0	0	0	0	500	567	167	511	38	2	
13	0	0	0	0	495	562	167	511	38	2	
14	0	0	0	0	509	559	167	508	38	2	
15	0	0	0	0	503	555	167	507	38	2	
0	0	0	0	0	502	553	167	505	38	2	
1	0	0	0	0	514	552	167	505	38	2	
2	0	0	0	0	510	550	167	506	38	2	
3	0	0	0	0	516	550	168	506	38	2	
4	0	0	0	0	512	551	167	506	38	2	
5	0	0	0	0	520	553	167	507	38	2	
6	0	0	0	0	516	556	167	509	38	2	
7	0	0	0	0	512	559	167	509	38	2	
8	0	0	0	0	513	562	167	510	38	2	
9	0	0	0	0	511	564	167	519	38	2	
10	0	0	0	0	502	566	167	512	38	2	
11	0	0	0	0	493	566	167	510	38	2	
12	0	0	0	0	507	563	167	509	38	2	
13	0	0	0	0	498	561	167	509	38	2	
14	0	0	0	0	491	558	168	509	38	2	
15	0	0	0	0	511	556	167	510	38	2	
0	0	0	0	0	504	555	167	509	38	2	
1	0	0	0	0	506	554	167	509	38	2	
2	0	0	0	0	518	552	167	509	38	2	
3	0	0	0	0	513	551	167	508	38	2	
4	0	0	0	0	513	551	167	509	38	2	
5	0	0	0	0	515	551	167	509	38	2	
6	0	0	0	0	520	551	167	509	38	2	
7	0	0	0	0	519	551	167	510	38	2	
8	0	0	0	0	514	552	167	511	38	2	
9	0	0	0	0	512	552	167	512	38	2	
10	0	0	0	0	502	553	167	514	38	2	
11	0	0	0	0	504	553	168	515	38	2	
12	0	0	0	0	498	552	167	514	38	2	
13	0	0	0	0	496	551	168	514	38	2	
14	0	0	0	0	498	550	167	513	38	2	
15	0	0	0	0	505	547	167	512	38	2	
0	0	0	0	0	502	543	167	511	38	2	
1	0	0	0	0	502	540	167	510	38	2	
2	0	0	0	0	511	538	168	508	38	2	
3	0	0	0	0	511	537	167	509	38	2	
4	0	0	0	0	517	538	168	510	38	2	
5	0	0	0	0	513	538	167	510	38	2	
6	0	0	0	0	519	538	167	512	38	2	
7	0	0	0	0	524	539	167	514	38	2	
8	0	0	0	0	510	540	167	519	38	2	
9	0	0	0	0	508	541	168	517	38	2	
10	0	0	0	0	508	541	167	516	38	2	
11	0	0	0	0	508	541	168	515	38	2	
12	0	0	0	0	498	542	167	515	38	2	
13	0	0	0	0	497	541	167	514	38	2	
14	0	0	0	0	504	542	168	512	38	2	
15	0	0	0	0	492	541	167	510	38	2	
0	0	0	0	0	503	540	168	509	38	2	
1	0	0	0	0	509	539	167	508	38	2	
2	0	0	0	0	504	538	168	508	38	2	
3	0	0	0	0	508	538	168	507	38	2	
4	0	0	0	0	516	537	168	507	38	2	
5	0	0	0	0	518	537	168	507	38	2	
6	0	0	0	0	520	538	167	506	38	2	
7	0	0	0	0	516	540	167	508	38	2	
8	0	0	0	0	521	541	167	510	38	2	
9	0	0	0	0	513	542	167	512	38	2	
10	0	0	0	0	519	543	167	513	38	2	
11	0	0	0	0	509	544	167	513	38	2	
12	0	0	0	0	502	545	167	515	38	2	
13	0	0	0	0	506	546	167	516	38	2	
14	0	0	0	0	493	547	168	517	38	2	
15	0	0	0	0	493	547	167	519	38	2	
0	0	0	0	0	494	546	168	520	38	2	
1	0	0	0	0	497	545	167	520	38	2	
2	0	0	0	0	507	544	168	519	38	2	
3	0	0	0	0	503	543	167	519	38	2	
4	0	0	0	0	507	542	168	516	38	2	
5	0	0	0	0	516	541	167	514	38	2	
6	0	0	0	0	510	539	168	514	38	2	
7	0	0	0	0	526	539	167	513	38	2	
8	0	0	0	0	516	537	168	510	38	2	
9	0	0	0	0	517	538	168	511	38	2	
10	0	0	0	0	512	539	168	510	38	2	
11	0	0	0	0	518	540	168	510	38	2	
12	0	0	0	0	508	543	167	512	38	2	
13	0	0	0	0	506	545	168	512	38	2	
14	0	0	0	0	500	546	167	513	38	2	
15	0	0	0	0	502	545	168	514	38	2	
0	0	0	0	0	500	543	168	514	38	2	
1	0	0	0	0	497	542	167	515	38	2	
2	0	0	0	0	502	539	168	514	38	2	
3	0	0	0	0	508	537	167	513	38	2	
4	0	0	0	0	504	536	168	511	38	2	
5	0	0	0	0	509	535	168	510	38	2	
6	0	0	0	0	514	536	167	508	38	2	
7	0	0	0	0	511	536	168	507	38	2	
8	0	0	0	0	519	539	167	507	38	2	
9	0	0	0	0	515	542	168	507	38	2	
10	0	0	0	0	514	547	167	507	38	2	
11	0	0	0	0	515	552	168	510	38	2	
12	0	0	0	0	508	558	167	511	38	2	
13	0	0	0	0	497	561	167	523	38	2	
14	0	0	0	0	506	561	167	517	38	2	
15	0	0	0	0	499	560	168	523	38	2	
0	0	0	0	0	498	559	167	517	38	2	
1	0	0	0	0	496	557	168	517	38	2	
2	0	0	0	0	503	553	167	516	38	2	
3	0	0	0	0	510	550	168	517	38	2	
4	0	0	0	0	508	548	167	525	38	2	
5	0	0	0	0	511	546	168	516	38	2	
6	0	0	0	0	511	544	168	516	38	2	
7	0	0	0	0	515	543	167	513	38	2	
8	0	0	0	0	511	543	168	513	38	2	
9	0	0	0	0	512	544	167	512	38	2	
10	0	0	0	0	521	545	168	515	38	2	
11	0	0	0	0	518	546	168	519	38	2	
12	0	0	0	0	517	548	168	521	38	2	
13	0	0	0	0	509	550	168	523	38	2	
14	0	0	0	0	496	551	167	523	38	2	
15	0	0	0	0	503	551	168	523	38	2	
0	0	0	0	0	504	551	167	519	38	2	
1	0	0	0	0	500	552	168	518	38	2	
2	0	0	0	0	500	552	167	513	38	2	
3	0	0	0	0	494	552	168	512	38	2	
4	0	0	0	0	504	552	168	512	38	2	
5	0	0	0	0	511	551	168	510	38	2	
6	0	0	0	0	515	551	168	510	38	2	
7	0	0	0	0	511	550	167	510	38	2	
8	0	0	0	0	514	550	168	510	38	2	
9	0	0	0	0	516	549	167	510	38	2	
10	0	0	0	0	513	548	168	511	38	2	
11	0	0	0	0	513	548	167	510	38	2	
12	0	0	0	0	511	548	168	511	38	2	
13	0	0	0	0	515	550	167	511	38	2	
14	0	0	0	0	508	551	168	511	38	2	
15	0	0	0	0	504	551	167	512	38	2	
0	0	0	0	0	503	552	168	513	38	2	
1	0	0	0	0	503	552	167	513	38	2	
2	0	0	0	0	496	551	168	513	38	2	
3	0	0	0	0	504	550	167	512	38	2	
4	0	0	0	0	503	547	168	512	38	2	
5	0	0	0	0	507	544	167	519	38	2	
6	0	0	0	0	507	542	168	519	38	2	
7	0	0	0	0	512	539	167	512	38	2	
8	0	0	0	0	514	536	168	511	38	2	
9	0	0	0	0	517	535	167	511	38	2	
10	0	0	0	0	518	534	168	515	38	2	
11	0	0	0	0	517	534	168	512	38	2	
12	0	0	0	0	513	534	168	511	38	2	
13	0	0	0	0	514	537	168	512	38	2	
14	0	0	0	0	512	539	167	514	38	2	
15	0	0	0	0	503	541	168	515	38	2	
0	0	0	0	0	502	542	167	515	38	2	
1	0	0	0	0	502	541	168	515	38	2	
2	0	0	0	0	500	541	168	513	38	2	
3	0	0	0	0	491	540	167	512	38	2	
4	0	0	0	0	496	537	168	510	38	2	
5	0	0	0	0	503	535	168	509	38	2	
6	0	0	0	0	506	531	167	510	38	2	
7	0	0	0	0	513	528	169	510	38	2	
8	0	0	0	0	516	525	168	510	38	2	
9	0	0	0	0	518	524	169	509	38	2	
10	0	0	0	0	520	523	167	509	38	2	
11	0	0	0	0	511	523	168	508	38	2	
12	0	0	0	0	519	523	167	509	38	2	
13	0	0	0	0	513	523	168	509	38	2	
14	0	0	0	0	512	524	167	508	38	2	
15	0	0	0	0	507	526	168	507	38	2	
0	0	0	0	0	508	527	167	508	38	2	
1	0	0	0	0	502	529	168	509	38	2	
2	0	0	0	0	497	531	167	509	38	2	
3	0	0	0	0	497	533	168	510	38	2	
4	0	0	0	0	505	533	169	508	38	2	
5	0	0	0	0	505	532	167	507	38	2	
6	0	0	0	0	509	532	168	507	38	2	
7	0	0	0	0	498	530	167	506	38	2	
8	0	0	0	0	505	527	168	505	38	2	
9	0	0	0	0	518	525	167	506	38	2	
10	0	0	0	0	520	524	168	506	38	2	
11	0	0	0	0	518	526	168	507	38	2	
12	0	0	0	0	520	528	168	508	38	2	
13	0	0	0	0	509	531	168	509	38	2	
14	0	0	0	0	508	535	168	511	38	2	
15	0	0	0	0	517	538	168	513	38	2	
0	0	0	0	0	504	543	168	514	38	2	
1	0	0	0	0	505	546	168	514	38	2	
2	0	0	0	0	503	550	168	513	38	2	
3	0	0	0	0	495	551	168	513	38	2	
4	0	0	0	0	504	554	168	512	38	2	
5	0	0	0	0	500	557	167	510	38	2	
6	0	0	0	0	500	558	168	508	38	2	
7	0	0	0	0	510	558	168	509	38	2	
8	0	0	0	0	505	558	167	509	38	2	
9	0	0	0	0	517	557	168	509	38	2	
10	0	0	0	0	516	557	169	508	38	2	
11	0	0	0	0	520	556	167	509	38	2	
12	0	0	0	0	515	553	168	510	38	2	
13	0	0	0	0	523	545	168	511	38	2	
14	0	0	0	0	509	536	168	513	38	2	
15	0	0	0	0	513	530	167	521	38	2	
0	0	0	0	0	505	524	168	513	38	2	
1	0	0	0	0	497	519	167	512	38	2	
2	0	0	0	0	506	515	168	512	38	2	
3	0	0	0	0	493	509	169	512	38	2	
4	0	0	0	0	503	506	168	513	38	2	
5	0	0	0	0	497	503	168	512	38	2	
6	0	0	0	0	499	499	167	511	38	2	
7	0	0	0	0	502	495	168	512	38	2	
8	0	0	0	0	508	491	168	512	38	2	
9	0	0	0	0	518	485	169	513	38	2	
10	0	0	0	0	511	480	168	512	38	2	
11	0	0	0	0	511	476	169	512	38	2	
12	0	0	0	0	516	472	169	512	38	2	
13	0	0	0	0	519	470	168	511	38	2	
14	0	0	0	0	514	470	169	512	38	2	
15	0	0	0	0	518	471	168	512	38	2	
0	0	0	0	0	515	471	169	512	38	2	
1	0	0	0	0	501	471	168	512	38	2	
2	0	0	0	0	507	472	168	512	38	2	
3	0	0	0	0	502	470	169	513	38	2	
4	0	0	0	0	498	467	168	514	38	2	
5	0	0	0	0	498	465	169	515	38	2	
6	0	0	0	0	499	464	168	514	38	2	
7	0	0	0	0	504	463	169	512	38	2	
8	0	0	0	0	499	465	168	517	38	2	
9	0	0	0	0	502	467	169	513	38	2	
10	0	0	0	0	501	470	168	511	38	2	
11	0	0	0	0	519	474	169	510	38	2	
12	0	0	0	0	524	478	168	510	38	2	
13	0	0	0	0	517	482	169	511	38	2	
14	0	0	0	0	518	487	168	511	38	2	
15	0	0	0	0	516	494	169	512	38	2	
0	0	0	0	0	515	499	168	512	38	2	
1	0	0	0	0	511	504	168	514	38	2	
2	0	0	0	0	508	511	168	515	38	2	
3	0	0	0	0	499	516	167	515	38	2	
4	0	0	0	0	498	523	169	516	38	2	
5	0	0	0	0	506	527	168	515	38	2	
6	0	0	0	0	496	531	169	513	38	2	
7	0	0	0	0	496	533	168	513	38	2	
8	0	0	0	0	499	534	168	511	38	2	
9	0	0	0	0	512	534	168	512	38	2	
10	0	0	0	0	506	534	168	513	38	2	
11	0	0	0	0	510	534	168	512	38	2	
12	0	0	0	0	520	534	168	512	38	2	
13	0	0	0	0	518	535	168	512	38	2	
14	0	0	0	0	518	535	168	512	38	2	
15	0	0	0	0	523	536	168	513	38	2	
0	0	0	0	0	518	538	167	515	38	2	
1	0	0	0	0	510	540	168	515	38	2	
2	0	0	0	0	509	542	167	518	38	2	
3	0	0	0	0	506	543	168	515	38	2	
4	0	0	0	0	499	543	167	514	38	2	
5	0	0	0	0	492	544	168	513	38	2	
6	0	0	0	0	502	545	167	511	38	2	
7	0	0	0	0	490	545	168	510	38	2	
8	0	0	0	0	502	545	168	509	38	2	
9	0	0	0	0	512	543	168	508	38	2	
10	0	0	0	0	509	542	167	507	38	2	
11	0	0	0	0	502	540	169	507	38	2	
12	0	0	0	0	514	540	168	509	38	2	
13	0	0	0	0	517	540	169	509	38	2	
14	0	0	0	0	521	541	168	512	38	2	
15	0	0	0	0	521	542	168	513	38	2	
0	0	0	0	0	515	544	169	515	38	2	
1	0	0	0	0	508	546	169	517	38	2	
2	0	0	0	0	506	548	168	517	38	2	
3	0	0	0	0	510	550	169	520	38	2	
4	0	0	0	0	508	551	168	519	38	2	
5	0	0	0	0	502	551	169	519	38	2	
6	0	0	0	0	504	552	168	517	38	2	
7	0	0	0	0	499	552	167	515	38	2	
8	0	0	0	0	493	550	169	513	38	2	
9	0	0	0	0	502	548	168	512	38	2	
10	0	0	0	0	501	546	169	510	38	2	
11	0	0	0	0	512	543	168	508	38	2	
12	0	0	0	0	519	540	169	507	38	2	
13	0	0	0	0	521	539	169	507	38	2	
14	0	0	0	0	510	537	168	509	38	2	
15	0	0	0	0	512	536	169	511	38	2	
0	0	0	0	0	518	536	168	511	38	2	
1	0	0	0	0	516	537	169	511	38	2	
2	0	0	0	0	508	540	168	512	38	2	
3	0	0	0	0	509	542	169	511	38	2	
4	0	0	0	0	504	544	169	514	38	2	
5	0	0	0	0	504	547	169	515	38	2	
6	0	0	0	0	502	550	168	516	38	2	
7	0	0	0	0	499	551	167	515	38	2	
8	0	0	0	0	495	551	169	515	38	2	
9	0	0	0	0	499	548	167	518	38	2	
10	0	0	0	0	497	543	169	513	38	2	
11	0	0	0	0	508	538	168	510	38	2	
12	0	0	0	0	514	535	169	512	38	2	
13	0	0	0	0	512	532	168	512	38	2	
14	0	0	0	0	512	531	169	512	38	2	
15	0	0	0	0	512	530	168	513	38	2	
0	0	0	0	0	515	528	169	513	38	2	
1	0	0	0	0	511	526	168	516	38	2	
2	0	0	0	0	520	526	169	516	38	2	
3	0	0	0	0	511	527	168	518	38	2	
4	0	0	0	0	518	528	169	516	38	2	
5	0	0	0	0	506	531	169	516	38	2	
6	0	0	0	0	504	532	168	516	38	2	
7	0	0	0	0	499	533	169	516	38	2	
8	0	0	0	0	503	533	168	515	38	2	
9	0	0	0	0	499	531	169	514	38	2	
10	0	0	0	0	504	531	169	525	38	2	
11	0	0	0	0	504	529	167	513	38	2	
12	0	0	0	0	500	527	169	510	38	2	
13	0	0	0	0	505	526	168	509	38	2	
14	0	0	0	0	511	524	169	507	38	2	
15	0	0	0	0	513	522	169	507	38	2	
0	0	0	0	0	525	520	169	507	38	2	
1	0	0	0	0	523	520	169	506	38	2	
2	0	0	0	0	506	524	168	508	38	2	
3	0	0	0	0	511	526	169	508	38	2	
4	0	0	0	0	504	528	168	510	38	2	
5	0	0	0	0	506	530	169	512	38	2	
6	0	0	0	0	504	531	169	515	38	2	
7	0	0	0	0	504	532	169	517	38	2	
8	0	0	0	0	503	531	169	517	38	2	
9	0	0	0	0	504	529	168	517	38	2	
10	0	0	0	0	499	526	169	517	38	2	
11	0	0	0	0	507	521	169	515	38	2	
12	0	0	0	0	505	519	168	515	38	2	
13	0	0	0	0	506	516	169	514	38	2	
14	0	0	0	0	504	513	168	513	38	2	
15	0	0	0	0	514	510	169	511	38	2	
0	0	0	0	0	516	507	168	511	38	2	
1	0	0	0	0	520	504	169	512	38	2	
2	0	0	0	0	519	502	168	511	38	2	
3	0	0	0	0	514	500	169	508	38	2	
4	0	0	0	0	516	499	168	509	38	2	
5	0	0	0	0	513	499	169	509	38	2	
6	0	0	0	0	508	498	168	510	38	2	
7	0	0	0	0	508	496	169	509	38	2	
8	0	0	0	0	499	494	169	510	38	2	
9	0	0	0	0	495	492	169	511	38	2	
10	0	0	0	0	499	490	169	512	38	2	
11	0	0	0	0	502	487	169	514	38	2	
12	0	0	0	0	496	483	169	516	38	2	
13	0	0	0	0	505	481	169	516	38	2	
14	0	0	0	0	508	478	169	513	38	2	
15	0	0	0	0	515	475	169	511	38	2	
0	0	0	0	0	511	472	169	509	38	2	
1	0	0	0	0	514	470	169	507	38	2	
2	0	0	0	0	517	470	168	506	38	2	
3	0	0	0	0	521	471	169	505	38	2	
4	0	0	0	0	510	471	169	504	38	2	
5	0	0	0	0	512	472	169	505	38	2	
6	0	0	0	0	505	471	168	507	38	2	
7	0	0	0	0	506	470	169	508	38	2	
8	0	0	0	0	500	470	169	510	38	2	
9	0	0	0	0	498	468	169	509	38	2	
10	0	0	0	0	499	468	168	510	38	2	
11	0	0	0	0	499	465	169	511	38	2	
12	0	0	0	0	498	463	169	511	38	2	
13	0	0	0	0	505	461	169	509	38	2	
14	0	0	0	0	506	459	169	507	38	2	
15	0	0	0	0	504	459	169	508	38	2	
0	0	0	0	0	508	459	169	509	38	2	
1	0	0	0	0	522	459	169	511	38	2	
2	0	0	0	0	520	457	169	512	38	2	
3	0	0	0	0	525	457	169	512	38	2	
4	0	0	0	0	514	460	169	512	38	2	
5	0	0	0	0	511	462	169	513	38	2	
6	0	0	0	0	505	462	169	516	38	2	
7	0	0	0	0	503	461	169	516	38	2	
8	0	0	0	0	503	459	169	525	38	2	
9	0	0	0	0	504	456	169	522	38	2	
10	0	0	0	0	501	452	169	519	38	2	
11	0	0	0	0	504	451	169	516	38	2	
12	0	0	0	0	504	449	169	515	38	2	
13	0	0	0	0	494	446	169	515	38	2	
14	0	0	0	0	497	444	169	512	38	2	
15	0	0	0	0	511	442	170	512	38	2	
0	0	0	0	0	507	440	169	511	38	2	
1	0	0	0	0	513	440	169	511	38	2	
2	0	0	0	0	522	441	169	510	38	2	
3	0	0	0	0	516	444	169	510	38	2	
4	0	0	0	0	515	447	169	509	38	2	
5	0	0	0	0	515	449	169	509	38	2	
6	0	0	0	0	507	449	169	509	38	2	
7	0	0	0	0	508	447	169	511	38	2	
8	0	0	0	0	506	444	169	512	38	2	
9	0	0	0	0	499	441	169	514	38	2	
10	0	0	0	0	504	440	169	512	38	2	
11	0	0	0	0	498	439	169	511	38	2	
12	0	0	0	0	501	438	169	509	38	2	
13	0	0	0	0	510	438	169	508	38	2	
14	0	0	0	0	508	436	169	506	38	2	
15	0	0	0	0	501	435	170	505	38	2	
0	0	0	0	0	507	434	170	506	38	2	
1	0	0	0	0	515	432	169	507	38	2	
2	0	0	0	0	516	432	170	509	38	2	
3	0	0	0	0	511	430	169	511	38	2	
4	0	0	0	0	522	430	169	512	38	2	
5	0	0	0	0	523	430	169	513	38	2	
6	0	0	0	0	508	431	170	514	38	2	
7	0	0	0	0	512	433	169	514	38	2	
8	0	0	0	0	505	434	170	514	38	2	
9	0	0	0	0	506	435	169	515	38	2	
10	0	0	0	0	505	435	169	514	38	2	
11	0	0	0	0	504	435	169	513	38	2	
12	0	0	0	0	493	436	170	515	38	2	
13	0	0	0	0	496	435	169	514	38	2	
14	0	0	0	0	494	435	170	514	38	2	
15	0	0	0	0	501	432	170	513	38	2	
0	0	0	0	0	511	429	169	512	38	2	
1	0	0	0	0	514	428	170	513	38	2	
2	0	0	0	0	509	425	169	510	38	2	
3	0	0	0	0	511	423	170	510	38	2	
4	0	0	0	0	519	423	169	512	38	2	
5	0	0	0	0	515	422	170	512	38	2	
6	0	0	0	0	514	423	170	514	38	2	
7	0	0	0	0	524	424	169	514	38	2	
8	0	0	0	0	511	425	170	515	38	2	
9	0	0	0	0	504	427	169	513	38	2	
10	0	0	0	0	505	427	169	514	38	2	
11	0	0	0	0	499	426	169	514	38	2	
12	0	0	0	0	502	425	170	513	38	2	
13	0	0	0	0	493	423	169	510	38	2	
14	0	0	0	0	505	422	169	509	38	2	
15	0	0	0	0	507	420	169	508	38	2	
0	0	0	0	0	501	418	170	507	38	2	
1	0	0	0	0	503	416	169	508	38	2	
2	0	0	0	0	508	413	170	509	38	2	
3	0	0	0	0	519	412	170	515	38	2	
4	0	0	0	0	516	411	169	515	38	2	
5	0	0	0	0	517	410	170	516	38	2	
6	0	0	0	0	520	411	169	516	38	2	
7	0	0	0	0	516	410	170	517	38	2	
8	0	0	0	0	511	410	169	518	38	2	
9	0	0	0	0	508	412	170	518	38	2	
10	0	0	0	0	508	415	169	519	38	2	
11	0	0	0	0	503	415	170	518	38	2	
12	0	0	0	0	496	412	169	516	38	2	
13	0	0	0	0	508	411	170	514	38	2	
14	0	0	0	0	499	409	169	512	38	2	
15	0	0	0	0	498	408	170	510	38	2	
0	0	0	0	0	504	406	169	510	38	2	
1	0	0	0	0	500	404	170	511	38	2	
2	0	0	0	0	512	402	169	520	38	2	
3	0	0	0	0	512	399	170	509	38	2	
4	0	0	0	0	515	398	170	507	38	2	
5	0	0	0	0	515	396	170	505	38	2	
6	0	0	0	0	521	397	170	504	38	2	
7	0	0	0	0	522	399	169	507	38	2	
8	0	0	0	0	513	402	170	508	38	2	
9	0	0	0	0	516	405	169	511	38	2	
10	0	0	0	0	508	406	170	513	38	2	
11	0	0	0	0	502	408	170	513	38	2	
12	0	0	0	0	498	409	170	513	38	2	
13	0	0	0	0	504	408	170	512	38	2	
14	0	0	0	0	496	409	169	512	38	2	
15	0	0	0	0	497	407	170	511	38	2	
0	0	0	0	0	494	406	170	510	38	2	
1	0	0	0	0	507	403	170	508	38	2	
2	0	0	0	0	504	400	169	507	38	2	
3	0	0	0	0	510	398	170	508	38	2	
4	0	0	0	0	508	396	170	507	38	2	
5	0	0	0	0	526	396	170	506	38	2	
6	0	0	0	0	521	397	170	505	38	2	
7	0	0	0	0	521	396	169	508	38	2	
8	0	0	0	0	508	397	170	510	38	2	
9	0	0	0	0	516	399	170	510	38	2	
10	0	0	0	0	506	400	170	511	38	2	
11	0	0	0	0	511	400	170	511	38	2	
12	0	0	0	0	506	399	170	511	38	2	
13	0	0	0	0	502	400	170	510	38	2	
14	0	0	0	0	504	400	169	510	38	2	
15	0	0	0	0	496	401	170	511	38	2	
0	0	0	0	0	500	402	170	511	38	2	
1	0	0	0	0	504	402	170	508	38	2	
2	0	0	0	0	499	401	170	508	38	2	
3	0	0	0	0	507	399	171	507	38	2	
4	0	0	0	0	509	399	170	507	38	2	
5	0	0	0	0	515	399	170	507	38	2	
6	0	0	0	0	519	400	170	505	38	2	
7	0	0	0	0	520	400	170	506	38	2	
8	0	0	0	0	519	401	170	509	38	2	
9	0	0	0	0	519	402	169	511	38	2	
10	0	0	0	0	510	404	170	512	38	2	
11	0	0	0	0	506	408	170	513	38	2	
12	0	0	0	0	502	413	170	514	38	2	
13	0	0	0	0	507	419	169	515	38	2	
14	0	0	0	0	504	424	170	518	38	2	
15	0	0	0	0	504	428	169	517	38	2	
0	0	0	0	0	502	428	170	516	38	2	
1	0	0	0	0	502	425	170	514	38	2	
2	0	0	0	0	502	422	170	514	38	2	
3	0	0	0	0	504	420	169	513	38	2	
4	0	0	0	0	513	420	171	513	38	2	
5	0	0	0	0	514	419	170	513	38	2	
6	0	0	0	0	519	419	169	514	38	2	
7	0	0	0	0	514	418	170	514	38	2	
8	0	0	0	0	518	420	169	514	38	2	
9	0	0	0	0	516	422	170	515	38	2	
10	0	0	0	0	511	424	170	517	38	2	
11	0	0	0	0	508	427	170	518	38	2	
12	0	0	0	0	514	428	170	518	38	2	
13	0	0	0	0	501	430	169	517	38	2	
14	0	0	0	0	497	432	170	518	38	2	
15	0	0	0	0	503	434	169	516	38	2	
0	0	0	0	0	504	435	170	515	38	2	
1	0	0	0	0	501	435	169	513	38	2	
2	0	0	0	0	499	434	170	513	38	2	
3	0	0	0	0	502	431	169	512	38	2	
4	0	0	0	0	505	428	170	515	38	2	
5	0	0	0	0	508	426	170	512	38	2	
6	0	0	0	0	514	424	170	513	38	2	
7	0	0	0	0	520	423	170	513	38	2	
8	0	0	0	0	521	424	170	514	38	2	
9	0	0	0	0	524	425	170	515	38	2	
10	0	0	0	0	516	427	169	514	38	2	
11	0	0	0	0	513	427	170	512	38	2	
12	0	0	0	0	495	429	169	511	38	2	
13	0	0	0	0	509	430	170	512	38	2	
14	0	0	0	0	505	432	169	511	38	2	
15	0	0	0	0	501	432	170	513	38	2	
0	0	0	0	0	498	431	169	514	38	2	
1	0	0	0	0	499	431	170	514	38	2	
2	0	0	0	0	500	431	169	514	38	2	
3	0	0	0	0	500	430	170	513	38	2	
4	0	0	0	0	502	428	169	512	38	2	
5	0	0	0	0	511	427	170	510	38	2	
6	0	0	0	0	512	425	170	508	38	2	
7	0	0	0	0	516	424	170	508	38	2	
8	0	0	0	0	520	423	169	508	38	2	
9	0	0	0	0	514	424	170	509	38	2	
10	0	0	0	0	515	425	170	512	38	2	
11	0	0	0	0	518	426	170	513	38	2	
12	0	0	0	0	515	429	170	514	38	2	
13	0	0	0	0	513	432	170	513	38	2	
14	0	0	0	0	503	436	170	512	38	2	
15	0	0	0	0	504	438	170	512	38	2	
0	0	0	0	0	495	439	170	513	38	2	
1	0	0	0	0	501	440	170	512	38	2	
2	0	0	0	0	495	441	170	511	38	2	
3	0	0	0	0	503	441	170	512	38	2	
4	0	0	0	0	503	440	170	510	38	2	
5	0	0	0	0	505	440	171	511	38	2	
6	0	0	0	0	512	438	170	511	38	2	
7	0	0	0	0	514	436	170	510	38	2	
8	0	0	0	0	515	436	170	511	38	2	
9	0	0	0	0	520	437	170	510	38	2	
10	0	0	0	0	509	438	170	510	38	2	
11	0	0	0	0	518	439	170	508	38	2	
12	0	0	0	0	504	440	170	508	38	2	
13	0	0	0	0	516	441	169	508	38	2	
14	0	0	0	0	506	444	170	509	38	2	
15	0	0	0	0	502	447	169	510	38	2	
0	0	0	0	0	494	449	170	509	38	2	
1	0	0	0	0	499	452	169	510	38	2	
2	0	0	0	0	502	454	170	509	38	2	
3	0	0	0	0	505	455	169	509	38	2	
4	0	0	0	0	501	455	170	522	38	2	
5	0	0	0	0	504	456	170	508	38	2	
6	0	0	0	0	508	455	170	507	38	2	
7	0	0	0	0	509	455	170	507	38	2	
8	0	0	0	0	524	455	169	509	38	2	
9	0	0	0	0	513	457	170	510	38	2	
10	0	0	0	0	513	458	170	509	38	2	
11	0	0	0	0	515	459	170	509	38	2	
12	0	0	0	0	516	461	170	512	38	2	
13	0	0	0	0	512	465	169	513	38	2	
14	0	0	0	0	508	469	170	515	38	2	
15	0	0	0	0	501	473	169	518	38	2	
0	0	0	0	0	506	476	170	516	38	2	
1	0	0	0	0	496	480	169	518	38	2	
2	0	0	0	0	496	483	170	519	38	2	
3	0	0	0	0	499	486	169	516	38	2	
4	0	0	0	0	500	488	170	514	38	2	
5	0	0	0	0	507	488	170	513	38	2	
6	0	0	0	0	507	488	170	515	38	2	
7	0	0	0	0	508	486	170	514	38	2	
8	0	0	0	0	511	484	169	515	38	2	
9	0	0	0	0	517	484	170	513	38	2	
10	0	0	0	0	519	484	169	512	38	2	
11	0	0	0	0	515	486	170	512	38	2	
12	0	0	0	0	512	487	169	511	38	2	
13	0	0	0	0	516	489	170	512	38	2	
14	0	0	0	0	514	492	169	513	38	2	
15	0	0	0	0	500	493	170	512	38	2	
0	0	0	0	0	505	497	169	512	38	2	
1	0	0	0	0	497	500	170	512	38	2	
2	0	0	0	0	502	502	170	512	38	2	
3	0	0	0	0	506	501	170	511	38	2	
4	0	0	0	0	495	500	170	509	38	2	
5	0	0	0	0	499	498	170	509	38	2	
6	0	0	0	0	510	496	170	510	38	2	
7	0	0	0	0	511	497	170	511	38	2	
8	0	0	0	0	509	496	169	510	38	2	
9	0	0	0	0	515	495	170	510	38	2	
10	0	0	0	0	515	496	169	511	38	2	
11	0	0	0	0	518	496	170	510	38	2	
12	0	0	0	0	512	496	170	510	38	2	
13	0	0	0	0	514	497	171	510	38	2	
14	0	0	0	0	518	500	169	510	38	2	
15	0	0	0	0	518	504	170	510	38	2	
0	0	0	0	0	508	510	169	510	38	2	
1	0	0	0	0	504	514	171	508	38	2	
2	0	0	0	0	497	516	170	510	38	2	
3	0	0	0	0	498	515	170	509	38	2	
4	0	0	0	0	504	512	170	510	38	2	
5	0	0	0	0	496	507	169	510	38	2	
6	0	0	0	0	495	504	170	510	38	2	
7	0	0	0	0	510	502	169	512	38	2	
8	0	0	0	0	505	500	170	513	38	2	
9	0	0	0	0	507	498	170	513	38	2	
10	0	0	0	0	519	498	170	512	38	2	
11	0	0	0	0	512	499	169	512	38	2	
12	0	0	0	0	521	499	170	513	38	2	
13	0	0	0	0	523	500	169	513	38	2	
14	0	0	0	0	516	501	170	512	38	2	
15	0	0	0	0	512	503	171	513	38	2	
0	0	0	0	0	512	507	170	514	38	2	
1	0	0	0	0	504	510	170	513	38	2	
2	0	0	0	0	504	511	170	511	38	2	
3	0	0	0	0	496	512	169	511	38	2	
4	0	0	0	0	499	513	170	509	38	2	
5	0	0	0	0	495	515	169	508	38	2	
6	0	0	0	0	497	516	170	506	38	2	
7	0	0	0	0	508	518	169	507	38	2	
8	0	0	0	0	507	518	171	507	38	2	
9	0	0	0	0	509	518	170	507	38	2	
10	0	0	0	0	509	516	170	507	38	2	
11	0	0	0	0	515	516	170	509	38	2	
12	0	0	0	0	524	516	170	510	38	2	
13	0	0	0	0	508	515	169	512	38	2	
14	0	0	0	0	520	514	170	514	38	2	
15	0	0	0	0	507	516	169	516	38	2	
0	0	0	0	0	515	519	170	516	38	2	
1	0	0	0	0	510	522	169	515	38	2	
2	0	0	0	0	510	524	170	514	38	2	
3	0	0	0	0	507	526	169	513	38	2	
4	0	0	0	0	496	529	170	513	38	2	
5	0	0	0	0	499	531	169	512	38	2	
6	0	0	0	0	492	531	171	511	38	2	
7	0	0	0	0	498	531	170	511	38	2	
8	0	0	0	0	505	532	170	511	38	2	
9	0	0	0	0	508	533	170	511	38	2	
10	0	0	0	0	504	531	170	511	38	2	
11	0	0	0	0	515	529	169	508	38	2	
12	0	0	0	0	514	528	170	509	38	2	
13	0	0	0	0	512	527	169	508	38	2	
14	0	0	0	0	524	527	170	510	38	2	
15	0	0	0	0	516	529	169	512	38	2	
0	0	0	0	0	516	531	170	511	38	2	
1	0	0	0	0	504	532	169	513	38	2	
2	0	0	0	0	506	534	170	513	38	2	
3	0	0	0	0	506	537	169	514	38	2	
4	0	0	0	0	502	538	170	515	38	2	
5	0	0	0	0	500	538	169	514	38	2	
6	0	0	0	0	501	538	170	514	38	2	
7	0	0	0	0	500	536	169	512	38	2	
8	0	0	0	0	505	536	170	510	38	2	
9	0	0	0	0	506	535	169	509	38	2	
10	0	0	0	0	507	534	170	508	38	2	
11	0	0	0	0	507	532	171	510	38	2	
12	0	0	0	0	514	530	169	509	38	2	
13	0	0	0	0	516	529	170	510	38	2	
14	0	0	0	0	521	527	169	510	38	2	
15	0	0	0	0	514	526	170	510	38	2	
0	0	0	0	0	517	527	169	510	38	2	
1	0	0	0	0	511	529	170	510	38	2	
2	0	0	0	0	514	530	169	510	38	2	
3	0	0	0	0	510	531	170	510	38	2	
4	0	0	0	0	507	530	170	512	38	2	
5	0	0	0	0	499	531	171	512	38	2	
6	0	0	0	0	503	531	170	512	38	2	
7	0	0	0	0	497	532	170	509	38	2	
8	0	0	0	0	500	531	170	508	38	2	
9	0	0	0	0	504	529	169	506	38	2	
10	0	0	0	0	502	528	170	506	38	2	
11	0	0	0	0	507	525	169	507	38	2	
12	0	0	0	0	513	524	171	507	38	2	
13	0	0	0	0	515	524	170	508	38	2	
14	0	0	0	0	519	524	171	507	38	2	
15	0	0	0	0	511	524	170	509	38	2	
0	0	0	0	0	519	525	170	511	38	2	
1	0	0	0	0	513	526	169	510	38	2	
2	0	0	0	0	513	527	170	510	38	2	
3	0	0	0	0	510	528	169	519	38	2	
4	0	0	0	0	504	531	171	511	38	2	
5	0	0	0	0	502	532	170	509	38	2	
6	0	0	0	0	488	533	170	511	38	2	
7	0	0	0	0	499	534	170	509	38	2	
8	0	0	0	0	499	533	170	507	38	2	
9	0	0	0	0	503	534	170	507	38	2	
10	0	0	0	0	502	534	169	507	38	2	
11	0	0	0	0	513	533	171	506	38	2	
12	0	0	0	0	505	531	170	505	38	2	
13	0	0	0	0	508	531	171	506	38	2	
14	0	0	0	0	521	529	170	504	38	2	
15	0	0	0	0	521	527	170	504	38	2	
0	0	0	0	0	518	526	170	506	38	2	
1	0	0	0	0	523	527	170	508	38	2	
2	0	0	0	0	513	529	170	510	38	2	
3	0	0	0	0	507	530	169	512	38	2	
4	0	0	0	0	502	530	171	512	38	2	
5	0	0	0	0	503	530	170	512	38	2	
6	0	0	0	0	504	532	171	513	38	2	
7	0	0	0	0	504	535	170	514	38	2	
8	0	0	0	0	502	536	169	512	38	2	
9	0	0	0	0	500	535	171	511	38	2	
10	0	0	0	0	500	531	170	509	38	2	
11	0	0	0	0	507	527	171	508	38	2	
12	0	0	0	0	506	522	170	507	38	2	
13	0	0	0	0	505	519	171	507	38	2	
14	0	0	0	0	512	517	171	506	38	2	
15	0	0	0	0	519	516	171	505	38	2	
0	0	0	0	0	520	516	170	506	38	2	
1	0	0	0	0	518	518	171	507	38	2	
2	0	0	0	0	514	521	171	508	38	2	
3	0	0	0	0	515	523	170	510	38	2	
4	0	0	0	0	515	525	171	511	38	2	
5	0	0	0	0	511	526	169	512	38	2	
6	0	0	0	0	500	525	170	512	38	2	
7	0	0	0	0	496	526	170	512	38	2	
8	0	0	0	0	497	527	170	513	38	2	
9	0	0	0	0	494	529	171	512	38	2	
10	0	0	0	0	504	527	171	511	38	2	
11	0	0	0	0	502	526	170	509	38	2	
12	0	0	0	0	504	526	171	509	38	2	
13	0	0	0	0	504	525	169	508	38	2	
14	0	0	0	0	516	525	171	508	38	2	
15	0	0	0	0	512	524	169	509	38	2	
0	0	0	0	0	514	524	171	510	38	2	
1	0	0	0	0	516	524	169	512	38	2	
2	0	0	0	0	520	526	170	513	38	2	
3	0	0	0	0	517	527	169	520	38	2	
4	0	0	0	0	513	529	171	517	38	2	
5	0	0	0	0	513	531	170	517	38	2	
6	0	0	0	0	509	534	171	518	38	2	
7	0	0	0	0	501	537	170	518	38	2	
8	0	0	0	0	498	539	171	519	38	2	
9	0	0	0	0	497	539	169	516	38	2	
10	0	0	0	0	506	536	171	515	38	2	
11	0	0	0	0	505	536	170	515	38	2	
12	0	0	0	0	497	535	171	515	38	2	
13	0	0	0	0	503	535	171	515	38	2	
14	0	0	0	0	504	536	170	514	38	2	
15	0	0	0	0	512	535	170	512	38	2	
0	0	0	0	0	517	536	170	512	38	2	
1	0	0	0	0	515	537	171	512	38	2	
2	0	0	0	0	518	539	169	514	38	2	
3	0	0	0	0	520	542	171	513	38	2	
4	0	0	0	0	508	544	170	513	38	2	
5	0	0	0	0	508	546	171	514	38	2	
6	0	0	0	0	513	547	170	515	38	2	
7	0	0	0	0	503	551	169	517	38	2	
8	0	0	0	0	501	554	170	517	38	2	
9	0	0	0	0	505	555	169	514	38	2	
10	0	0	0	0	505	557	171	513	38	2	
11	0	0	0	0	498	556	170	512	38	2	
12	0	0	0	0	500	557	171	512	38	2	
13	0	0	0	0	502	556	170	513	38	2	
14	0	0	0	0	500	555	171	514	38	2	
15	0	0	0	0	512	555	171	515	38	2	
0	0	0	0	0	511	553	171	515	38	2	
1	0	0	0	0	515	553	171	516	38	2	
2	0	0	0	0	514	553	171	515	38	2	
3	0	0	0	0	522	554	171	516	38	2	
4	0	0	0	0	514	555	169	515	38	2	
5	0	0	0	0	511	556	171	516	38	2	
6	0	0	0	0	511	557	169	528	38	2	
7	0	0	0	0	510	558	171	529	38	2	
8	0	0	0	0	501	559	170	519	38	2	
9	0	0	0	0	502	561	171	517	38	2	
10	0	0	0	0	505	561	169	515	38	2	
11	0	0	0	0	500	561	171	525	38	2	
12	0	0	0	0	493	560	170	513	38	2	
13	0	0	0	0	497	558	171	520	38	2	
14	0	0	0	0	505	557	169	512	38	2	
15	0	0	0	0	508	555	171	512	38	2	
0	0	0	0	0	519	555	170	512	38	2	
1	0	0	0	0	521	556	171	511	38	2	
2	0	0	0	0	519	554	171	510	38	2	
3	0	0	0	0	519	554	170	510	38	2	
4	0	0	0	0	515	554	171	508	38	2	
5	0	0	0	0	512	554	170	508	38	2	
6	0	0	0	0	511	556	171	509	38	2	
7	0	0	0	0	505	556	170	511	38	2	
8	0	0	0	0	502	556	170	512	38	2	
9	0	0	0	0	499	556	170	512	38	2	
10	0	0	0	0	496	556	169	515	38	2	
11	0	0	0	0	497	557	171	513	38	2	
12	0	0	0	0	499	555	170	511	38	2	
13	0	0	0	0	504	553	171	512	38	2	
14	0	0	0	0	504	552	170	511	38	2	
15	0	0	0	0	509	552	171	509	38	2	
0	0	0	0	0	509	551	170	509	38	2	
1	0	0	0	0	511	549	171	508	38	2	
2	0	0	0	0	519	548	171	509	38	2	
3	0	0	0	0	512	546	171	510	38	2	
4	0	0	0	0	519	547	171	511	38	2	
5	0	0	0	0	522	547	170	510	38	2	
6	0	0	0	0	515	547	171	511	38	2	
7	0	0	0	0	509	547	170	512	38	2	
8	0	0	0	0	513	548	171	515	38	2	
9	0	0	0	0	506	550	170	516	38	2	
10	0	0	0	0	502	551	171	515	38	2	
11	0	0	0	0	494	550	169	515	38	2	
12	0	0	0	0	496	550	171	515	38	2	
13	0	0	0	0	500	549	169	512	38	2	
14	0	0	0	0	503	549	171	512	38	2	
15	0	0	0	0	495	548	170	511	38	2	
0	0	0	0	0	504	550	171	510	38	2	
1	0	0	0	0	511	553	171	509	38	2	
2	0	0	0	0	517	555	170	508	38	2	
3	0	0	0	0	512	556	171	509	38	2	
4	0	0	0	0	516	554	170	510	38	2	
5	0	0	0	0	519	550	171	512	38	2	
6	0	0	0	0	517	546	171	512	38	2	
7	0	0	0	0	513	543	170	512	38	2	
8	0	0	0	0	511	543	171	513	38	2	
9	0	0	0	0	508	545	170	513	38	2	
10	0	0	0	0	508	545	171	515	38	2	
11	0	0	0	0	502	545	170	516	38	2	
12	0	0	0	0	501	545	171	515	38	2	
13	0	0	0	0	493	546	171	513	38	2	
14	0	0	0	0	502	546	171	512	38	2	
15	0	0	0	0	505	545	171	511	38	2	
0	0	0	0	0	505	544	171	510	38	2	
1	0	0	0	0	509	543	171	509	38	2	
2	0	0	0	0	510	543	171	509	38	2	
3	0	0	0	0	519	544	171	509	38	2	
4	0	0	0	0	519	544	170	509	38	2	
5	0	0	0	0	515	544	171	509	38	2	
6	0	0	0	0	518	544	170	510	38	2	
7	0	0	0	0	514	544	171	511	38	2	
8	0	0	0	0	511	544	170	512	38	2	
9	0	0	0	0	507	546	171	513	38	2	
10	0	0	0	0	504	547	170	512	38	2	
11	0	0	0	0	502	549	171	511	38	2	
12	0	0	0	0	501	551	171	510	38	2	
13	0	0	0	0	498	552	171	509	38	2	
14	0	0	0	0	500	553	171	510	38	2	
15	0	0	0	0	500	555	170	511	38	2	
0	0	0	0	0	499	555	171	510	38	2	
1	0	0	0	0	513	555	171	512	38	2	
2	0	0	0	0	512	555	171	512	38	2	
3	0	0	0	0	519	553	171	512	38	2	
4	0	0	0	0	517	551	170	513	38	2	
5	0	0	0	0	517	548	171	514	38	2	
6	0	0	0	0	515	547	171	515	38	2	
7	0	0	0	0	518	547	170	516	38	2	
8	0	0	0	0	515	547	171	516	38	2	
9	0	0	0	0	514	547	171	515	38	2	
10	0	0	0	0	507	548	171	516	38	2	
11	0	0	0	0	505	549	170	516	38	2	
12	0	0	0	0	496	550	171	515	38	2	
13	0	0	0	0	495	551	170	513	38	2	
14	0	0	0	0	508	552	171	513	38	2	
15	0	0	0	0	503	552	170	511	38	2	
0	0	0	0	0	503	552	171	508	38	2	
1	0	0	0	0	499	552	170	505	38	2	
2	0	0	0	0	514	553	171	505	38	2	
3	0	0	0	0	516	553	171	507	38	2	
4	0	0	0	0	515	554	170	506	38	2	
5	0	0	0	0	513	555	171	506	38	2	
6	0	0	0	0	517	554	171	505	38	2	
7	0	0	0	0	515	556	171	506	38	2	
8	0	0	0	0	519	557	170	507	38	2	
9	0	0	0	0	516	559	171	509	38	2	
10	0	0	0	0	508	561	170	511	38	2	
11	0	0	0	0	507	563	171	511	38	2	
12	0	0	0	0	499	563	170	512	38	2	
13	0	0	0	0	500	564	171	512	38	2	
14	0	0	0	0	500	565	170	512	38	2	
15	0	0	0	0	495	566	172	513	38	2	
0	0	0	0	0	498	565	171	513	38	2	
1	0	0	0	0	505	563	170	513	38	2	
2	0	0	0	0	494	563	171	515	38	2	
3	0	0	0	0	505	563	170	515	38	2	
4	0	0	0	0	518	560	171	515	38	2	
5	0	0	0	0	518	560	170	513	38	2	
6	0	0	0	0	515	559	171	513	38	2	
7	0	0	0	0	521	558	171	514	38	2	
8	0	0	0	0	524	559	171	514	38	2	
9	0	0	0	0	511	560	171	515	38	2	
10	0	0	0	0	513	563	169	516	38	2	
11	0	0	0	0	511	564	171	515	38	2	
12	0	0	0	0	496	565	170	513	38	2	
13	0	0	0	0	503	565	171	512	38	2	
14	0	0	0	0	501	566	170	512	38	2	
15	0	0	0	0	502	566	171	511	38	2	
0	0	0	0	0	497	565	170	511	38	2	
1	0	0	0	0	505	566	171	511	38	2	
2	0	0	0	0	500	564	170	511	38	2	
3	0	0	0	0	509	562	171	511	38	2	
4	0	0	0	0	511	559	171	509	38	2	
5	0	0	0	0	516	556	171	502	38	2	
6	0	0	0	0	513	553	171	497	38	2	
7	0	0	0	0	513	551	170	498	38	2	
8	0	0	0	0	520	550	171	501	38	2	
9	0	0	0	0	515	548	171	503	38	2	
10	0	0	0	0	518	548	171	504	38	2	
11	0	0	0	0	516	548	171	506	38	2	
12	0	0	0	0	505	550	170	511	38	2	
13	0	0	0	0	505	551	171	511	38	2	
14	0	0	0	0	500	550	171	508	38	2	
15	0	0	0	0	499	549	171	520	38	2	
0	0	0	0	0	499	549	171	516	38	2	
1	0	0	0	0	499	548	170	513	38	2	
2	0	0	0	0	507	548	171	512	38	2	
3	0	0	0	0	500	548	171	513	38	2	
4	0	0	0	0	505	547	171	514	38	2	
5	0	0	0	0	518	550	171	514	38	2	
6	0	0	0	0	519	551	170	513	38	2	
7	0	0	0	0	512	553	171	514	38	2	
8	0	0	0	0	513	553	170	519	38	2	
9	0	0	0	0	512	551	171	512	38	2	
10	0	0	0	0	518	551	170	513	38	2	
11	0	0	0	0	510	550	171	513	38	2	
12	0	0	0	0	514	550	171	513	38	2	
13	0	0	0	0	502	552	170	512	38	2	
14	0	0	0	0	504	553	171	521	38	2	
15	0	0	0	0	506	553	170	513	38	2	
0	0	0	0	0	503	552	171	516	38	2	
1	0	0	0	0	499	551	170	514	38	2	
2	0	0	0	0	498	550	171	519	38	2	
3	0	0	0	0	505	548	170	512	38	2	
4	0	0	0	0	508	546	171	509	38	2	
5	0	0	0	0	509	545	170	510	38	2	
6	0	0	0	0	510	545	172	511	38	2	
7	0	0	0	0	511	545	171	510	38	2	
8	0	0	0	0	521	546	170	509	38	2	
9	0	0	0	0	513	545	171	512	38	2	
10	0	0	0	0	518	546	170	511	38	2	
11	0	0	0	0	509	547	171	512	38	2	
12	0	0	0	0	516	548	170	514	38	2	
13	0	0	0	0	509	550	171	515	38	2	
14	0	0	0	0	505	550	171	515	38	2	
15	0	0	0	0	498	550	172	516	38	2	
0	0	0	0	0	502	550	171	515	38	2	
1	0	0	0	0	498	550	171	515	38	2	
2	0	0	0	0	497	549	171	512	38	2	
3	0	0	0	0	501	548	171	510	38	2	
4	0	0	0	0	498	547	170	510	38	2	
5	0	0	0	0	509	547	171	511	38	2	
6	0	0	0	0	510	544	170	511	38	2	
7	0	0	0	0	519	542	171	512	38	2	
8	0	0	0	0	506	540	170	510	38	2	
9	0	0	0	0	516	539	171	511	38	2	
10	0	0	0	0	517	539	170	511	38	2	
11	0	0	0	0	515	541	171	516	38	2	
12	0	0	0	0	512	542	171	521	38	2	
13	0	0	0	0	515	544	172	513	38	2	
14	0	0	0	0	505	545	171	514	38	2	
15	0	0	0	0	506	547	171	513	38	2	
0	0	0	0	0	502	548	171	513	38	2	
1	0	0	0	0	508	548	171	512	38	2	
2	0	0	0	0	494	547	171	512	38	2	
3	0	0	0	0	500	544	170	513	38	2	
4	0	0	0	0	510	540	171	512	38	2	
5	0	0	0	0	509	538	171	510	38	2	
6	0	0	0	0	506	536	172	509	38	2	
7	0	0	0	0	505	535	171	508	38	2	
8	0	0	0	0	515	534	171	508	38	2	
9	0	0	0	0	513	533	172	509	38	2	
10	0	0	0	0	524	531	171	511	38	2	
11	0	0	0	0	518	531	171	510	38	2	
12	0	0	0	0	509	532	171	512	38	2	
13	0	0	0	0	512	534	171	514	38	2	
14	0	0	0	0	514	536	170	517	38	2	
15	0	0	0	0	508	536	172	519	38	2	
0	0	0	0	0	511	536	171	519	38	2	
1	0	0	0	0	494	535	172	518	38	2	
2	0	0	0	0	494	533	171	516	38	2	
3	0	0	0	0	498	530	171	515	38	2	
4	0	0	0	0	502	529	171	513	38	2	
5	0	0	0	0	500	528	172	511	38	2	
6	0	0	0	0	501	528	171	510	38	2	
7	0	0	0	0	516	528	171	510	38	2	
8	0	0	0	0	514	528	171	511	38	2	
9	0	0	0	0	517	529	171	511	38	2	
10	0	0	0	0	510	531	172	510	38	2	
11	0	0	0	0	519	532	171	509	38	2	
12	0	0	0	0	512	534	172	508	38	2	
13	0	0	0	0	514	535	172	509	38	2	
14	0	0	0	0	515	536	170	512	38	2	
15	0	0	0	0	512	536	171	513	38	2	
0	0	0	0	0	508	536	171	515	38	2	
1	0	0	0	0	503	535	172	514	38	2	
2	0	0	0	0	493	533	171	514	38	2	
3	0	0	0	0	492	534	172	515	38	2	
4	0	0	0	0	498	532	171	514	38	2	
5	0	0	0	0	497	533	172	515	38	2	
6	0	0	0	0	509	533	171	515	38	2	
7	0	0	0	0	504	535	172	516	38	2	
8	0	0	0	0	507	538	172	514	38	2	
9	0	0	0	0	520	541	172	513	38	2	
10	0	0	0	0	522	542	171	514	38	2	
11	0	0	0	0	519	538	172	512	38	2	
12	0	0	0	0	516	533	171	512	38	2	
13	0	0	0	0	519	530	172	511	38	2	
14	0	0	0	0	514	529	171	512	38	2	
15	0	0	0	0	506	531	172	514	38	2	
0	0	0	0	0	506	531	171	516	38	2	
1	0	0	0	0	496	532	171	513	38	2	
2	0	0	0	0	503	535	172	510	38	2	
3	0	0	0	0	505	538	171	510	38	2	
4	0	0	0	0	501	539	171	509	38	2	
5	0	0	0	0	509	538	171	508	38	2	
6	0	0	0	0	500	537	172	507	38	2	
7	0	0	0	0	496	536	172	507	38	2	
8	0	0	0	0	503	535	171	506	38	2	
9	0	0	0	0	511	535	172	507	38	2	
10	0	0	0	0	526	534	171	507	38	2	
11	0	0	0	0	513	533	172	507	38	2	
12	0	0	0	0	513	534	172	505	38	2	
13	0	0	0	0	514	535	171	507	38	2	
14	0	0	0	0	512	538	172	510	38	2	
15	0	0	0	0	508	540	171	511	38	2	
0	0	0	0	0	510	541	172	510	38	2	
1	0	0	0	0	506	543	171	510	38	2	
2	0	0	0	0	501	544	172	511	38	2	
3	0	0	0	0	501	546	171	512	38	2	
4	0	0	0	0	502	548	172	512	38	2	
5	0	0	0	0	496	549	171	512	38	2	
6	0	0	0	0	502	548	170	511	38	2	
7	0	0	0	0	502	549	171	511	38	2	
8	0	0	0	0	511	549	171	512	38	2	
9	0	0	0	0	515	548	172	513	38	2	
10	0	0	0	0	510	548	171	512	38	2	
11	0	0	0	0	513	548	171	512	38	2	
12	0	0	0	0	515	547	170	512	38	2	
13	0	0	0	0	516	548	171	511	38	2	
14	0	0	0	0	518	549	172	513	38	2	
15	0	0	0	0	512	551	172	513	38	2	
0	0	0	0	0	515	553	170	516	38	2	
1	0	0	0	0	517	555	171	517	38	2	
2	0	0	0	0	498	558	170	518	38	2	
3	0	0	0	0	498	560	171	517	38	2	
4	0	0	0	0	502	564	170	516	38	2	
5	0	0	0	0	495	567	171	515	38	2	
6	0	0	0	0	497	569	170	512	38	2	
7	0	0	0	0	503	571	172	510	38	2	
8	0	0	0	0	510	572	171	509	38	2	
9	0	0	0	0	508	573	172	508	38	2	
10	0	0	0	0	508	574	171	508	38	2	
11	0	0	0	0	511	574	172	508	38	2	
12	0	0	0	0	518	576	171	507	38	2	
13	0	0	0	0	518	576	172	508	38	2	
14	0	0	0	0	514	577	171	508	38	2	
15	0	0	0	0	515	578	172	509	38	2	
0	0	0	0	0	510	579	171	512	38	2	
1	0	0	0	0	506	580	172	515	38	2	
2	0	0	0	0	507	579	171	516	38	2	
3	0	0	0	0	505	577	172	519	38	2	
4	0	0	0	0	498	572	171	519	38	2	
5	0	0	0	0	496	568	172	519	38	2	
6	0	0	0	0	507	566	172	518	38	2	
7	0	0	0	0	499	562	171	517	38	2	
8	0	0	0	0	503	557	172	516	38	2	
9	0	0	0	0	505	551	171	515	38	2	
10	0	0	0	0	513	543	172	515	38	2	
11	0	0	0	0	508	536	171	516	38	2	
12	0	0	0	0	519	530	172	515	38	2	
13	0	0	0	0	521	526	171	513	38	2	
14	0	0	0	0	520	521	172	514	38	2	
15	0	0	0	0	518	516	171	513	38	2	
0	0	0	0	0	515	511	172	514	38	2	
1	0	0	0	0	510	505	172	515	38	2	
2	0	0	0	0	508	500	172	516	38	2	
3	0	0	0	0	510	496	172	517	38	2	
4	0	0	0	0	497	492	172	516	38	2	
5	0	0	0	0	499	490	172	515	38	2	
6	0	0	0	0	500	487	171	513	38	2	
7	0	0	0	0	498	483	172	512	38	2	
8	0	0	0	0	497	480	171	511	38	2	
9	0	0	0	0	505	476	172	511	38	2	
10	0	0	0	0	507	472	171	510	38	2	
11	0	0	0	0	515	467	172	509	38	2	
12	0	0	0	0	508	463	172	509	38	2	
13	0	0	0	0	516	459	172	510	38	2	
14	0	0	0	0	514	459	172	508	38	2	
15	0	0	0	0	514	461	172	509	38	2	
0	0	0	0	0	516	463	172	510	38	2	
1	0	0	0	0	518	466	171	510	38	2	
2	0	0	0	0	513	472	172	511	38	2	
3	0	0	0	0	515	477	171	511	38	2	
4	0	0	0	0	505	481	172	510	38	2	
5	0	0	0	0	498	484	171	511	38	2	
6	0	0	0	0	500	487	172	512	38	2	
7	0	0	0	0	497	492	171	512	38	2	
8	0	0	0	0	502	496	172	510	38	2	
9	0	0	0	0	503	499	171	511	38	2	
10	0	0	0	0	506	502	172	510	38	2	
11	0	0	0	0	512	505	172	509	38	2	
12	0	0	0	0	508	508	172	510	38	2	
13	0	0	0	0	510	511	172	510	38	2	
14	0	0	0	0	513	515	172	512	38	2	
15	0	0	0	0	514	517	172	514	38	2	
0	0	0	0	0	522	519	172	511	38	2	
1	0	0	0	0	519	522	172	511	38	2	
2	0	0	0	0	512	525	171	511	38	2	
3	0	0	0	0	513	528	172	512	38	2	
4	0	0	0	0	512	529	171	512	38	2	
5	0	0	0	0	504	530	172	512	38	2	
6	0	0	0	0	496	529	171	512	38	2	
7	0	0	0	0	496	529	172	513	38	2	
8	0	0	0	0	491	530	171	513	38	2	
9	0	0	0	0	500	530	172	512	38	2	
10	0	0	0	0	501	530	171	511	38	2	
11	0	0	0	0	502	531	172	510	38	2	
12	0	0	0	0	519	533	172	508	38	2	
13	0	0	0	0	518	535	172	510	38	2	
14	0	0	0	0	510	539	172	510	38	2	
15	0	0	0	0	514	543	172	509	38	2	
0	0	0	0	0	512	543	172	510	38	2	
1	0	0	0	0	517	542	171	511	38	2	
2	0	0	0	0	520	542	172	513	38	2	
3	0	0	0	0	514	542	171	515	38	2	
4	0	0	0	0	516	543	172	516	38	2	
5	0	0	0	0	503	542	171	516	38	2	
6	0	0	0	0	498	540	172	515	38	2	
7	0	0	0	0	502	540	172	520	38	2	
8	0	0	0	0	500	540	172	517	38	2	
9	0	0	0	0	499	541	172	514	38	2	
10	0	0	0	0	502	542	171	513	38	2	
11	0	0	0	0	500	541	172	512	38	2	
12	0	0	0	0	513	540	171	511	38	2	
13	0	0	0	0	500	537	172	511	38	2	
14	0	0	0	0	519	535	171	511	38	2	
15	0	0	0	0	514	534	172	512	38	2	
0	0	0	0	0	518	531	171	511	38	2	
1	0	0	0	0	515	530	172	512	38	2	
2	0	0	0	0	520	531	171	512	38	2	
3	0	0	0	0	513	532	172	512	38	2	
4	0	0	0	0	508	535	171	513	38	2	
5	0	0	0	0	508	535	172	513	38	2	
6	0	0	0	0	508	535	171	512	38	2	
7	0	0	0	0	497	536	172	513	38	2	
8	0	0	0	0	497	537	172	514	38	2	
9	0	0	0	0	499	537	172	514	38	2	
10	0	0	0	0	495	536	172	515	38	2	
11	0	0	0	0	501	536	171	513	38	2	
12	0	0	0	0	504	535	172	511	38	2	
13	0	0	0	0	512	534	171	510	38	2	
14	0	0	0	0	508	532	172	508	38	2	
15	0	0	0	0	513	532	172	508	38	2	
0	0	0	0	0	513	532	172	509	38	2	
1	0	0	0	0	519	532	171	509	38	2	
2	0	0	0	0	516	534	172	508	38	2	
3	0	0	0	0	517	535	171	509	38	2	
4	0	0	0	0	515	537	172	508	38	2	
5	0	0	0	0	507	540	172	510	38	2	
6	0	0	0	0	503	542	171	511	38	2	
7	0	0	0	0	501	543	172	513	38	2	
8	0	0	0	0	505	544	171	513	38	2	
9	0	0	0	0	504	545	172	514	38	2	
10	0	0	0	0	495	547	171	513	38	2	
11	0	0	0	0	499	547	172	513	38	2	
12	0	0	0	0	501	547	171	512	38	2	
13	0	0	0	0	500	545	172	512	38	2	
14	0	0	0	0	508	543	171	511	38	2	
15	0	0	0	0	517	543	172	512	38	2	
0	0	0	0	0	515	542	171	522	38	2	
1	0	0	0	0	523	543	172	510	38	2	
2	0	0	0	0	510	543	171	510	38	2	
3	0	0	0	0	515	543	172	510	38	2	
4	0	0	0	0	515	544	171	512	38	2	
5	0	0	0	0	518	544	172	511	38	2	
6	0	0	0	0	514	545	172	513	38	2	
7	0	0	0	0	507	547	172	515	38	2	
8	0	0	0	0	504	547	172	515	38	2	
9	0	0	0	0	504	548	171	516	38	2	
10	0	0	0	0	499	548	172	515	38	2	
11	0	0	0	0	496	547	172	515	38	2	
12	0	0	0	0	504	547	172	515	38	2	
13	0	0	0	0	509	546	172	513	38	2	
14	0	0	0	0	500	544	171	512	38	2	
15	0	0	0	0	507	542	172	512	38	2	
0	0	0	0	0	512	540	171	512	38	2	
1	0	0	0	0	516	538	172	512	38	2	
2	0	0	0	0	519	536	172	513	38	2	
3	0	0	0	0	519	533	173	514	38	2	
4	0	0	0	0	509	532	172	514	38	2	
5	0	0	0	0	515	531	172	513	38	2	
6	0	0	0	0	507	530	172	512	38	2	
7	0	0	0	0	515	528	171	512	38	2	
8	0	0	0	0	509	528	172	512	38	2	
9	0	0	0	0	504	526	172	512	38	2	
10	0	0	0	0	501	523	172	513	38	2	
11	0	0	0	0	494	520	172	513	38	2	
12	0	0	0	0	495	516	172	513	38	2	
13	0	0	0	0	503	513	172	512	38	2	
14	0	0	0	0	501	509	171	510	38	2	
15	0	0	0	0	509	505	172	510	38	2	
0	0	0	0	0	503	502	172	510	38	2	
1	0	0	0	0	517	498	172	512	38	2	
2	0	0	0	0	521	496	172	513	38	2	
3	0	0	0	0	520	494	173	514	38	2	
4	0	0	0	0	522	492	172	514	38	2	
5	0	0	0	0	508	491	172	514	38	2	
6	0	0	0	0	514	491	172	515	38	2	
7	0	0	0	0	509	490	171	515	38	2	
8	0	0	0	0	509	491	172	516	38	2	
9	0	0	0	0	507	489	172	516	38	2	
10	0	0	0	0	503	488	172	515	38	2	
11	0	0	0	0	496	486	172	516	38	2	
12	0	0	0	0	491	483	173	517	38	2	
13	0	0	0	0	500	479	172	517	38	2	
14	0	0	0	0	508	475	172	516	38	2	
15	0	0	0	0	505	474	172	515	38	2	
0	0	0	0	0	508	474	172	513	38	2	
1	0	0	0	0	507	475	173	513	38	2	
2	0	0	0	0	518	477	172	512	38	2	
3	0	0	0	0	522	478	173	515	38	2	
4	0	0	0	0	517	477	172	511	38	2	
5	0	0	0	0	516	473	173	509	38	2	
6	0	0	0	0	516	471	172	510	38	2	
7	0	0	0	0	515	470	173	510	38	2	
8	0	0	0	0	513	468	172	510	38	2	
9	0	0	0	0	509	466	173	512	38	2	
10	0	0	0	0	497	463	172	512	38	2	
11	0	0	0	0	493	462	173	512	38	2	
12	0	0	0	0	500	460	172	512	38	2	
13	0	0	0	0	498	457	173	511	38	2	
14	0	0	0	0	499	454	172	510	38	2	
15	0	0	0	0	511	450	173	511	38	2	
0	0	0	0	0	503	447	172	511	38	2	
1	0	0	0	0	505	444	173	511	38	2	
2	0	0	0	0	513	443	173	511	38	2	
3	0	0	0	0	518	442	173	512	38	2	
4	0	0	0	0	520	442	173	512	38	2	
5	0	0	0	0	515	444	173	513	38	2	
6	0	0	0	0	516	444	173	513	38	2	
7	0	0	0	0	514	446	173	514	38	2	
8	0	0	0	0	509	447	173	515	38	2	
9	0	0	0	0	513	446	173	513	38	2	
10	0	0	0	0	509	445	172	512	38	2	
11	0	0	0	0	493	443	173	511	38	2	
12	0	0	0	0	503	440	172	512	38	2	
13	0	0	0	0	501	438	173	511	38	2	
14	0	0	0	0	501	435	172	521	38	2	
15	0	0	0	0	500	434	173	511	38	2	
0	0	0	0	0	491	431	172	509	38	2	
1	0	0	0	0	505	429	173	508	38	2	
2	0	0	0	0	508	427	172	507	38	2	
3	0	0	0	0	519	425	173	507	38	2	
4	0	0	0	0	517	423	172	507	38	2	
5	0	0	0	0	513	422	173	507	38	2	
6	0	0	0	0	519	421	173	508	38	2	
7	0	0	0	0	514	422	173	509	38	2	
8	0	0	0	0	511	422	173	512	38	2	
9	0	0	0	0	510	424	172	512	38	2	
10	0	0	0	0	509	425	173	514	38	2	
11	0	0	0	0	499	426	173	514	38	2	
12	0	0	0	0	498	427	173	515	38	2	
13	0	0	0	0	506	428	173	514	38	2	
14	0	0	0	0	502	428	173	514	38	2	
15	0	0	0	0	503	426	172	515	38	2	
0	0	0	0	0	503	424	173	514	38	2	
1	0	0	0	0	501	423	172	515	38	2	
2	0	0	0	0	506	420	173	515	38	2	
3	0	0	0	0	515	418	173	512	38	2	
4	0	0	0	0	515	417	173	511	38	2	
5	0	0	0	0	514	417	173	511	38	2	
6	0	0	0	0	519	417	173	513	38	2	
7	0	0	0	0	519	417	172	520	38	2	
8	0	0	0	0	514	418	173	520	38	2	
9	0	0	0	0	514	417	172	520	38	2	
10	0	0	0	0	512	418	173	519	38	2	
11	0	0	0	0	504	419	173	518	38	2	
12	0	0	0	0	495	418	173	516	38	2	
13	0	0	0	0	500	417	173	516	38	2	
14	0	0	0	0	500	416	173	512	38	2	
15	0	0	0	0	503	414	173	515	38	2	
0	0	0	0	0	500	412	172	510	38	2	
1	0	0	0	0	501	410	173	505	38	2	
2	0	0	0	0	504	407	172	505	38	2	
3	0	0	0	0	508	404	173	504	38	2	
4	0	0	0	0	519	404	173	502	38	2	
5	0	0	0	0	515	403	173	501	38	2	
6	0	0	0	0	511	403	172	503	38	2	
7	0	0	0	0	515	403	173	504	38	2	
8	0	0	0	0	523	405	172	507	38	2	
9	0	0	0	0	514	407	173	508	38	2	
10	0	0	0	0	511	408	173	510	38	2	
11	0	0	0	0	510	408	173	510	38	2	
12	0	0	0	0	508	408	172	509	38	2	
13	0	0	0	0	496	407	173	510	38	2	
14	0	0	0	0	496	406	172	510	38	2	
15	0	0	0	0	501	404	173	509	38	2	
0	0	0	0	0	494	401	172	508	38	2	
1	0	0	0	0	501	399	173	507	38	2	
2	0	0	0	0	506	396	173	506	38	2	
3	0	0	0	0	508	394	173	505	38	2	
4	0	0	0	0	513	391	172	505	38	2	
5	0	0	0	0	520	389	173	504	38	2	
6	0	0	0	0	516	387	173	504	38	2	
7	0	0	0	0	518	385	173	502	38	2	
8	0	0	0	0	515	385	173	504	38	2	
9	0	0	0	0	514	385	173	507	38	2	
10	0	0	0	0	508	385	173	512	38	2	
11	0	0	0	0	511	386	173	513	38	2	
12	0	0	0	0	508	387	173	513	38	2	
13	0	0	0	0	499	388	172	512	38	2	
14	0	0	0	0	499	389	173	513	38	2	
15	0	0	0	0	500	390	173	513	38	2	
0	0	0	0	0	498	390	173	513	38	2	
1	0	0	0	0	498	389	173	510	38	2	
2	0	0	0	0	500	388	173	510	38	2	
3	0	0	0	0	499	386	173	510	38	2	
4	0	0	0	0	509	384	173	511	38	2	
5	0	0	0	0	515	382	173	511	38	2	
6	0	0	0	0	517	381	173	510	38	2	
7	0	0	0	0	514	382	174	511	38	2	
8	0	0	0	0	514	385	173	512	38	2	
9	0	0	0	0	519	390	173	511	38	2	
10	0	0	0	0	521	394	173	511	38	2	
11	0	0	0	0	516	395	173	511	38	2	
12	0	0	0	0	512	394	173	512	38	2	
13	0	0	0	0	507	393	173	512	38	2	
14	0	0	0	0	502	392	172	512	38	2	
15	0	0	0	0	497	392	173	513	38	2	
0	0	0	0	0	499	392	173	514	38	2	
1	0	0	0	0	498	392	173	514	38	2	
2	0	0	0	0	494	391	173	513	38	2	
3	0	0	0	0	507	390	173	511	38	2	
4	0	0	0	0	510	389	173	511	38	2	
5	0	0	0	0	513	387	173	510	38	2	
6	0	0	0	0	518	385	173	509	38	2	
7	0	0	0	0	515	385	173	509	38	2	
8	0	0	0	0	516	386	173	508	38	2	
9	0	0	0	0	513	386	173	509	38	2	
10	0	0	0	0	520	388	173	511	38	2	
11	0	0	0	0	510	390	173	510	38	2	
12	0	0	0	0	507	394	173	511	38	2	
13	0	0	0	0	507	398	173	512	38	2	
14	0	0	0	0	499	401	173	514	38	2	
15	0	0	0	0	505	404	173	515	38	2	
0	0	0	0	0	505	404	173	515	38	2	
1	0	0	0	0	504	406	173	515	38	2	
2	0	0	0	0	498	405	173	515	38	2	
3	0	0	0	0	499	405	173	513	38	2	
4	0	0	0	0	496	406	173	512	38	2	
5	0	0	0	0	504	405	173	511	38	2	
6	0	0	0	0	513	404	173	510	38	2	
7	0	0	0	0	513	404	173	509	38	2	
8	0	0	0	0	518	406	173	510	38	2	
9	0	0	0	0	522	406	173	511	38	2	
10	0	0	0	0	521	408	174	512	38	2	
11	0	0	0	0	518	410	173	512	38	2	
12	0	0	0	0	513	415	173	511	38	2	
13	0	0	0	0	509	418	173	512	38	2	
14	0	0	0	0	504	420	173	512	38	2	
15	0	0	0	0	501	423	173	515	38	2	
0	0	0	0	0	503	426	172	524	38	2	
1	0	0	0	0	505	425	173	518	38	2	
2	0	0	0	0	499	425	172	522	38	2	
3	0	0	0	0	499	427	173	518	38	2	
4	0	0	0	0	505	427	173	517	38	2	
5	0	0	0	0	500	425	173	515	38	2	
6	0	0	0	0	508	424	173	513	38	2	
7	0	0	0	0	509	424	173	514	38	2	
8	0	0	0	0	513	423	173	512	38	2	
9	0	0	0	0	512	423	173	510	38	2	
10	0	0	0	0	520	424	173	509	38	2	
11	0	0	0	0	517	426	173	509	38	2	
12	0	0	0	0	513	429	173	510	38	2	
13	0	0	0	0	513	432	173	511	38	2	
14	0	0	0	0	507	431	173	512	38	2	
15	0	0	0	0	511	431	172	512	38	2	
0	0	0	0	0	508	431	173	513	38	2	
1	0	0	0	0	502	432	173	513	38	2	
2	0	0	0	0	498	432	173	511	38	2	
3	0	0	0	0	496	431	172	510	38	2	
4	0	0	0	0	497	429	173	509	38	2	
5	0	0	0	0	503	429	172	508	38	2	
6	0	0	0	0	510	428	173	507	38	2	
7	0	0	0	0	513	426	173	508	38	2	
8	0	0	0	0	519	425	173	508	38	2	
9	0	0	0	0	518	425	173	508	38	2	
10	0	0	0	0	518	425	173	508	38	2	
11	0	0	0	0	519	425	174	509	38	2	
12	0	0	0	0	512	426	173	510	38	2	
13	0	0	0	0	509	427	173	510	38	2	
14	0	0	0	0	511	428	173	511	38	2	
15	0	0	0	0	512	429	173	511	38	2	
0	0	0	0	0	499	430	173	510	38	2	
1	0	0	0	0	497	431	173	508	38	2	
2	0	0	0	0	502	432	173	508	38	2	
3	0	0	0	0	492	435	173	508	38	2	
4	0	0	0	0	499	434	173	511	38	2	
5	0	0	0	0	501	434	172	513	38	2	
6	0	0	0	0	498	433	173	512	38	2	
7	0	0	0	0	509	432	173	512	38	2	
8	0	0	0	0	517	432	173	511	38	2	
9	0	0	0	0	521	431	173	510	38	2	
10	0	0	0	0	521	432	174	512	38	2	
11	0	0	0	0	513	432	173	510	38	2	
12	0	0	0	0	518	434	174	511	38	2	
13	0	0	0	0	520	437	173	512	38	2	
14	0	0	0	0	513	439	173	512	38	2	
15	0	0	0	0	505	441	173	512	38	2	
0	0	0	0	0	501	441	174	513	38	2	
1	0	0	0	0	501	443	173	513	38	2	
2	0	0	0	0	504	446	173	511	38	2	
3	0	0	0	0	499	447	173	511	38	2	
4	0	0	0	0	497	448	172	510	38	2	
5	0	0	0	0	504	448	173	510	38	2	
6	0	0	0	0	500	448	172	511	38	2	
7	0	0	0	0	504	452	173	512	38	2	
8	0	0	0	0	505	455	172	511	38	2	
9	0	0	0	0	507	459	173	513	38	2	
10	0	0	0	0	513	462	172	512	38	2	
11	0	0	0	0	523	461	173	514	38	2	
12	0	0	0	0	515	457	173	516	38	2	
13	0	0	0	0	517	453	174	519	38	2	
14	0	0	0	0	517	453	173	519	38	2	
15	0	0	0	0	507	456	173	520	38	2	
0	0	0	0	0	507	459	173	520	38	2	
1	0	0	0	0	510	460	172	519	38	2	
2	0	0	0	0	502	463	173	518	38	2	
3	0	0	0	0	496	465	173	516	38	2	
4	0	0	0	0	500	467	173	514	38	2	
5	0	0	0	0	505	470	172	513	38	2	
6	0	0	0	0	501	472	173	512	38	2	
7	0	0	0	0	500	474	172	513	38	2	
8	0	0	0	0	505	476	173	512	38	2	
9	0	0	0	0	510	478	172	511	38	2	
10	0	0	0	0	511	480	173	512	38	2	
11	0	0	0	0	518	482	173	510	38	2	
12	0	0	0	0	523	484	173	509	38	2	
13	0	0	0	0	517	487	173	511	38	2	
14	0	0	0	0	514	490	173	510	38	2	
15	0	0	0	0	516	494	173	511	38	2	
0	0	0	0	0	513	496	173	511	38	2	
1	0	0	0	0	508	497	173	511	38	2	
2	0	0	0	0	506	503	172	513	38	2	
3	0	0	0	0	502	507	173	514	38	2	
4	0	0	0	0	499	510	172	515	38	2	
5	0	0	0	0	498	512	173	514	38	2	
6	0	0	0	0	504	511	172	513	38	2	
7	0	0	0	0	505	511	173	511	38	2	
8	0	0	0	0	500	511	173	510	38	2	
9	0	0	0	0	501	511	173	511	38	2	
10	0	0	0	0	503	511	173	510	38	2	
11	0	0	0	0	513	511	172	508	38	2	
12	0	0	0	0	525	512	173	508	38	2	
13	0	0	0	0	518	512	172	510	38	2	
14	0	0	0	0	517	514	173	510	38	2	
15	0	0	0	0	516	516	172	510	38	2	
0	0	0	0	0	508	517	173	508	38	2	
1	0	0	0	0	507	519	173	509	38	2	
2	0	0	0	0	504	519	173	508	38	2	
3	0	0	0	0	503	521	173	508	38	2	
4	0	0	0	0	500	523	172	508	38	2	
5	0	0	0	0	496	525	173	509	38	2	
6	0	0	0	0	497	526	172	511	38	2	
7	0	0	0	0	503	526	173	511	38	2	
8	0	0	0	0	512	524	173	512	38	2	
9	0	0	0	0	504	524	173	511	38	2	
10	0	0	0	0	508	523	173	511	38	2	
11	0	0	0	0	517	523	172	515	38	2	
12	0	0	0	0	513	523	173	511	38	2	
13	0	0	0	0	517	524	172	511	38	2	
14	0	0	0	0	512	526	173	511	38	2	
15	0	0	0	0	519	527	173	511	38	2	
0	0	0	0	0	511	528	173	512	38	2	
1	0	0	0	0	514	529	173	512	38	2	
2	0	0	0	0	513	531	172	512	38	2	
3	0	0	0	0	508	533	173	513	38	2	
4	0	0	0	0	499	534	172	512	38	2	
5	0	0	0	0	497	536	173	510	38	2	
6	0	0	0	0	505	538	172	511	38	2	
7	0	0	0	0	500	538	173	512	38	2	
8	0	0	0	0	502	537	173	512	38	2	
9	0	0	0	0	503	538	172	511	38	2	
10	0	0	0	0	507	537	173	510	38	2	
11	0	0	0	0	512	536	172	508	38	2	
12	0	0	0	0	510	535	174	508	38	2	
13	0	0	0	0	507	534	173	508	38	2	
14	0	0	0	0	520	533	172	507	38	2	
15	0	0	0	0	523	534	173	509	38	2	
0	0	0	0	0	509	535	172	512	38	2	
1	0	0	0	0	504	538	173	512	38	2	
2	0	0	0	0	519	541	172	515	38	2	
3	0	0	0	0	513	544	173	516	38	2	
4	0	0	0	0	504	547	172	518	38	2	
5	0	0	0	0	500	550	174	519	38	2	
6	0	0	0	0	499	551	173	520	38	2	
7	0	0	0	0	505	551	172	521	38	2	
8	0	0	0	0	494	551	173	522	38	2	
9	0	0	0	0	507	552	172	520	38	2	
10	0	0	0	0	505	551	173	519	38	2	
11	0	0	0	0	502	551	172	519	38	2	
12	0	0	0	0	504	551	173	517	38	2	
13	0	0	0	0	521	549	173	513	38	2	
14	0	0	0	0	515	549	173	510	38	2	
15	0	0	0	0	512	549	172	510	38	2	
0	0	0	0	0	517	548	173	510	38	2	
1	0	0	0	0	516	548	172	510	38	2	
2	0	0	0	0	522	549	173	511	38	2	
3	0	0	0	0	504	550	173	513	38	2	
4	0	0	0	0	504	550	173	514	38	2	
5	0	0	0	0	498	551	172	515	38	2	
6	0	0	0	0	503	551	173	515	38	2	
7	0	0	0	0	505	551	172	515	38	2	
8	0	0	0	0	503	552	173	514	38	2	
9	0	0	0	0	499	551	173	512	38	2	
10	0	0	0	0	507	550	173	510	38	2	
11	0	0	0	0	499	549	173	521	38	2	
12	0	0	0	0	510	550	172	514	38	2	
13	0	0	0	0	517	553	173	511	38	2	
14	0	0	0	0	512	558	172	511	38	2	
15	0	0	0	0	520	562	173	511	38	2	
0	0	0	0	0	518	564	172	510	38	2	
1	0	0	0	0	524	563	173	510	38	2	
2	0	0	0	0	507	560	172	512	38	2	
3	0	0	0	0	508	556	173	512	38	2	
4	0	0	0	0	504	555	172	513	38	2	
5	0	0	0	0	504	554	173	512	38	2	
6	0	0	0	0	503	554	172	512	38	2	
7	0	0	0	0	500	555	173	513	38	2	
8	0	0	0	0	504	557	172	511	38	2	
9	0	0	0	0	500	558	173	513	38	2	
10	0	0	0	0	504	557	172	514	38	2	
11	0	0	0	0	504	556	173	514	38	2	
12	0	0	0	0	504	552	172	515	38	2	
13	0	0	0	0	508	550	174	514	38	2	
14	0	0	0	0	508	547	173	513	38	2	
15	0	0	0	0	517	545	173	512	38	2	
0	0	0	0	0	522	546	172	511	38	2	
1	0	0	0	0	518	550	173	511	38	2	
2	0	0	0	0	516	552	173	512	38	2	
3	0	0	0	0	511	553	172	513	38	2	
4	0	0	0	0	508	554	173	515	38	2	
5	0	0	0	0	504	555	172	515	38	2	
6	0	0	0	0	504	556	173	515	38	2	
7	0	0	0	0	504	557	172	514	38	2	
8	0	0	0	0	504	557	173	513	38	2	
9	0	0	0	0	498	557	172	513	38	2	
10	0	0	0	0	497	556	173	512	38	2	
11	0	0	0	0	505	554	172	511	38	2	
12	0	0	0	0	507	551	173	510	38	2	
13	0	0	0	0	506	551	172	509	38	2	
14	0	0	0	0	512	552	173	508	38	2	
15	0	0	0	0	513	552	172	506	38	2	
0	0	0	0	0	523	551	173	507	38	2	
1	0	0	0	0	513	549	172	508	38	2	
2	0	0	0	0	520	548	173	509	38	2	
3	0	0	0	0	521	546	172	511	38	2	
4	0	0	0	0	509	546	173	512	38	2	
5	0	0	0	0	508	548	173	512	38	2	
6	0	0	0	0	507	549	173	511	38	2	
7	0	0	0	0	504	551	172	512	38	2	
8	0	0	0	0	502	552	173	513	38	2	
9	0	0	0	0	497	553	173	520	38	2	
10	0	0	0	0	497	553	172	514	38	2	
11	0	0	0	0	499	552	173	511	38	2	
12	0	0	0	0	504	551	174	510	38	2	
13	0	0	0	0	502	547	173	510	38	2	
14	0	0	0	0	510	545	172	508	38	2	
15	0	0	0	0	512	543	173	508	38	2	
0	0	0	0	0	523	542	172	509	38	2	
1	0	0	0	0	516	541	173	510	38	2	
2	0	0	0	0	514	541	172	511	38	2	
3	0	0	0	0	525	542	173	511	38	2	
4	0	0	0	0	516	543	173	513	38	2	
5	0	0	0	0	516	543	174	512	38	2	
6	0	0	0	0	508	544	173	513	38	2	
7	0	0	0	0	500	545	172	513	38	2	
8	0	0	0	0	502	546	173	512	38	2	
9	0	0	0	0	499	546	172	511	38	2	
10	0	0	0	0	504	546	173	511	38	2	
11	0	0	0	0	496	545	172	508	38	2	
12	0	0	0	0	496	542	174	506	38	2	
13	0	0	0	0	504	540	173	506	38	2	
14	0	0	0	0	502	539	172	506	38	2	
15	0	0	0	0	508	538	173	505	38	2	
0	0	0	0	0	515	538	173	506	38	2	
1	0	0	0	0	508	538	174	507	38	2	
2	0	0	0	0	518	537	173	514	38	2	
3	0	0	0	0	517	538	172	507	38	2	
4	0	0	0	0	516	539	173	507	38	2	
5	0	0	0	0	514	541	173	508	38	2	
6	0	0	0	0	514	543	174	508	38	2	
7	0	0	0	0	508	545	173	509	38	2	
8	0	0	0	0	504	548	172	510	38	2	
9	0	0	0	0	495	549	173	510	38	2	
10	0	0	0	0	501	550	172	510	38	2	
11	0	0	0	0	503	550	173	510	38	2	
12	0	0	0	0	500	548	172	509	38	2	
13	0	0	0	0	503	547	173	510	38	2	
14	0	0	0	0	505	544	173	510	38	2	
15	0	0	0	0	502	543	173	512	38	2	
0	0	0	0	0	509	543	172	512	38	2	
1	0	0	0	0	525	542	174	512	38	2	
2	0	0	0	0	517	541	173	511	38	2	
3	0	0	0	0	513	541	174	508	38	2	
4	0	0	0	0	525	542	173	508	38	2	
5	0	0	0	0	512	544	174	509	38	2	
6	0	0	0	0	514	545	173	510	38	2	
7	0	0	0	0	515	547	172	510	38	2	
8	0	0	0	0	502	549	173	510	38	2	
9	0	0	0	0	504	552	172	512	38	2	
10	0	0	0	0	498	555	174	512	38	2	
11	0	0	0	0	507	557	173	513	38	2	
12	0	0	0	0	496	559	172	513	38	2	
13	0	0	0	0	498	561	173	514	38	2	
14	0	0	0	0	496	563	172	514	38	2	
15	0	0	0	0	511	564	174	514	38	2	
0	0	0	0	0	510	562	173	513	38	2	
1	0	0	0	0	508	561	174	513	38	2	
2	0	0	0	0	513	559	173	512	38	2	
3	0	0	0	0	511	557	174	511	38	2	
4	0	0	0	0	517	557	173	512	38	2	
5	0	0	0	0	518	558	173	511	38	2	
6	0	0	0	0	516	560	173	511	38	2	
7	0	0	0	0	510	562	172	512	38	2	
8	0	0	0	0	508	564	173	511	38	2	
9	0	0	0	0	508	566	173	513	38	2	
10	0	0	0	0	503	571	173	513	38	2	
11	0	0	0	0	504	575	173	513	38	2	
12	0	0	0	0	496	580	173	512	38	2	
13	0	0	0	0	502	583	173	510	38	2	
14	0	0	0	0	499	584	174	509	38	2	
15	0	0	0	0	502	583	172	508	38	2	
0	0	0	0	0	512	580	174	507	38	2	
1	0	0	0	0	505	574	172	506	38	2	
2	0	0	0	0	515	570	174	505	38	2	
3	0	0	0	0	513	570	173	507	38	2	
4	0	0	0	0	518	571	172	507	38	2	
5	0	0	0	0	523	574	173	505	38	2	
6	0	0	0	0	518	577	172	507	38	2	
7	0	0	0	0	511	579	173	508	38	2	
8	0	0	0	0	511	582	172	510	38	2	
9	0	0	0	0	507	583	173	510	38	2	
10	0	0	0	0	505	585	173	512	38	2	
11	0	0	0	0	498	585	173	511	38	2	
12	0	0	0	0	504	584	173	512	38	2	
13	0	0	0	0	497	584	172	511	38	2	
14	0	0	0	0	501	581	173	511	38	2	
15	0	0	0	0	507	579	173	510	38	2	
0	0	0	0	0	502	578	174	520	38	2	
1	0	0	0	0	508	575	173	516	38	2	
2	0	0	0	0	506	573	172	510	38	2	
3	0	0	0	0	515	572	173	509	38	2	
4	0	0	0	0	516	572	173	510	38	2	
5	0	0	0	0	523	571	174	511	38	2	
6	0	0	0	0	519	571	172	510	38	2	
7	0	0	0	0	519	572	173	513	38	2	
8	0	0	0	0	515	574	172	514	38	2	
9	0	0	0	0	511	575	173	516	38	2	
10	0	0	0	0	503	576	172	515	38	2	
11	0	0	0	0	496	576	174	515	38	2	
12	0	0	0	0	502	576	173	514	38	2	
13	0	0	0	0	501	576	174	513	38	2	
14	0	0	0	0	492	578	173	513	38	2	
15	0	0	0	0	502	577	172	513	38	2	
0	0	0	0	0	505	577	173	513	38	2	
1	0	0	0	0	499	577	172	512	38	2	
2	0	0	0	0	510	574	173	510	38	2	
3	0	0	0	0	515	572	172	509	38	2	
4	0	0	0	0	516	569	174	508	38	2	
5	0	0	0	0	514	569	173	510	38	2	
6	0	0	0	0	524	568	172	509	38	2	
7	0	0	0	0	518	569	173	509	38	2	
8	0	0	0	0	513	572	172	508	38	2	
9	0	0	0	0	510	574	174	509	38	2	
10	0	0	0	0	511	576	173	511	38	2	
11	0	0	0	0	507	577	173	513	38	2	
12	0	0	0	0	505	579	173	513	38	2	
13	0	0	0	0	498	579	172	524	38	2	
14	0	0	0	0	487	578	173	512	38	2	
15	0	0	0	0	499	578	172	512	38	2	
0	0	0	0	0	503	577	174	513	38	2	
1	0	0	0	0	507	576	173	512	38	2	
2	0	0	0	0	504	575	174	512	38	2	
3	0	0	0	0	505	573	173	511	38	2	
4	0	0	0	0	514	571	174	511	38	2	
5	0	0	0	0	512	571	173	511	38	2	
6	0	0	0	0	524	569	174	511	38	2	
7	0	0	0	0	516	571	173	511	38	2	
8	0	0	0	0	519	570	174	511	38	2	
9	0	0	0	0	508	572	173	513	38	2	
10	0	0	0	0	511	574	174	514	38	2	
11	0	0	0	0	506	574	173	513	38	2	
12	0	0	0	0	507	575	173	514	38	2	
13	0	0	0	0	497	577	173	514	38	2	
14	0	0	0	0	499	579	172	515	38	2	
15	0	0	0	0	496	579	173	514	38	2	
0	0	0	0	0	504	578	172	513	38	2	
1	0	0	0	0	502	576	173	513	38	2	
2	0	0	0	0	498	575	172	511	38	2	
3	0	0	0	0	510	574	174	511	38	2	
4	0	0	0	0	517	573	173	509	38	2	
5	0	0	0	0	518	574	174	509	38	2	
6	0	0	0	0	515	575	174	510	38	2	
7	0	0	0	0	512	575	174	511	38	2	
8	0	0	0	0	515	577	173	512	38	2	
9	0	0	0	0	519	579	174	513	38	2	
10	0	0	0	0	520	581	173	515	38	2	
11	0	0	0	0	516	584	173	517	38	2	
12	0	0	0	0	507	587	173	517	38	2	
13	0	0	0	0	505	588	174	517	38	2	
14	0	0	0	0	499	589	173	516	38	2	
15	0	0	0	0	499	591	173	513	38	2	
0	0	0	0	0	499	591	173	512	38	2	
1	0	0	0	0	500	590	172	511	38	2	
2	0	0	0	0	499	589	174	510	38	2	
3	0	0	0	0	505	588	173	510	38	2	
4	0	0	0	0	503	585	173	510	38	2	
5	0	0	0	0	514	583	174	511	38	2	
6	0	0	0	0	511	581	174	509	38	2	
7	0	0	0	0	519	579	174	510	38	2	
8	0	0	0	0	513	577	174	509	38	2	
9	0	0	0	0	520	577	173	509	38	2	
10	0	0	0	0	513	579	173	509	38	2	
11	0	0	0	0	509	581	172	510	38	2	
12	0	0	0	0	510	583	174	511	38	2	
13	0	0	0	0	504	583	173	513	38	2	
14	0	0	0	0	500	585	173	514	38	2	
15	0	0	0	0	502	589	172	513	38	2	
0	0	0	0	0	499	592	173	513	38	2	
1	0	0	0	0	498	596	174	513	38	2	
2	0	0	0	0	497	597	172	514	38	2	
3	0	0	0	0	505	595	174	513	38	2	
4	0	0	0	0	504	593	172	514	38	2	
5	0	0	0	0	509	589	173	513	38	2	
6	0	0	0	0	516	585	172	512	38	2	
7	0	0	0	0	515	583	174	512	38	2	
8	0	0	0	0	517	581	172	511	38	2	
9	0	0	0	0	519	579	174	511	38	2	
10	0	0	0	0	519	577	172	510	38	2	
11	0	0	0	0	509	578	174	510	38	2	
12	0	0	0	0	506	579	173	511	38	2	
13	0	0	0	0	516	580	174	510	38	2	
14	0	0	0	0	505	580	174	511	38	2	
15	0	0	0	0	509	579	173	510	38	2	
0	0	0	0	0	495	580	174	510	38	2	
1	0	0	0	0	498	580	174	510	38	2	
2	0	0	0	0	497	577	174	515	38	2	
3	0	0	0	0	500	575	172	510	38	2	
4	0	0	0	0	509	575	174	509	38	2	
5	0	0	0	0	510	575	174	508	38	2	
6	0	0	0	0	508	575	174	507	38	2	
7	0	0	0	0	517	575	174	508	38	2	
8	0	0	0	0	511	577	174	509	38	2	
9	0	0	0	0	521	577	174	509	38	2	
10	0	0	0	0	521	578	174	510	38	2	
11	0	0	0	0	517	579	173	509	38	2	
12	0	0	0	0	511	579	173	508	38	2	
13	0	0	0	0	507	581	173	512	38	2	
14	0	0	0	0	508	583	174	514	38	2	
15	0	0	0	0	503	584	173	515	38	2	
0	0	0	0	0	497	583	174	515	38	2	
1	0	0	0	0	503	583	173	514	38	2	
2	0	0	0	0	492	583	174	512	38	2	
3	0	0	0	0	502	583	174	511	38	2	
4	0	0	0	0	504	582	173	511	38	2	
5	0	0	0	0	508	581	174	511	38	2	
6	0	0	0	0	509	578	173	510	38	2	
7	0	0	0	0	512	576	174	509	38	2	
8	0	0	0	0	515	576	172	508	38	2	
9	0	0	0	0	519	576	174	509	38	2	
10	0	0	0	0	512	577	172	509	38	2	
11	0	0	0	0	519	577	174	510	38	2	
12	0	0	0	0	519	579	173	511	38	2	
13	0	0	0	0	505	580	174	511	38	2	
14	0	0	0	0	506	582	172	512	38	2	
15	0	0	0	0	499	583	174	512	38	2	
0	0	0	0	0	504	583	174	513	38	2	
1	0	0	0	0	505	585	173	513	38	2	
2	0	0	0	0	500	584	174	513	38	2	
3	0	0	0	0	498	581	172	512	38	2	
4	0	0	0	0	500	579	174	512	38	2	
5	0	0	0	0	504	576	172	512	38	2	
6	0	0	0	0	507	574	174	511	38	2	
7	0	0	0	0	504	573	172	510	38	2	
8	0	0	0	0	503	574	174	511	38	2	
9	0	0	0	0	521	574	173	511	38	2	
10	0	0	0	0	520	572	174	522	38	2	
11	0	0	0	0	525	571	173	519	38	2	
12	0	0	0	0	523	571	174	514	38	2	
13	0	0	0	0	514	572	173	511	38	2	
14	0	0	0	0	512	575	174	512	38	2	
15	0	0	0	0	510	576	173	511	38	2	
0	0	0	0	0	507	577	174	512	38	2	
1	0	0	0	0	507	577	173	513	38	2	
2	0	0	0	0	492	578	174	515	38	2	
3	0	0	0	0	497	579	173	513	38	2	
4	0	0	0	0	502	579	174	511	38	2	
5	0	0	0	0	500	579	173	511	38	2	
6	0	0	0	0	505	576	174	509	38	2	
7	0	0	0	0	507	574	173	509	38	2	
8	0	0	0	0	512	572	174	509	38	2	
9	0	0	0	0	523	570	174	508	38	2	
10	0	0	0	0	516	569	174	508	38	2	
11	0	0	0	0	517	568	173	510	38	2	
12	0	0	0	0	518	568	174	510	38	2	
13	0	0	0	0	511	567	173	512	38	2	
14	0	0	0	0	516	568	174	513	38	2	
15	0	0	0	0	508	570	173	516	38	2	
0	0	0	0	0	506	569	174	517	38	2	
1	0	0	0	0	501	570	173	517	38	2	
2	0	0	0	0	507	571	174	516	38	2	
3	0	0	0	0	497	571	173	515	38	2	
4	0	0	0	0	495	571	174	515	38	2	
5	0	0	0	0	500	569	174	513	38	2	
6	0	0	0	0	500	567	174	512	38	2	
7	0	0	0	0	500	564	174	511	38	2	
8	0	0	0	0	502	559	174	510	38	2	
9	0	0	0	0	514	555	174	511	38	2	
10	0	0	0	0	515	551	174	512	38	2	
11	0	0	0	0	521	550	174	512	38	2	
12	0	0	0	0	521	550	173	512	38	2	
13	0	0	0	0	522	553	174	512	38	2	
14	0	0	0	0	517	556	173	513	38	2	
15	0	0	0	0	516	557	174	513	38	2	
0	0	0	0	0	513	559	173	513	38	2	
1	0	0	0	0	500	558	174	514	38	2	
2	0	0	0	0	499	553	173	515	38	2	
3	0	0	0	0	500	551	174	519	38	2	
4	0	0	0	0	502	548	173	517	38	2	
5	0	0	0	0	496	545	174	513	38	2	
6	0	0	0	0	503	543	174	512	38	2	
7	0	0	0	0	502	542	174	511	38	2	
8	0	0	0	0	501	540	175	511	38	2	
9	0	0	0	0	505	536	174	511	38	2	
10	0	0	0	0	510	534	174	513	38	2	
11	0	0	0	0	519	531	174	513	38	2	
12	0	0	0	0	524	531	173	512	38	2	
13	0	0	0	0	523	532	174	512	38	2	
14	0	0	0	0	516	531	173	512	38	2	
15	0	0	0	0	513	532	174	513	38	2	
0	0	0	0	0	507	532	174	513	38	2	
1	0	0	0	0	505	534	174	512	38	2	
2	0	0	0	0	501	534	173	514	38	2	
3	0	0	0	0	499	533	174	513	38	2	
4	0	0	0	0	499	532	173	513	38	2	
5	0	0	0	0	507	531	174	512	38	2	
6	0	0	0	0	499	529	175	511	38	2	
7	0	0	0	0	508	528	173	511	38	2	
8	0	0	0	0	504	527	174	510	38	2	
9	0	0	0	0	505	525	173	510	38	2	
10	0	0	0	0	511	523	174	510	38	2	
11	0	0	0	0	522	521	174	510	38	2	
12	0	0	0	0	509	521	174	512	38	2	
13	0	0	0	0	516	522	173	511	38	2	
14	0	0	0	0	516	522	174	511	38	2	
15	0	0	0	0	511	522	173	511	38	2	
0	0	0	0	0	509	525	175	512	38	2	
1	0	0	0	0	512	527	174	512	38	2	
2	0	0	0	0	506	528	174	510	38	2	
3	0	0	0	0	507	530	173	510	38	2	
4	0	0	0	0	499	532	174	510	38	2	
5	0	0	0	0	499	534	173	509	38	2	
6	0	0	0	0	494	534	174	510	38	2	
7	0	0	0	0	505	533	173	509	38	2	
8	0	0	0	0	504	532	174	510	38	2	
9	0	0	0	0	502	531	173	512	38	2	
10	0	0	0	0	506	528	174	512	38	2	
11	0	0	0	0	513	527	173	520	38	2	
12	0	0	0	0	519	525	174	519	38	2	
13	0	0	0	0	518	525	174	519	38	2	
14	0	0	0	0	516	524	174	521	38	2	
15	0	0	0	0	516	526	174	515	38	2	
0	0	0	0	0	519	528	174	514	38	2	
1	0	0	0	0	503	529	174	513	38	2	
2	0	0	0	0	509	531	175	515	38	2	
3	0	0	0	0	513	532	174	515	38	2	
4	0	0	0	0	498	534	174	515	38	2	
5	0	0	0	0	490	534	174	515	38	2	
6	0	0	0	0	501	534	174	526	38	2	
7	0	0	0	0	499	534	174	515	38	2	
8	0	0	0	0	495	536	173	515	38	2	
9	0	0	0	0	503	537	174	515	38	2	
10	0	0	0	0	510	540	173	514	38	2	
11	0	0	0	0	512	540	174	513	38	2	
12	0	0	0	0	513	540	173	511	38	2	
13	0	0	0	0	516	540	174	509	38	2	
14	0	0	0	0	525	539	173	508	38	2	
15	0	0	0	0	516	540	174	508	38	2	
0	0	0	0	0	513	540	174	508	38	2	
1	0	0	0	0	515	541	174	508	38	2	
2	0	0	0	0	513	542	173	509	38	2	
3	0	0	0	0	507	542	174	511	38	2	
4	0	0	0	0	503	545	174	513	38	2	
5	0	0	0	0	499	545	175	512	38	2	
6	0	0	0	0	501	545	174	510	38	2	
7	0	0	0	0	507	545	174	510	38	2	
8	0	0	0	0	494	544	173	509	38	2	
9	0	0	0	0	507	544	174	508	38	2	
10	0	0	0	0	505	544	173	508	38	2	
11	0	0	0	0	499	544	174	506	38	2	
12	0	0	0	0	511	545	173	504	38	2	
13	0	0	0	0	513	545	174	504	38	2	
14	0	0	0	0	523	544	174	505	38	2	
15	0	0	0	0	505	542	174	506	38	2	
0	0	0	0	0	516	540	174	505	38	2	
1	0	0	0	0	515	540	174	506	38	2	
2	0	0	0	0	510	540	173	505	38	2	
3	0	0	0	0	509	541	174	508	38	2	
4	0	0	0	0	504	542	174	508	38	2	
5	0	0	0	0	499	542	174	508	38	2	
6	0	0	0	0	506	542	175	507	38	2	
7	0	0	0	0	507	541	173	508	38	2	
8	0	0	0	0	499	541	175	509	38	2	
9	0	0	0	0	497	541	174	509	38	2	
10	0	0	0	0	502	543	174	509	38	2	
11	0	0	0	0	510	545	174	509	38	2	
12	0	0	0	0	508	544	174	507	38	2	
13	0	0	0	0	509	543	174	507	38	2	
14	0	0	0	0	519	540	174	508	38	2	
15	0	0	0	0	517	536	174	508	38	2	
0	0	0	0	0	511	534	174	508	38	2	
1	0	0	0	0	513	533	174	511	38	2	
2	0	0	0	0	516	533	173	514	38	2	
3	0	0	0	0	513	535	174	518	38	2	
4	0	0	0	0	508	536	174	520	38	2	
5	0	0	0	0	501	536	174	520	38	2	
6	0	0	0	0	506	536	174	520	38	2	
7	0	0	0	0	506	536	174	519	38	2	
8	0	0	0	0	495	536	173	516	38	2	
9	0	0	0	0	503	535	174	515	38	2	
10	0	0	0	0	502	533	173	514	38	2	
11	0	0	0	0	497	532	174	514	38	2	
12	0	0	0	0	508	531	175	515	38	2	
13	0	0	0	0	510	526	174	514	38	2	
14	0	0	0	0	514	525	175	514	38	2	
15	0	0	0	0	514	525	174	515	38	2	
0	0	0	0	0	519	526	174	516	38	2	
1	0	0	0	0	513	527	175	517	38	2	
2	0	0	0	0	511	528	174	517	38	2	
3	0	0	0	0	512	529	174	517	38	2	
4	0	0	0	0	515	531	174	517	38	2	
5	0	0	0	0	510	534	174	517	38	2	
6	0	0	0	0	499	535	175	517	38	2	
7	0	0	0	0	504	536	174	516	38	2	
8	0	0	0	0	500	536	174	515	38	2	
9	0	0	0	0	499	536	174	514	38	2	
10	0	0	0	0	501	533	173	512	38	2	
11	0	0	0	0	496	532	174	511	38	2	
12	0	0	0	0	510	529	173	509	38	2	
13	0	0	0	0	508	527	175	507	38	2	
14	0	0	0	0	511	524	174	505	38	2	
15	0	0	0	0	517	523	174	506	38	2	
0	0	0	0	0	518	524	174	507	38	2	
1	0	0	0	0	517	523	175	521	38	2	
2	0	0	0	0	519	523	174	510	38	2	
3	0	0	0	0	512	523	175	511	38	2	
4	0	0	0	0	515	524	174	512	38	2	
5	0	0	0	0	511	526	173	512	38	2	
6	0	0	0	0	510	528	174	513	38	2	
7	0	0	0	0	501	529	174	515	38	2	
8	0	0	0	0	492	530	175	515	38	2	
9	0	0	0	0	500	530	174	514	38	2	
10	0	0	0	0	499	530	175	514	38	2	
11	0	0	0	0	500	529	174	512	38	2	
12	0	0	0	0	509	529	174	512	38	2	
13	0	0	0	0	511	529	174	511	38	2	
14	0	0	0	0	507	529	174	511	38	2	
15	0	0	0	0	513	527	175	510	38	2	
0	0	0	0	0	515	528	173	512	38	2	
1	0	0	0	0	520	528	174	511	38	2	
2	0	0	0	0	519	527	174	511	38	2	
3	0	0	0	0	516	528	174	511	38	2	
4	0	0	0	0	512	528	174	512	38	2	
5	0	0	0	0	511	530	175	514	38	2	
6	0	0	0	0	504	532	174	515	38	2	
7	0	0	0	0	505	535	174	515	38	2	
8	0	0	0	0	499	538	174	515	38	2	
9	0	0	0	0	498	543	175	515	38	2	
10	0	0	0	0	498	547	174	515	38	2	
11	0	0	0	0	500	550	174	516	38	2	
12	0	0	0	0	500	554	174	515	38	2	
13	0	0	0	0	509	556	174	512	38	2	
14	0	0	0	0	505	558	174	511	38	2	
15	0	0	0	0	513	560	173	510	38	2	
0	0	0	0	0	516	561	175	510	38	2	
1	0	0	0	0	514	561	174	509	38	2	
2	0	0	0	0	521	560	174	510	38	2	
3	0	0	0	0	513	559	174	510	38	2	
4	0	0	0	0	517	558	173	512	38	2	
5	0	0	0	0	513	555	174	514	38	2	
6	0	0	0	0	516	552	173	517	38	2	
7	0	0	0	0	508	549	174	516	38	2	
8	0	0	0	0	497	547	174	515	38	2	
9	0	0	0	0	500	543	175	513	38	2	
10	0	0	0	0	497	541	174	511	38	2	
11	0	0	0	0	497	539	175	510	38	2	
12	0	0	0	0	497	536	174	511	38	2	
13	0	0	0	0	500	532	175	511	38	2	
14	0	0	0	0	505	528	174	510	38	2	
15	0	0	0	0	515	523	175	509	38	2	
0	0	0	0	0	517	515	174	508	38	2	
1	0	0	0	0	522	507	175	509	38	2	
2	0	0	0	0	513	502	174	509	38	2	
3	0	0	0	0	513	497	175	508	38	2	
4	0	0	0	0	514	492	175	508	38	2	
5	0	0	0	0	516	488	174	510	38	2	
6	0	0	0	0	517	484	175	513	38	2	
7	0	0	0	0	508	481	174	515	38	2	
8	0	0	0	0	509	478	175	514	38	2	
9	0	0	0	0	501	476	175	513	38	2	
10	0	0	0	0	499	474	174	511	38	2	
11	0	0	0	0	501	473	175	512	38	2	
12	0	0	0	0	500	470	175	512	38	2	
13	0	0	0	0	503	466	175	512	38	2	
14	0	0	0	0	507	462	175	513	38	2	
15	0	0	0	0	507	459	175	512	38	2	
0	0	0	0	0	508	455	175	512	38	2	
1	0	0	0	0	508	454	174	509	38	2	
2	0	0	0	0	517	454	175	508	38	2	
3	0	0	0	0	516	455	174	507	38	2	
4	0	0	0	0	522	457	175	508	38	2	
5	0	0	0	0	511	461	174	510	38	2	
6	0	0	0	0	513	467	175	510	38	2	
7	0	0	0	0	511	474	175	511	38	2	
8	0	0	0	0	500	482	174	514	38	2	
9	0	0	0	0	507	489	175	517	38	2	
10	0	0	0	0	501	496	174	518	38	2	
11	0	0	0	0	499	502	175	517	38	2	
12	0	0	0	0	496	507	174	517	38	2	
13	0	0	0	0	500	510	175	517	38	2	
14	0	0	0	0	501	514	175	514	38	2	
15	0	0	0	0	508	517	175	512	38	2	
0	0	0	0	0	509	520	175	511	38	2	
1	0	0	0	0	505	522	174	509	38	2	
2	0	0	0	0	509	525	175	508	38	2	
3	0	0	0	0	526	527	174	506	38	2	
4	0	0	0	0	518	529	175	508	38	2	
5	0	0	0	0	523	533	174	509	38	2	
6	0	0	0	0	519	536	175	507	38	2	
7	0	0	0	0	512	540	173	508	38	2	
8	0	0	0	0	508	543	174	511	38	2	
9	0	0	0	0	508	545	174	511	38	2	
10	0	0	0	0	498	547	175	512	38	2	
11	0	0	0	0	501	547	174	513	38	2	
12	0	0	0	0	500	547	175	513	38	2	
13	0	0	0	0	493	547	174	512	38	2	
14	0	0	0	0	499	547	175	511	38	2	
15	0	0	0	0	504	546	174	510	38	2	
0	0	0	0	0	507	545	175	510	38	2	
1	0	0	0	0	510	545	174	508	38	2	
2	0	0	0	0	510	544	175	508	38	2	
3	0	0	0	0	517	543	174	508	38	2	
4	0	0	0	0	513	543	175	508	38	2	
5	0	0	0	0	517	543	173	511	38	2	
6	0	0	0	0	526	544	175	512	38	2	
7	0	0	0	0	519	543	175	511	38	2	
8	0	0	0	0	512	542	174	512	38	2	
9	0	0	0	0	499	543	175	515	38	2	
10	0	0	0	0	504	544	174	514	38	2	
11	0	0	0	0	500	546	175	514	38	2	
12	0	0	0	0	499	547	174	515	38	2	
13	0	0	0	0	501	546	175	516	38	2	
14	0	0	0	0	496	544	174	513	38	2	
15	0	0	0	0	500	543	175	511	38	2	
0	0	0	0	0	503	540	174	509	38	2	
1	0	0	0	0	511	539	175	508	38	2	
2	0	0	0	0	510	536	174	508	38	2	
3	0	0	0	0	514	534	175	509	38	2	
4	0	0	0	0	516	531	175	508	38	2	
5	0	0	0	0	517	529	175	508	38	2	
6	0	0	0	0	517	528	174	507	38	2	
7	0	0	0	0	519	527	175	508	38	2	
8	0	0	0	0	509	528	174	509	38	2	
9	0	0	0	0	514	531	175	508	38	2	
10	0	0	0	0	509	536	174	510	38	2	
11	0	0	0	0	504	539	175	511	38	2	
12	0	0	0	0	508	540	174	512	38	2	
13	0	0	0	0	495	541	175	512	38	2	
14	0	0	0	0	494	541	175	514	38	2	
15	0	0	0	0	500	540	174	513	38	2	
0	0	0	0	0	507	539	175	513	38	2	
1	0	0	0	0	512	536	175	512	38	2	
2	0	0	0	0	506	531	175	512	38	2	
3	0	0	0	0	508	528	174	512	38	2	
4	0	0	0	0	507	525	175	512	38	2	
5	0	0	0	0	515	523	174	513	38	2	
6	0	0	0	0	517	521	175	511	38	2	
7	0	0	0	0	513	522	175	513	38	2	
8	0	0	0	0	518	523	175	514	38	2	
9	0	0	0	0	521	523	174	522	38	2	
10	0	0	0	0	509	524	175	518	38	2	
11	0	0	0	0	499	526	174	517	38	2	
12	0	0	0	0	499	529	175	518	38	2	
13	0	0	0	0	499	531	174	518	38	2	
14	0	0	0	0	497	535	175	520	38	2	
15	0	0	0	0	505	537	174	518	38	2	
0	0	0	0	0	503	539	175	517	38	2	
1	0	0	0	0	499	539	174	516	38	2	
2	0	0	0	0	510	536	175	515	38	2	
3	0	0	0	0	508	532	174	512	38	2	
4	0	0	0	0	510	530	175	510	38	2	
5	0	0	0	0	522	529	174	509	38	2	
6	0	0	0	0	513	529	175	508	38	2	
7	0	0	0	0	517	529	174	508	38	2	
8	0	0	0	0	515	530	175	509	38	2	
9	0	0	0	0	512	531	175	510	38	2	
10	0	0	0	0	512	531	175	511	38	2	
11	0	0	0	0	505	532	175	512	38	2	
12	0	0	0	0	508	533	174	513	38	2	
13	0	0	0	0	497	534	175	514	38	2	
14	0	0	0	0	502	534	175	516	38	2	
15	0	0	0	0	502	534	175	516	38	2	
0	0	0	0	0	499	534	175	519	38	2	
1	0	0	0	0	503	531	175	515	38	2	
2	0	0	0	0	505	529	175	512	38	2	
3	0	0	0	0	499	527	175	511	38	2	
4	0	0	0	0	510	526	174	511	38	2	
5	0	0	0	0	510	524	175	510	38	2	
6	0	0	0	0	516	523	174	511	38	2	
7	0	0	0	0	515	522	175	514	38	2	
8	0	0	0	0	519	519	174	514	38	2	
9	0	0	0	0	518	517	175	514	38	2	
10	0	0	0	0	508	515	174	515	38	2	
11	0	0	0	0	499	515	175	516	38	2	
12	0	0	0	0	508	514	174	515	38	2	
13	0	0	0	0	509	512	175	515	38	2	
14	0	0	0	0	509	511	175	514	38	2	
15	0	0	0	0	503	509	175	513	38	2	
0	0	0	0	0	502	507	175	512	38	2	
1	0	0	0	0	499	504	175	512	38	2	
2	0	0	0	0	490	502	175	511	38	2	
3	0	0	0	0	507	499	175	510	38	2	
4	0	0	0	0	510	495	175	510	38	2	
5	0	0	0	0	512	492	175	510	38	2	
6	0	0	0	0	518	489	175	509	38	2	
7	0	0	0	0	513	486	174	508	38	2	
8	0	0	0	0	519	484	175	508	38	2	
9	0	0	0	0	521	482	174	509	38	2	
10	0	0	0	0	513	479	175	522	38	2	
11	0	0	0	0	516	477	175	513	38	2	
12	0	0	0	0	508	476	175	514	38	2	
13	0	0	0	0	504	476	175	515	38	2	
14	0	0	0	0	507	475	175	514	38	2	
15	0	0	0	0	505	472	175	514	38	2	
0	0	0	0	0	502	470	175	514	38	2	
1	0	0	0	0	499	468	175	515	38	2	
2	0	0	0	0	505	466	174	514	38	2	
3	0	0	0	0	506	462	175	513	38	2	
4	0	0	0	0	498	458	175	511	38	2	
5	0	0	0	0	507	455	175	511	38	2	
6	0	0	0	0	506	451	174	509	38	2	
7	0	0	0	0	516	448	175	508	38	2	
8	0	0	0	0	516	445	175	508	38	2	
9	0	0	0	0	518	444	175	509	38	2	
10	0	0	0	0	516	446	175	510	38	2	
11	0	0	0	0	508	446	175	511	38	2	
12	0	0	0	0	513	446	174	510	38	2	
13	0	0	0	0	516	444	175	513	38	2	
14	0	0	0	0	511	443	175	514	38	2	
15	0	0	0	0	497	442	175	515	38	2	
0	0	0	0	0	505	441	175	515	38	2	
1	0	0	0	0	499	441	175	515	38	2	
2	0	0	0	0	495	440	175	513	38	2	
3	0	0	0	0	504	438	175	512	38	2	
4	0	0	0	0	506	436	175	510	38	2	
5	0	0	0	0	509	434	175	511	38	2	
6	0	0	0	0	509	431	175	511	38	2	
7	0	0	0	0	515	429	176	511	38	2	
8	0	0	0	0	516	425	175	510	38	2	
9	0	0	0	0	515	422	175	507	38	2	
10	0	0	0	0	515	420	175	506	38	2	
11	0	0	0	0	519	417	175	505	38	2	
12	0	0	0	0	512	418	175	506	38	2	
13	0	0	0	0	514	418	175	507	38	2	
14	0	0	0	0	508	419	175	508	38	2	
15	0	0	0	0	502	420	175	508	38	2	
0	0	0	0	0	497	420	175	508	38	2	
1	0	0	0	0	501	419	175	509	38	2	
2	0	0	0	0	503	420	175	508	38	2	
3	0	0	0	0	497	423	175	507	38	2	
4	0	0	0	0	495	426	175	507	38	2	
5	0	0	0	0	506	426	175	508	38	2	
6	0	0	0	0	505	427	175	508	38	2	
7	0	0	0	0	511	425	175	508	38	2	
8	0	0	0	0	524	421	175	506	38	2	
9	0	0	0	0	517	417	175	507	38	2	
10	0	0	0	0	520	415	175	509	38	2	
11	0	0	0	0	521	415	175	509	38	2	
12	0	0	0	0	513	415	175	507	38	2	
13	0	0	0	0	510	416	175	508	38	2	
14	0	0	0	0	510	416	175	510	38	2	
15	0	0	0	0	512	417	175	513	38	2	
0	0	0	0	0	507	419	175	515	38	2	
1	0	0	0	0	496	419	175	514	38	2	
2	0	0	0	0	496	419	175	514	38	2	
3	0	0	0	0	501	418	175	516	38	2	
4	0	0	0	0	504	416	175	513	38	2	
5	0	0	0	0	496	415	175	512	38	2	
6	0	0	0	0	497	413	175	510	38	2	
7	0	0	0	0	512	411	175	510	38	2	
8	0	0	0	0	510	410	175	508	38	2	
9	0	0	0	0	523	408	176	508	38	2	
10	0	0	0	0	518	408	175	507	38	2	
11	0	0	0	0	521	407	175	508	38	2	
12	0	0	0	0	524	405	175	509	38	2	
13	0	0	0	0	520	403	175	510	38	2	
14	0	0	0	0	510	403	175	512	38	2	
15	0	0	0	0	507	403	175	513	38	2	
0	0	0	0	0	495	403	175	514	38	2	
1	0	0	0	0	499	402	175	513	38	2	
2	0	0	0	0	507	401	176	512	38	2	
3	0	0	0	0	497	401	176	513	38	2	
4	0	0	0	0	506	401	176	513	38	2	
5	0	0	0	0	494	400	175	513	38	2	
6	0	0	0	0	506	399	175	513	38	2	
7	0	0	0	0	511	399	176	511	38	2	
8	0	0	0	0	507	399	176	512	38	2	
9	0	0	0	0	520	399	175	512	38	2	
10	0	0	0	0	518	396	176	512	38	2	
11	0	0	0	0	510	393	176	512	38	2	
12	0	0	0	0	525	393	176	510	38	2	
13	0	0	0	0	518	393	176	510	38	2	
14	0	0	0	0	512	394	175	510	38	2	
15	0	0	0	0	512	394	175	510	38	2	
0	0	0	0	0	506	393	175	509	38	2	
1	0	0	0	0	503	392	176	509	38	2	
2	0	0	0	0	500	391	175	511	38	2	
3	0	0	0	0	502	390	176	512	38	2	
4	0	0	0	0	497	388	175	513	38	2	
5	0	0	0	0	503	387	176	513	38	2	
6	0	0	0	0	506	385	176	512	38	2	
7	0	0	0	0	504	384	175	511	38	2	
8	0	0	0	0	508	383	176	511	38	2	
9	0	0	0	0	511	382	175	510	38	2	
10	0	0	0	0	513	381	176	509	38	2	
11	0	0	0	0	519	378	175	509	38	2	
12	0	0	0	0	512	377	176	508	38	2	
13	0	0	0	0	520	377	175	507	38	2	
14	0	0	0	0	522	380	176	509	38	2	
15	0	0	0	0	510	383	175	509	38	2	
0	0	0	0	0	504	385	175	510	38	2	
1	0	0	0	0	505	387	175	511	38	2	
2	0	0	0	0	492	387	176	513	38	2	
3	0	0	0	0	500	386	176	514	38	2	
4	0	0	0	0	506	385	176	513	38	2	
5	0	0	0	0	502	386	176	513	38	2	
6	0	0	0	0	503	386	176	513	38	2	
7	0	0	0	0	510	387	175	513	38	2	
8	0	0	0	0	507	387	176	511	38	2	
9	0	0	0	0	504	385	175	512	38	2	
10	0	0	0	0	512	383	176	518	38	2	
11	0	0	0	0	517	380	175	513	38	2	
12	0	0	0	0	512	380	176	521	38	2	
13	0	0	0	0	513	380	175	517	38	2	
14	0	0	0	0	515	380	176	513	38	2	
15	0	0	0	0	517	381	175	514	38	2	
0	0	0	0	0	519	382	176	512	38	2	
1	0	0	0	0	510	383	175	515	38	2	
2	0	0	0	0	502	385	176	515	38	2	
3	0	0	0	0	505	387	176	512	38	2	
4	0	0	0	0	490	388	176	511	38	2	
5	0	0	0	0	497	388	176	509	38	2	
6	0	0	0	0	492	390	175	508	38	2	
7	0	0	0	0	504	390	176	507	38	2	
8	0	0	0	0	509	389	175	508	38	2	
9	0	0	0	0	505	387	176	507	38	2	
10	0	0	0	0	511	385	175	508	38	2	
11	0	0	0	0	518	385	176	507	38	2	
12	0	0	0	0	518	383	176	508	38	2	
13	0	0	0	0	526	383	176	508	38	2	
14	0	0	0	0	521	384	175	509	38	2	
15	0	0	0	0	516	385	176	509	38	2	
0	0	0	0	0	512	386	175	508	38	2	
1	0	0	0	0	505	387	176	508	38	2	
2	0	0	0	0	510	389	175	512	38	2	
3	0	0	0	0	491	391	176	513	38	2	
4	0	0	0	0	496	392	176	514	38	2	
5	0	0	0	0	502	393	176	514	38	2	
6	0	0	0	0	505	393	176	513	38	2	
7	0	0	0	0	497	393	175	513	38	2	
8	0	0	0	0	498	392	176	514	38	2	
9	0	0	0	0	499	392	175	512	38	2	
10	0	0	0	0	505	394	176	512	38	2	
11	0	0	0	0	514	396	175	511	38	2	
12	0	0	0	0	523	400	176	510	38	2	
13	0	0	0	0	513	404	175	510	38	2	
14	0	0	0	0	519	404	176	510	38	2	
15	0	0	0	0	515	404	175	511	38	2	
0	0	0	0	0	520	401	176	511	38	2	
1	0	0	0	0	513	400	175	512	38	2	
2	0	0	0	0	512	400	175	515	38	2	
3	0	0	0	0	512	403	176	515	38	2	
4	0	0	0	0	502	405	175	516	38	2	
5	0	0	0	0	503	406	176	515	38	2	
6	0	0	0	0	502	407	175	518	38	2	
7	0	0	0	0	494	409	176	518	38	2	
8	0	0	0	0	499	410	176	514	38	2	
9	0	0	0	0	504	412	176	511	38	2	
10	0	0	0	0	504	413	175	510	38	2	
11	0	0	0	0	508	412	176	510	38	2	
12	0	0	0	0	512	412	175	511	38	2	
13	0	0	0	0	517	411	176	512	38	2	
14	0	0	0	0	520	409	175	513	38	2	
15	0	0	0	0	509	408	176	513	38	2	
0	0	0	0	0	514	409	175	513	38	2	
1	0	0	0	0	513	410	176	512	38	2	
2	0	0	0	0	513	411	175	513	38	2	
3	0	0	0	0	515	412	176	515	38	2	
4	0	0	0	0	497	412	175	515	38	2	
5	0	0	0	0	510	414	176	518	38	2	
6	0	0	0	0	503	415	175	517	38	2	
7	0	0	0	0	503	415	176	515	38	2	
8	0	0	0	0	494	415	175	514	38	2	
9	0	0	0	0	494	415	176	512	38	2	
10	0	0	0	0	504	416	175	511	38	2	
11	0	0	0	0	503	417	176	510	38	2	
12	0	0	0	0	510	415	175	509	38	2	
13	0	0	0	0	519	414	176	510	38	2	
14	0	0	0	0	516	413	175	510	38	2	
15	0	0	0	0	514	412	176	508	38	2	
0	0	0	0	0	523	412	175	509	38	2	
1	0	0	0	0	518	413	176	508	38	2	
2	0	0	0	0	511	414	175	509	38	2	
3	0	0	0	0	509	415	176	511	38	2	
4	0	0	0	0	517	416	175	513	38	2	
5	0	0	0	0	501	417	176	514	38	2	
6	0	0	0	0	501	419	175	515	38	2	
7	0	0	0	0	505	420	176	516	38	2	
8	0	0	0	0	498	422	175	515	38	2	
9	0	0	0	0	489	423	176	514	38	2	
10	0	0	0	0	503	426	176	513	38	2	
11	0	0	0	0	500	428	176	512	38	2	
12	0	0	0	0	505	430	176	510	38	2	
13	0	0	0	0	517	431	176	511	38	2	
14	0	0	0	0	519	432	175	512	38	2	
15	0	0	0	0	511	433	176	515	38	2	
0	0	0	0	0	515	433	175	514	38	2	
1	0	0	0	0	523	434	176	515	38	2	
2	0	0	0	0	512	435	175	514	38	2	
3	0	0	0	0	515	435	176	516	38	2	
4	0	0	0	0	511	435	175	517	38	2	
5	0	0	0	0	505	436	176	520	38	2	
6	0	0	0	0	503	439	175	523	38	2	
7	0	0	0	0	497	441	175	523	38	2	
8	0	0	0	0	503	441	175	524	38	2	
9	0	0	0	0	499	443	175	521	38	2	
10	0	0	0	0	500	444	175	513	38	2	
11	0	0	0	0	502	446	176	512	38	2	
12	0	0	0	0	502	447	176	510	38	2	
13	0	0	0	0	513	448	175	509	38	2	
14	0	0	0	0	516	449	176	509	38	2	
15	0	0	0	0	521	450	175	509	38	2	
0	0	0	0	0	513	452	176	508	38	2	
1	0	0	0	0	512	453	175	509	38	2	
2	0	0	0	0	515	455	176	511	38	2	
3	0	0	0	0	515	459	175	512	38	2	
4	0	0	0	0	515	463	176	512	38	2	
5	0	0	0	0	508	465	175	514	38	2	
6	0	0	0	0	501	467	175	512	38	2	
7	0	0	0	0	503	467	175	512	38	2	
8	0	0	0	0	500	468	175	512	38	2	
9	0	0	0	0	499	471	175	511	38	2	
10	0	0	0	0	499	473	176	509	38	2	
11	0	0	0	0	496	473	175	508	38	2	
12	0	0	0	0	500	474	176	508	38	2	
13	0	0	0	0	507	474	175	509	38	2	
14	0	0	0	0	512	475	176	508	38	2	
15	0	0	0	0	516	477	175	508	38	2	
0	0	0	0	0	521	480	175	509	38	2	
1	0	0	0	0	510	484	176	507	38	2	
2	0	0	0	0	524	489	176	506	38	2	
3	0	0	0	0	516	492	176	505	38	2	
4	0	0	0	0	511	492	176	504	38	2	
5	0	0	0	0	515	492	176	505	38	2	
6	0	0	0	0	516	492	175	507	38	2	
7	0	0	0	0	499	494	175	507	38	2	
8	0	0	0	0	496	496	175	508	38	2	
9	0	0	0	0	497	499	175	508	38	2	
10	0	0	0	0	499	501	176	510	38	2	
11	0	0	0	0	497	501	176	512	38	2	
12	0	0	0	0	497	501	176	509	38	2	
13	0	0	0	0	506	500	176	508	38	2	
14	0	0	0	0	508	501	176	508	38	2	
15	0	0	0	0	508	500	176	508	38	2	
0	0	0	0	0	513	500	175	508	38	2	
1	0	0	0	0	511	502	176	508	38	2	
2	0	0	0	0	516	502	175	508	38	2	
3	0	0	0	0	524	503	176	508	38	2	
4	0	0	0	0	513	504	175	509	38	2	
5	0	0	0	0	515	505	176	511	38	2	
6	0	0	0	0	509	507	175	513	38	2	
7	0	0	0	0	507	508	176	515	38	2	
8	0	0	0	0	497	508	176	515	38	2	
9	0	0	0	0	499	509	175	514	38	2	
10	0	0	0	0	499	509	175	515	38	2	
11	0	0	0	0	502	508	175	514	38	2	
12	0	0	0	0	504	507	175	513	38	2	
13	0	0	0	0	504	508	176	513	38	2	
14	0	0	0	0	507	508	176	513	38	2	
15	0	0	0	0	509	508	175	514	38	2	
0	0	0	0	0	518	508	176	514	38	2	
1	0	0	0	0	513	508	175	515	38	2	
2	0	0	0	0	518	510	176	515	38	2	
3	0	0	0	0	518	512	175	516	38	2	
4	0	0	0	0	514	515	175	518	38	2	
5	0	0	0	0	507	519	175	517	38	2	
6	0	0	0	0	516	520	176	519	38	2	
7	0	0	0	0	511	521	175	519	38	2	
8	0	0	0	0	500	520	176	519	38	2	
9	0	0	0	0	503	519	175	529	38	2	
10	0	0	0	0	499	519	175	515	38	2	
11	0	0	0	0	496	519	175	515	38	2	
12	0	0	0	0	500	519	175	514	38	2	
13	0	0	0	0	500	519	175	513	38	2	
14	0	0	0	0	512	519	175	511	38	2	
15	0	0	0	0	507	518	176	508	38	2	
0	0	0	0	0	504	519	175	506	38	2	
1	0	0	0	0	519	519	176	507	38	2	
2	0	0	0	0	514	519	175	506	38	2	
3	0	0	0	0	521	519	176	519	38	2	
4	0	0	0	0	519	519	175	507	38	2	
5	0	0	0	0	522	519	176	508	38	2	
6	0	0	0	0	509	520	175	510	38	2	
7	0	0	0	0	511	521	176	512	38	2	
8	0	0	0	0	502	524	175	512	38	2	
9	0	0	0	0	500	528	176	511	38	2	
10	0	0	0	0	504	531	175	513	38	2	
11	0	0	0	0	504	535	176	512	38	2	
12	0	0	0	0	511	539	175	513	38	2	
13	0	0	0	0	502	541	176	514	38	2	
14	0	0	0	0	495	542	175	513	38	2	
15	0	0	0	0	506	541	175	512	38	2	
0	0	0	0	0	503	538	175	514	38	2	
1	0	0	0	0	512	534	175	514	38	2	
2	0	0	0	0	517	531	175	515	38	2	
3	0	0	0	0	516	530	175	515	38	2	
4	0	0	0	0	515	530	175	515	38	2	
5	0	0	0	0	517	530	175	515	38	2	
6	0	0	0	0	508	530	176	517	38	2	
7	0	0	0	0	509	533	175	517	38	2	
8	0	0	0	0	512	536	176	516	38	2	
9	0	0	0	0	503	538	175	514	38	2	
10	0	0	0	0	503	542	176	519	38	2	
11	0	0	0	0	502	543	175	524	38	2	
12	0	0	0	0	498	544	175	524	38	2	
13	0	0	0	0	499	544	175	523	38	2	
14	0	0	0	0	499	542	174	520	38	2	
15	0	0	0	0	504	540	175	518	38	2	
0	0	0	0	0	505	540	174	516	38	2	
1	0	0	0	0	511	539	175	515	38	2	
2	0	0	0	0	512	539	175	515	38	2	
3	0	0	0	0	511	539	176	512	38	2	
4	0	0	0	0	518	540	175	512	38	2	
5	0	0	0	0	512	541	176	511	38	2	
6	0	0	0	0	516	544	175	512	38	2	
7	0	0	0	0	513	548	175	514	38	2	
8	0	0	0	0	516	551	175	515	38	2	
9	0	0	0	0	519	556	175	516	38	2	
10	0	0	0	0	502	560	175	515	38	2	
11	0	0	0	0	504	563	174	515	38	2	
12	0	0	0	0	503	563	175	514	38	2	
13	0	0	0	0	497	562	174	513	38	2	
14	0	0	0	0	498	559	175	512	38	2	
15	0	0	0	0	501	556	175	512	38	2	
0	0	0	0	0	513	553	175	511	38	2	
1	0	0	0	0	508	551	175	510	38	2	
2	0	0	0	0	511	548	175	509	38	2	
3	0	0	0	0	511	546	174	509	38	2	
4	0	0	0	0	512	544	175	511	38	2	
5	0	0	0	0	511	543	175	515	38	2	
6	0	0	0	0	515	544	176	514	38	2	
7	0	0	0	0	516	544	175	510	38	2	
8	0	0	0	0	514	546	175	510	38	2	
9	0	0	0	0	516	545	175	510	38	2	
10	0	0	0	0	513	547	176	508	38	2	
11	0	0	0	0	510	547	175	509	38	2	
12	0	0	0	0	502	547	176	509	38	2	
13	0	0	0	0	495	547	176	509	38	2	
14	0	0	0	0	499	547	174	509	38	2	
15	0	0	0	0	496	545	175	510	38	2	
0	0	0	0	0	504	543	174	509	38	2	
1	0	0	0	0	503	541	175	507	38	2	
2	0	0	0	0	510	539	175	507	38	2	
3	0	0	0	0	507	536	176	506	38	2	
4	0	0	0	0	515	534	175	507	38	2	
5	0	0	0	0	512	533	175	508	38	2	
6	0	0	0	0	513	532	175	509	38	2	
7	0	0	0	0	524	534	176	510	38	2	
8	0	0	0	0	518	535	175	511	38	2	
9	0	0	0	0	511	537	176	511	38	2	
10	0	0	0	0	511	538	175	511	38	2	
11	0	0	0	0	508	540	175	510	38	2	
12	0	0	0	0	502	541	175	511	38	2	
13	0	0	0	0	504	541	175	512	38	2	
14	0	0	0	0	498	541	176	512	38	2	
15	0	0	0	0	495	541	175	511	38	2	
0	0	0	0	0	503	541	176	509	38	2	
1	0	0	0	0	500	540	175	508	38	2	
2	0	0	0	0	510	537	175	508	38	2	
3	0	0	0	0	508	535	176	507	38	2	
4	0	0	0	0	511	534	175	507	38	2	
5	0	0	0	0	512	534	176	508	38	2	
6	0	0	0	0	518	534	176	510	38	2	
7	0	0	0	0	519	534	176	511	38	2	
8	0	0	0	0	514	534	175	511	38	2	
9	0	0	0	0	510	535	176	512	38	2	
10	0	0	0	0	514	535	175	512	38	2	
11	0	0	0	0	510	536	175	514	38	2	
12	0	0	0	0	510	539	175	526	38	2	
13	0	0	0	0	501	541	175	514	38	2	
14	0	0	0	0	500	543	175	511	38	2	
15	0	0	0	0	507	544	176	511	38	2	
0	0	0	0	0	498	544	175	511	38	2	
1	0	0	0	0	496	543	176	509	38	2	
2	0	0	0	0	500	540	175	508	38	2	
3	0	0	0	0	506	539	176	507	38	2	
4	0	0	0	0	518	536	175	508	38	2	
5	0	0	0	0	520	534	175	509	38	2	
6	0	0	0	0	511	534	176	509	38	2	
7	0	0	0	0	515	534	174	510	38	2	
8	0	0	0	0	514	534	175	511	38	2	
9	0	0	0	0	517	539	175	512	38	2	
10	0	0	0	0	512	543	175	514	38	2	
11	0	0	0	0	506	548	174	515	38	2	
12	0	0	0	0	511	552	175	516	38	2	
13	0	0	0	0	499	555	175	514	38	2	
14	0	0	0	0	508	555	176	512	38	2	
15	0	0	0	0	505	554	175	513	38	2	
0	0	0	0	0	504	553	175	513	38	2	
1	0	0	0	0	494	551	175	513	38	2	
2	0	0	0	0	500	548	174	513	38	2	
3	0	0	0	0	503	547	176	512	38	2	
4	0	0	0	0	504	547	175	511	38	2	
5	0	0	0	0	509	547	176	509	38	2	
6	0	0	0	0	521	547	175	507	38	2	
7	0	0	0	0	515	547	176	507	38	2	
8	0	0	0	0	511	547	175	508	38	2	
9	0	0	0	0	519	549	175	511	38	2	
10	0	0	0	0	518	551	175	513	38	2	
11	0	0	0	0	517	555	176	514	38	2	
12	0	0	0	0	513	558	175	518	38	2	
13	0	0	0	0	507	560	175	517	38	2	
14	0	0	0	0	503	560	175	515	38	2	
15	0	0	0	0	492	560	174	515	38	2	
0	0	0	0	0	493	561	175	516	38	2	
1	0	0	0	0	499	561	175	515	38	2	
2	0	0	0	0	496	561	175	514	38	2	
3	0	0	0	0	502	560	175	512	38	2	
4	0	0	0	0	509	559	176	510	38	2	
5	0	0	0	0	506	559	175	511	38	2	
6	0	0	0	0	502	559	176	512	38	2	
7	0	0	0	0	519	557	175	511	38	2	
8	0	0	0	0	513	557	176	510	38	2	
9	0	0	0	0	521	556	175	509	38	2	
10	0	0	0	0	522	557	176	509	38	2	
11	0	0	0	0	515	559	175	510	38	2	
12	0	0	0	0	518	560	175	511	38	2	
13	0	0	0	0	511	562	175	512	38	2	
14	0	0	0	0	502	565	175	510	38	2	
15	0	0	0	0	508	569	175	510	38	2	
0	0	0	0	0	497	573	174	511	38	2	
1	0	0	0	0	503	576	175	511	38	2	
2	0	0	0	0	501	578	175	512	38	2	
3	0	0	0	0	500	577	175	512	38	2	
4	0	0	0	0	503	573	175	511	38	2	
5	0	0	0	0	500	567	176	511	38	2	
6	0	0	0	0	510	562	175	514	38	2	
7	0	0	0	0	514	560	176	512	38	2	
8	0	0	0	0	508	560	175	512	38	2	
9	0	0	0	0	514	559	176	512	38	2	
10	0	0	0	0	525	559	175	514	38	2	
11	0	0	0	0	520	560	175	516	38	2	
12	0	0	0	0	513	561	175	517	38	2	
13	0	0	0	0	505	562	174	518	38	2	
14	0	0	0	0	504	563	175	518	38	2	
15	0	0	0	0	506	563	175	519	38	2	
0	0	0	0	0	502	563	176	518	38	2	
1	0	0	0	0	499	564	176	518	38	2	
2	0	0	0	0	502	563	174	517	38	2	
3	0	0	0	0	497	561	175	515	38	2	
4	0	0	0	0	501	558	175	514	38	2	
5	0	0	0	0	503	556	176	513	38	2	
6	0	0	0	0	505	555	176	515	38	2	
7	0	0	0	0	512	553	176	515	38	2	
8	0	0	0	0	515	554	176	516	38	2	
9	0	0	0	0	524	555	176	518	38	2	
10	0	0	0	0	522	555	175	516	38	2	
11	0	0	0	0	516	556	176	517	38	2	
12	0	0	0	0	512	556	175	516	38	2	
13	0	0	0	0	516	556	175	517	38	2	
14	0	0	0	0	514	558	176	518	38	2	
15	0	0	0	0	504	559	175	517	38	2	
0	0	0	0	0	501	561	175	516	38	2	
1	0	0	0	0	500	562	174	515	38	2	
2	0	0	0	0	505	563	176	526	38	2	
3	0	0	0	0	497	563	175	517	38	2	
4	0	0	0	0	498	563	176	515	38	2	
5	0	0	0	0	503	563	175	515	38	2	
6	0	0	0	0	504	561	176	513	38	2	
7	0	0	0	0	507	558	176	511	38	2	
8	0	0	0	0	509	555	175	508	38	2	
9	0	0	0	0	516	552	175	507	38	2	
10	0	0	0	0	518	554	175	508	38	2	
11	0	0	0	0	517	555	176	508	38	2	
12	0	0	0	0	516	556	176	510	38	2	
13	0	0	0	0	512	557	175	511	38	2	
14	0	0	0	0	509	557	175	511	38	2	
15	0	0	0	0	505	558	175	514	38	2	
0	0	0	0	0	510	559	175	516	38	2	
1	0	0	0	0	497	560	176	516	38	2	
2	0	0	0	0	499	561	176	516	38	2	
3	0	0	0	0	495	562	175	515	38	2	
4	0	0	0	0	496	564	176	514	38	2	
5	0	0	0	0	508	565	175	511	38	2	
6	0	0	0	0	496	566	176	510	38	2	
7	0	0	0	0	509	565	175	512	38	2	
8	0	0	0	0	513	562	176	506	38	2	
9	0	0	0	0	516	560	175	506	38	2	
10	0	0	0	0	519	558	176	508	38	2	
11	0	0	0	0	514	557	176	509	38	2	
12	0	0	0	0	524	557	175	509	38	2	
13	0	0	0	0	519	559	175	510	38	2	
14	0	0	0	0	511	560	175	511	38	2	
15	0	0	0	0	508	560	176	511	38	2	
0	0	0	0	0	503	560	175	513	38	2	
1	0	0	0	0	500	561	176	513	38	2	
2	0	0	0	0	503	560	175	513	38	2	
3	0	0	0	0	500	560	176	512	38	2	
4	0	0	0	0	504	559	175	511	38	2	
5	0	0	0	0	498	560	176	511	38	2	
6	0	0	0	0	501	560	175	511	38	2	
7	0	0	0	0	509	559	176	511	38	2	
8	0	0	0	0	499	558	175	523	38	2	
9	0	0	0	0	510	557	176	513	38	2	
10	0	0	0	0	514	556	175	510	38	2	
11	0	0	0	0	515	555	176	508	38	2	
12	0	0	0	0	509	553	175	507	38	2	
13	0	0	0	0	518	554	176	507	38	2	
14	0	0	0	0	514	556	175	507	38	2	
15	0	0	0	0	518	558	176	510	38	2	
0	0	0	0	0	507	561	175	511	38	2	
1	0	0	0	0	510	566	176	511	38	2	
2	0	0	0	0	506	571	175	511	38	2	
3	0	0	0	0	501	572	176	512	38	2	
4	0	0	0	0	498	572	175	512	38	2	
5	0	0	0	0	501	570	176	512	38	2	
6	0	0	0	0	497	568	175	510	38	2	
7	0	0	0	0	506	568	175	508	38	2	
8	0	0	0	0	501	567	176	507	38	2	
9	0	0	0	0	507	566	176	505	38	2	
10	0	0	0	0	516	564	175	505	38	2	
11	0	0	0	0	521	564	176	505	38	2	
12	0	0	0	0	519	562	176	507	38	2	
13	0	0	0	0	518	561	175	507	38	2	
14	0	0	0	0	518	562	176	508	38	2	
15	0	0	0	0	506	562	175	509	38	2	
0	0	0	0	0	512	562	176	509	38	2	
1	0	0	0	0	513	563	176	509	38	2	
2	0	0	0	0	513	566	175	510	38	2	
3	0	0	0	0	504	568	176	511	38	2	
4	0	0	0	0	502	569	176	511	38	2	
5	0	0	0	0	492	569	175	512	38	2	
6	0	0	0	0	501	569	175	511	38	2	
7	0	0	0	0	498	571	176	511	38	2	
8	0	0	0	0	501	571	175	511	38	2	
9	0	0	0	0	501	570	176	511	38	2	
10	0	0	0	0	519	568	176	509	38	2	
11	0	0	0	0	517	568	176	510	38	2	
12	0	0	0	0	512	568	175	510	38	2	
13	0	0	0	0	513	568	176	510	38	2	
14	0	0	0	0	521	568	175	510	38	2	
15	0	0	0	0	519	569	176	510	38	2	
0	0	0	0	0	513	569	176	511	38	2	
1	0	0	0	0	513	569	175	513	38	2	
2	0	0	0	0	510	572	175	515	38	2	
3	0	0	0	0	500	575	176	515	38	2	
