# OpenSignals Text File Format. Version 1
# {"98:D3:B1:FD:3D:90": {"position": 0, "device": "bitalino_rev", "device name": "98:D3:B1:FD:3D:90", "device connection": "/dev/tty.BITalino-DevB", "sampling rate": 1000, "resolution": [4, 1, 1, 1, 1, 10, 10, 10, 10, 6, 6], "firmware version": 1281, "comments": "", "keywords": "", "mode": 0, "sync interval": 2, "date": "2022-4-6", "time": "21:31:41.368", "channels": [1, 2, 3, 4, 5, 6], "sensor": ["RAW", "ECGBIT", "EDABITREV", "RAW", "RAW", "RAW"], "label": ["A1", "A2", "A3", "A4", "A5", "A6"], "column": ["nSeq", "I1", "I2", "O1", "O2", "A1", "A2", "A3", "A4", "A5", "A6"], "special": [{}, {}, {}, {}, {}, {}], "digital IO": [0, 0, 1, 1]}}
# EndOfHeader
0	0	0	0	0	473	536	164	506	38	0	
1	0	0	0	0	489	519	164	497	38	0	
2	0	0	0	0	503	503	164	491	38	0	
3	0	0	0	0	524	489	164	485	38	0	
4	0	0	0	0	530	481	164	482	38	0	
5	0	0	0	0	541	477	164	480	38	0	
6	0	0	0	0	552	480	164	481	38	0	
7	0	0	0	0	553	489	163	485	38	0	
8	0	0	0	0	547	504	163	498	38	0	
9	0	0	0	0	522	520	163	527	38	0	
10	0	0	0	0	516	539	163	559	38	0	
11	0	0	0	0	500	553	163	584	38	0	
12	0	0	0	0	489	563	163	609	38	0	
13	0	0	0	0	485	569	163	621	38	0	
14	0	0	0	0	472	568	163	614	38	0	
15	0	0	0	0	475	559	163	600	38	0	
0	0	0	0	0	477	547	163	572	38	0	
1	0	0	0	0	492	531	164	552	38	0	
2	0	0	0	0	490	513	163	533	38	0	
3	0	0	0	0	509	496	163	515	38	0	
4	0	0	0	0	522	484	164	500	38	0	
5	0	0	0	0	528	476	164	491	38	0	
6	0	0	0	0	547	472	164	484	38	0	
7	0	0	0	0	549	477	163	481	38	0	
8	0	0	0	0	544	485	163	489	38	0	
9	0	0	0	0	529	497	163	509	38	0	
10	0	0	0	0	524	512	163	538	38	0	
11	0	0	0	0	509	529	163	567	38	0	
12	0	0	0	0	492	541	163	582	38	0	
13	0	0	0	0	487	548	163	589	38	0	
14	0	0	0	0	482	552	164	577	38	0	
15	0	0	0	0	459	549	163	567	38	0	
0	0	0	0	0	471	540	163	552	38	0	
1	0	0	0	0	473	526	163	537	38	0	
2	0	0	0	0	490	508	164	522	38	0	
3	0	0	0	0	497	490	164	507	38	0	
4	0	0	0	0	524	476	164	497	38	0	
5	0	0	0	0	534	465	164	487	38	0	
6	0	0	0	0	532	459	164	489	38	0	
7	0	0	0	0	552	459	164	477	38	0	
8	0	0	0	0	549	468	164	477	38	0	
9	0	0	0	0	543	481	164	495	38	0	
10	0	0	0	0	532	499	164	537	38	0	
11	0	0	0	0	525	515	164	578	38	0	
12	0	0	0	0	504	531	164	615	38	0	
13	0	0	0	0	490	543	164	622	38	0	
14	0	0	0	0	480	550	164	625	38	0	
15	0	0	0	0	469	552	164	613	38	0	
0	0	0	0	0	465	546	164	592	38	0	
1	0	0	0	0	476	536	164	571	38	0	
2	0	0	0	0	483	521	164	547	38	0	
3	0	0	0	0	496	505	164	527	38	0	
4	0	0	0	0	503	488	164	508	38	0	
5	0	0	0	0	519	474	164	495	38	0	
6	0	0	0	0	530	464	164	483	38	0	
7	0	0	0	0	532	459	164	476	38	0	
8	0	0	0	0	558	462	164	476	38	0	
9	0	0	0	0	540	472	164	480	38	0	
10	0	0	0	0	546	487	164	491	38	0	
11	0	0	0	0	528	503	163	519	38	0	
12	0	0	0	0	515	521	163	559	38	0	
13	0	0	0	0	502	537	163	595	38	0	
14	0	0	0	0	487	548	164	614	38	0	
15	0	0	0	0	483	553	164	610	38	0	
0	0	0	0	0	465	553	164	594	38	0	
1	0	0	0	0	460	545	164	572	38	0	
2	0	0	0	0	476	532	164	548	38	0	
3	0	0	0	0	483	514	164	527	38	0	
4	0	0	0	0	503	497	164	509	38	0	
5	0	0	0	0	511	481	164	492	38	0	
6	0	0	0	0	531	470	164	480	38	0	
7	0	0	0	0	535	463	165	472	38	0	
8	0	0	0	0	539	460	164	469	38	0	
9	0	0	0	0	545	467	164	468	38	0	
10	0	0	0	0	540	477	164	484	38	0	
11	0	0	0	0	536	491	164	526	38	0	
12	0	0	0	0	523	507	163	562	38	0	
13	0	0	0	0	510	524	163	596	38	0	
14	0	0	0	0	499	538	163	616	38	0	
15	0	0	0	0	491	546	163	614	38	0	
0	0	0	0	0	484	549	163	597	38	0	
1	0	0	0	0	465	543	163	577	38	0	
2	0	0	0	0	469	532	163	555	38	0	
3	0	0	0	0	477	519	164	534	38	0	
4	0	0	0	0	492	504	164	514	38	0	
5	0	0	0	0	499	488	164	496	38	0	
6	0	0	0	0	516	473	164	481	38	0	
7	0	0	0	0	525	462	164	471	38	0	
8	0	0	0	0	525	454	164	464	38	0	
9	0	0	0	0	553	453	164	462	38	0	
10	0	0	0	0	544	460	164	463	38	0	
11	0	0	0	0	544	473	163	473	38	0	
12	0	0	0	0	536	488	163	510	38	0	
13	0	0	0	0	522	504	163	544	38	0	
14	0	0	0	0	507	519	163	574	38	0	
15	0	0	0	0	487	531	163	593	38	0	
0	0	0	0	0	483	538	163	595	38	0	
1	0	0	0	0	476	541	163	594	38	0	
2	0	0	0	0	467	535	163	586	38	0	
3	0	0	0	0	472	524	163	568	38	0	
4	0	0	0	0	480	510	164	546	38	0	
5	0	0	0	0	495	494	164	523	38	0	
6	0	0	0	0	509	478	164	503	38	0	
7	0	0	0	0	519	464	164	487	38	0	
8	0	0	0	0	521	454	164	475	38	0	
9	0	0	0	0	538	449	164	466	38	0	
10	0	0	0	0	550	454	164	462	38	0	
11	0	0	0	0	550	463	164	471	38	0	
12	0	0	0	0	540	478	164	482	38	0	
13	0	0	0	0	525	494	164	503	38	0	
14	0	0	0	0	518	510	164	529	38	0	
15	0	0	0	0	498	523	164	561	38	0	
0	0	0	0	0	489	534	164	583	38	0	
1	0	0	0	0	481	540	164	589	38	0	
2	0	0	0	0	465	540	164	580	38	0	
3	0	0	0	0	467	533	163	561	38	0	
4	0	0	0	0	479	522	163	540	38	0	
5	0	0	0	0	478	507	163	517	38	0	
6	0	0	0	0	493	489	164	499	38	0	
7	0	0	0	0	515	473	164	484	38	0	
8	0	0	0	0	532	461	164	472	38	0	
9	0	0	0	0	530	453	164	463	38	0	
10	0	0	0	0	550	451	164	457	38	0	
11	0	0	0	0	547	456	164	457	38	0	
12	0	0	0	0	551	466	164	467	38	0	
13	0	0	0	0	530	481	164	489	38	0	
14	0	0	0	0	526	497	164	523	38	0	
15	0	0	0	0	506	512	164	572	38	0	
0	0	0	0	0	498	525	164	602	38	0	
1	0	0	0	0	485	533	164	603	38	0	
2	0	0	0	0	479	540	164	591	38	0	
3	0	0	0	0	463	537	164	573	38	0	
4	0	0	0	0	474	528	164	547	38	0	
5	0	0	0	0	476	514	164	526	38	0	
6	0	0	0	0	491	498	164	507	38	0	
7	0	0	0	0	504	483	164	488	38	0	
8	0	0	0	0	519	469	164	473	38	0	
9	0	0	0	0	525	459	164	464	38	0	
10	0	0	0	0	525	452	164	457	38	0	
11	0	0	0	0	553	451	164	454	38	0	
12	0	0	0	0	544	457	164	456	38	0	
13	0	0	0	0	546	467	164	462	38	0	
14	0	0	0	0	527	482	164	482	38	0	
15	0	0	0	0	520	498	164	504	38	0	
0	0	0	0	0	507	512	164	517	38	0	
1	0	0	0	0	492	524	164	529	38	0	
2	0	0	0	0	493	531	164	527	38	0	
3	0	0	0	0	468	534	164	524	38	0	
4	0	0	0	0	475	529	164	516	38	0	
5	0	0	0	0	470	518	164	504	38	0	
6	0	0	0	0	486	503	164	492	38	0	
7	0	0	0	0	486	486	164	476	38	0	
8	0	0	0	0	499	471	164	466	38	0	
9	0	0	0	0	518	459	165	458	38	0	
10	0	0	0	0	528	451	165	454	38	0	
11	0	0	0	0	541	447	165	451	38	0	
12	0	0	0	0	552	451	164	452	38	0	
13	0	0	0	0	542	461	164	463	38	0	
14	0	0	0	0	535	476	164	475	38	0	
15	0	0	0	0	528	492	164	488	38	0	
0	0	0	0	0	514	509	164	519	38	0	
1	0	0	0	0	505	523	164	545	38	0	
2	0	0	0	0	490	534	164	563	38	0	
3	0	0	0	0	483	540	164	567	38	0	
4	0	0	0	0	463	542	164	557	38	0	
5	0	0	0	0	464	537	164	542	38	0	
6	0	0	0	0	480	527	164	526	38	0	
7	0	0	0	0	487	512	164	507	38	0	
8	0	0	0	0	493	496	164	491	38	0	
9	0	0	0	0	509	482	164	479	38	0	
10	0	0	0	0	524	473	164	468	38	0	
11	0	0	0	0	534	467	164	462	38	0	
12	0	0	0	0	550	465	164	469	38	0	
13	0	0	0	0	551	471	164	458	38	0	
14	0	0	0	0	546	483	163	470	38	0	
15	0	0	0	0	536	501	163	495	38	0	
0	0	0	0	0	523	520	163	539	38	0	
1	0	0	0	0	516	537	164	585	38	0	
2	0	0	0	0	499	551	163	611	38	0	
3	0	0	0	0	486	560	163	611	38	0	
4	0	0	0	0	479	566	163	601	38	0	
5	0	0	0	0	461	560	163	583	38	0	
6	0	0	0	0	472	549	164	560	38	0	
7	0	0	0	0	471	533	164	536	38	0	
8	0	0	0	0	487	515	164	514	38	0	
9	0	0	0	0	498	495	164	495	38	0	
10	0	0	0	0	523	476	163	481	38	0	
11	0	0	0	0	528	462	164	478	38	0	
12	0	0	0	0	534	452	164	460	38	0	
13	0	0	0	0	555	448	164	457	38	0	
14	0	0	0	0	550	449	164	465	38	0	
15	0	0	0	0	538	457	164	478	38	0	
0	0	0	0	0	529	471	164	502	38	0	
1	0	0	0	0	524	486	164	522	38	0	
2	0	0	0	0	504	500	164	544	38	0	
3	0	0	0	0	495	509	164	562	38	0	
4	0	0	0	0	487	512	164	566	38	0	
5	0	0	0	0	469	511	164	559	38	0	
6	0	0	0	0	464	499	164	545	38	0	
7	0	0	0	0	473	483	164	529	38	0	
8	0	0	0	0	484	463	164	512	38	0	
9	0	0	0	0	495	441	164	493	38	0	
10	0	0	0	0	496	419	165	480	38	0	
11	0	0	0	0	524	402	165	468	38	0	
12	0	0	0	0	529	390	165	459	38	0	
13	0	0	0	0	536	382	165	452	38	0	
14	0	0	0	0	550	382	165	451	38	0	
15	0	0	0	0	544	388	165	458	38	0	
0	0	0	0	0	539	399	164	469	38	0	
1	0	0	0	0	529	413	164	491	38	0	
2	0	0	0	0	515	430	164	527	38	0	
3	0	0	0	0	499	443	164	579	38	0	
4	0	0	0	0	486	452	164	617	38	0	
5	0	0	0	0	484	460	164	627	38	0	
6	0	0	0	0	470	461	164	613	38	0	
7	0	0	0	0	468	458	164	590	38	0	
8	0	0	0	0	474	450	164	563	38	0	
9	0	0	0	0	482	439	164	536	38	0	
10	0	0	0	0	501	426	164	511	38	0	
11	0	0	0	0	515	414	164	489	38	0	
12	0	0	0	0	524	405	165	475	38	0	
13	0	0	0	0	524	401	165	464	38	0	
14	0	0	0	0	545	404	165	456	38	0	
15	0	0	0	0	552	415	164	455	38	0	
0	0	0	0	0	543	430	165	460	38	0	
1	0	0	0	0	531	449	164	470	38	0	
2	0	0	0	0	517	470	164	494	38	0	
3	0	0	0	0	510	489	164	538	38	0	
4	0	0	0	0	498	507	164	574	38	0	
5	0	0	0	0	484	520	163	587	38	0	
6	0	0	0	0	477	529	163	579	38	0	
7	0	0	0	0	463	527	163	563	38	0	
8	0	0	0	0	474	519	163	543	38	0	
9	0	0	0	0	482	507	164	519	38	0	
10	0	0	0	0	492	492	164	501	38	0	
11	0	0	0	0	502	475	164	483	38	0	
12	0	0	0	0	517	460	164	470	38	0	
13	0	0	0	0	524	451	165	461	38	0	
14	0	0	0	0	524	445	165	453	38	0	
15	0	0	0	0	550	446	164	449	38	0	
0	0	0	0	0	558	455	164	448	38	0	
1	0	0	0	0	546	468	164	452	38	0	
2	0	0	0	0	526	485	164	487	38	0	
3	0	0	0	0	521	502	164	522	38	0	
4	0	0	0	0	505	518	163	554	38	0	
5	0	0	0	0	496	530	163	574	38	0	
6	0	0	0	0	488	537	164	572	38	0	
7	0	0	0	0	471	541	163	566	38	0	
8	0	0	0	0	465	536	163	543	38	0	
9	0	0	0	0	475	525	163	525	38	0	
10	0	0	0	0	480	510	163	504	38	0	
11	0	0	0	0	494	494	163	486	38	0	
12	0	0	0	0	498	478	164	470	38	0	
13	0	0	0	0	519	464	164	458	38	0	
14	0	0	0	0	532	455	164	451	38	0	
15	0	0	0	0	530	451	164	446	38	0	
0	0	0	0	0	555	454	164	444	38	0	
1	0	0	0	0	538	463	164	448	38	0	
2	0	0	0	0	545	479	163	458	38	0	
3	0	0	0	0	524	496	163	481	38	0	
4	0	0	0	0	516	514	163	517	38	0	
5	0	0	0	0	500	530	163	555	38	0	
6	0	0	0	0	489	540	164	580	38	0	
7	0	0	0	0	490	547	163	586	38	0	
8	0	0	0	0	460	547	163	576	38	0	
9	0	0	0	0	473	540	163	557	38	0	
10	0	0	0	0	475	529	163	536	38	0	
11	0	0	0	0	483	514	163	513	38	0	
12	0	0	0	0	496	499	163	495	38	0	
13	0	0	0	0	515	483	163	478	38	0	
14	0	0	0	0	525	471	164	466	38	0	
15	0	0	0	0	527	465	164	457	38	0	
0	0	0	0	0	545	464	164	452	38	0	
1	0	0	0	0	553	471	164	451	38	0	
2	0	0	0	0	538	482	164	460	38	0	
3	0	0	0	0	534	497	164	483	38	0	
4	0	0	0	0	520	515	164	518	38	0	
5	0	0	0	0	515	532	164	566	38	0	
6	0	0	0	0	494	545	164	600	38	0	
7	0	0	0	0	487	555	163	607	38	0	
8	0	0	0	0	484	562	163	595	38	0	
9	0	0	0	0	464	559	163	577	38	0	
10	0	0	0	0	469	549	163	553	38	0	
11	0	0	0	0	472	536	163	529	38	0	
12	0	0	0	0	492	520	163	506	38	0	
13	0	0	0	0	494	504	163	487	38	0	
14	0	0	0	0	519	489	163	472	38	0	
15	0	0	0	0	525	478	164	462	38	0	
0	0	0	0	0	534	471	164	455	38	0	
1	0	0	0	0	551	470	163	447	38	0	
2	0	0	0	0	546	476	163	448	38	0	
3	0	0	0	0	545	488	163	459	38	0	
4	0	0	0	0	528	505	164	491	38	0	
5	0	0	0	0	520	521	163	521	38	0	
6	0	0	0	0	509	538	163	547	38	0	
7	0	0	0	0	494	551	163	562	38	0	
8	0	0	0	0	489	559	163	564	38	0	
9	0	0	0	0	474	560	163	559	38	0	
10	0	0	0	0	473	554	163	542	38	0	
11	0	0	0	0	472	543	163	524	38	0	
12	0	0	0	0	478	529	163	505	38	0	
13	0	0	0	0	490	513	163	488	38	0	
14	0	0	0	0	512	497	164	473	38	0	
15	0	0	0	0	527	484	164	461	38	0	
0	0	0	0	0	527	476	164	454	38	0	
1	0	0	0	0	528	472	164	449	38	0	
2	0	0	0	0	550	474	164	448	38	0	
3	0	0	0	0	543	483	164	462	38	0	
4	0	0	0	0	548	496	164	477	38	0	
5	0	0	0	0	524	513	164	499	38	0	
6	0	0	0	0	516	531	164	540	38	0	
7	0	0	0	0	497	547	164	578	38	0	
8	0	0	0	0	493	557	164	595	38	0	
9	0	0	0	0	482	562	164	595	38	0	
10	0	0	0	0	464	562	164	579	38	0	
11	0	0	0	0	466	553	164	557	38	0	
12	0	0	0	0	468	542	164	533	38	0	
13	0	0	0	0	485	527	164	509	38	0	
14	0	0	0	0	500	511	164	491	38	0	
15	0	0	0	0	504	496	164	475	38	0	
0	0	0	0	0	521	485	165	463	38	0	
1	0	0	0	0	531	477	164	454	38	0	
2	0	0	0	0	550	473	164	449	38	0	
3	0	0	0	0	553	480	164	448	38	0	
4	0	0	0	0	543	491	164	457	38	0	
5	0	0	0	0	537	507	164	476	38	0	
6	0	0	0	0	524	524	164	503	38	0	
7	0	0	0	0	510	540	164	551	38	0	
8	0	0	0	0	502	553	164	583	38	0	
9	0	0	0	0	492	563	164	588	38	0	
10	0	0	0	0	482	570	163	581	38	0	
11	0	0	0	0	459	567	163	561	38	0	
12	0	0	0	0	472	557	164	540	38	0	
13	0	0	0	0	470	542	164	517	38	0	
14	0	0	0	0	494	525	164	497	38	0	
15	0	0	0	0	504	508	164	480	38	0	
0	0	0	0	0	518	495	164	469	38	0	
1	0	0	0	0	527	484	164	459	38	0	
2	0	0	0	0	526	478	164	451	38	0	
3	0	0	0	0	551	477	164	448	38	0	
4	0	0	0	0	556	485	164	448	38	0	
5	0	0	0	0	539	498	164	461	38	0	
6	0	0	0	0	527	515	164	503	38	0	
7	0	0	0	0	514	533	164	536	38	0	
8	0	0	0	0	509	550	163	564	38	0	
9	0	0	0	0	495	561	163	582	38	0	
10	0	0	0	0	494	569	163	584	38	0	
11	0	0	0	0	471	572	163	574	38	0	
12	0	0	0	0	461	564	163	556	38	0	
13	0	0	0	0	476	552	163	533	38	0	
14	0	0	0	0	476	537	163	512	38	0	
15	0	0	0	0	494	521	164	494	38	0	
0	0	0	0	0	504	505	164	481	38	0	
1	0	0	0	0	528	491	164	464	38	0	
2	0	0	0	0	536	483	164	455	38	0	
3	0	0	0	0	533	479	164	449	38	0	
4	0	0	0	0	550	482	164	448	38	0	
5	0	0	0	0	543	492	164	456	38	0	
6	0	0	0	0	543	507	163	471	38	0	
7	0	0	0	0	535	524	163	489	38	0	
8	0	0	0	0	512	540	163	505	38	0	
9	0	0	0	0	500	556	163	531	38	0	
10	0	0	0	0	481	566	163	558	38	0	
11	0	0	0	0	478	572	163	568	38	0	
12	0	0	0	0	471	572	163	561	38	0	
13	0	0	0	0	471	564	163	545	38	0	
14	0	0	0	0	477	553	163	526	38	0	
15	0	0	0	0	488	536	163	507	38	0	
0	0	0	0	0	498	518	163	489	38	0	
1	0	0	0	0	505	501	164	475	38	0	
2	0	0	0	0	529	489	164	463	38	0	
3	0	0	0	0	536	483	164	453	38	0	
4	0	0	0	0	545	480	164	444	38	0	
5	0	0	0	0	544	485	164	443	38	0	
6	0	0	0	0	537	496	164	448	38	0	
7	0	0	0	0	545	512	164	467	38	0	
8	0	0	0	0	524	530	163	500	38	0	
9	0	0	0	0	509	547	164	561	38	0	
10	0	0	0	0	496	560	164	601	38	0	
11	0	0	0	0	487	568	164	610	38	0	
12	0	0	0	0	484	574	163	598	38	0	
13	0	0	0	0	464	570	164	578	38	0	
14	0	0	0	0	470	560	164	552	38	0	
15	0	0	0	0	475	545	164	527	38	0	
0	0	0	0	0	487	529	164	505	38	0	
1	0	0	0	0	502	512	164	487	38	0	
2	0	0	0	0	515	496	164	471	38	0	
3	0	0	0	0	529	484	163	470	38	0	
4	0	0	0	0	530	478	164	452	38	0	
5	0	0	0	0	557	479	164	449	38	0	
6	0	0	0	0	543	487	164	451	38	0	
7	0	0	0	0	546	499	164	467	38	0	
8	0	0	0	0	523	515	164	499	38	0	
9	0	0	0	0	522	532	163	525	38	0	
10	0	0	0	0	512	547	163	541	38	0	
11	0	0	0	0	492	560	164	546	38	0	
12	0	0	0	0	486	568	163	541	38	0	
13	0	0	0	0	471	570	163	532	38	0	
14	0	0	0	0	469	564	163	520	38	0	
15	0	0	0	0	472	553	163	504	38	0	
0	0	0	0	0	481	536	163	493	38	0	
1	0	0	0	0	485	518	164	474	38	0	
2	0	0	0	0	500	498	164	464	38	0	
3	0	0	0	0	523	484	164	455	38	0	
4	0	0	0	0	527	474	164	448	38	0	
5	0	0	0	0	536	468	164	444	38	0	
6	0	0	0	0	551	471	164	444	38	0	
7	0	0	0	0	540	479	164	448	38	0	
8	0	0	0	0	543	494	164	456	38	0	
9	0	0	0	0	527	510	164	492	38	0	
10	0	0	0	0	511	527	164	541	38	0	
11	0	0	0	0	502	542	164	579	38	0	
12	0	0	0	0	489	551	164	594	38	0	
13	0	0	0	0	488	556	164	590	38	0	
14	0	0	0	0	468	555	164	574	38	0	
15	0	0	0	0	466	547	164	552	38	0	
0	0	0	0	0	480	535	164	531	38	0	
1	0	0	0	0	483	519	164	510	38	0	
2	0	0	0	0	487	502	164	491	38	0	
3	0	0	0	0	513	484	164	476	38	0	
4	0	0	0	0	529	472	164	464	38	0	
5	0	0	0	0	537	463	164	455	38	0	
6	0	0	0	0	547	458	164	449	38	0	
7	0	0	0	0	548	463	164	451	38	0	
8	0	0	0	0	547	472	163	457	38	0	
9	0	0	0	0	536	487	164	475	38	0	
10	0	0	0	0	523	503	164	506	38	0	
11	0	0	0	0	511	520	164	545	38	0	
12	0	0	0	0	493	532	163	564	38	0	
13	0	0	0	0	483	540	163	566	38	0	
14	0	0	0	0	475	543	163	559	38	0	
15	0	0	0	0	462	538	163	546	38	0	
0	0	0	0	0	473	527	164	528	38	0	
1	0	0	0	0	487	511	164	510	38	0	
2	0	0	0	0	495	493	164	493	38	0	
3	0	0	0	0	509	475	164	479	38	0	
4	0	0	0	0	519	461	164	467	38	0	
5	0	0	0	0	523	450	164	457	38	0	
6	0	0	0	0	537	443	164	453	38	0	
7	0	0	0	0	549	443	164	450	38	0	
8	0	0	0	0	550	451	164	452	38	0	
9	0	0	0	0	544	463	164	459	38	0	
10	0	0	0	0	528	478	164	500	38	0	
11	0	0	0	0	519	493	163	541	38	0	
12	0	0	0	0	499	509	163	569	38	0	
13	0	0	0	0	494	521	163	578	38	0	
14	0	0	0	0	481	527	163	573	38	0	
15	0	0	0	0	479	529	163	562	38	0	
0	0	0	0	0	470	522	164	549	38	0	
1	0	0	0	0	474	511	164	532	38	0	
2	0	0	0	0	475	496	164	510	38	0	
3	0	0	0	0	488	478	164	492	38	0	
4	0	0	0	0	515	460	164	476	38	0	
5	0	0	0	0	522	446	164	464	38	0	
6	0	0	0	0	531	437	164	457	38	0	
7	0	0	0	0	536	433	165	453	38	0	
8	0	0	0	0	549	436	164	452	38	0	
9	0	0	0	0	537	445	164	468	38	0	
10	0	0	0	0	545	460	164	487	38	0	
11	0	0	0	0	528	476	164	508	38	0	
12	0	0	0	0	512	495	164	526	38	0	
13	0	0	0	0	494	510	164	543	38	0	
14	0	0	0	0	492	522	164	557	38	0	
15	0	0	0	0	488	527	164	560	38	0	
0	0	0	0	0	464	527	164	552	38	0	
1	0	0	0	0	474	517	164	538	38	0	
2	0	0	0	0	480	503	164	519	38	0	
3	0	0	0	0	488	485	164	499	38	0	
4	0	0	0	0	494	467	164	485	38	0	
5	0	0	0	0	515	450	164	473	38	0	
6	0	0	0	0	517	438	164	463	38	0	
7	0	0	0	0	532	430	165	454	38	0	
8	0	0	0	0	543	427	165	449	38	0	
9	0	0	0	0	551	433	164	451	38	0	
10	0	0	0	0	547	444	164	455	38	0	
11	0	0	0	0	537	460	164	467	38	0	
12	0	0	0	0	524	477	164	499	38	0	
13	0	0	0	0	504	496	164	549	38	0	
14	0	0	0	0	494	510	164	580	38	0	
15	0	0	0	0	495	519	164	591	38	0	
0	0	0	0	0	477	523	163	588	38	0	
1	0	0	0	0	467	519	164	574	38	0	
2	0	0	0	0	477	508	163	553	38	0	
3	0	0	0	0	475	492	164	531	38	0	
4	0	0	0	0	491	476	164	509	38	0	
5	0	0	0	0	497	459	164	490	38	0	
6	0	0	0	0	520	445	164	476	38	0	
7	0	0	0	0	531	435	164	465	38	0	
8	0	0	0	0	528	429	164	459	38	0	
9	0	0	0	0	553	428	164	464	38	0	
10	0	0	0	0	550	436	164	458	38	0	
11	0	0	0	0	541	451	164	468	38	0	
12	0	0	0	0	527	468	164	509	38	0	
13	0	0	0	0	518	486	164	548	38	0	
14	0	0	0	0	512	503	164	572	38	0	
15	0	0	0	0	495	515	164	583	38	0	
0	0	0	0	0	482	523	164	582	38	0	
1	0	0	0	0	472	525	164	568	38	0	
2	0	0	0	0	463	518	164	551	38	0	
3	0	0	0	0	475	506	164	530	38	0	
4	0	0	0	0	481	489	164	509	38	0	
5	0	0	0	0	484	472	164	492	38	0	
6	0	0	0	0	502	455	164	477	38	0	
7	0	0	0	0	524	443	164	465	38	0	
8	0	0	0	0	530	434	164	456	38	0	
9	0	0	0	0	538	430	165	450	38	0	
10	0	0	0	0	554	435	164	448	38	0	
11	0	0	0	0	543	445	164	452	38	0	
12	0	0	0	0	550	461	164	467	38	0	
13	0	0	0	0	529	477	164	493	38	0	
14	0	0	0	0	517	495	164	527	38	0	
15	0	0	0	0	496	511	164	555	38	0	
0	0	0	0	0	486	521	164	568	38	0	
1	0	0	0	0	483	528	164	567	38	0	
2	0	0	0	0	465	527	164	555	38	0	
3	0	0	0	0	474	518	164	537	38	0	
4	0	0	0	0	473	506	164	518	38	0	
5	0	0	0	0	492	491	164	499	38	0	
6	0	0	0	0	499	475	164	486	38	0	
7	0	0	0	0	505	459	164	471	38	0	
8	0	0	0	0	526	449	164	460	38	0	
9	0	0	0	0	534	442	164	451	38	0	
10	0	0	0	0	540	440	164	448	38	0	
11	0	0	0	0	551	446	164	447	38	0	
12	0	0	0	0	540	457	164	458	38	0	
13	0	0	0	0	537	474	164	481	38	0	
14	0	0	0	0	530	492	164	512	38	0	
15	0	0	0	0	505	509	164	553	38	0	
0	0	0	0	0	492	523	163	578	38	0	
1	0	0	0	0	496	530	163	579	38	0	
2	0	0	0	0	483	535	163	569	38	0	
3	0	0	0	0	464	531	163	554	38	0	
4	0	0	0	0	477	521	164	534	38	0	
5	0	0	0	0	477	508	163	513	38	0	
6	0	0	0	0	485	492	163	496	38	0	
7	0	0	0	0	502	475	164	480	38	0	
8	0	0	0	0	519	460	163	468	38	0	
9	0	0	0	0	530	449	164	458	38	0	
10	0	0	0	0	528	443	164	452	38	0	
11	0	0	0	0	558	443	164	450	38	0	
12	0	0	0	0	546	451	164	460	38	0	
13	0	0	0	0	541	465	163	470	38	0	
14	0	0	0	0	531	483	163	492	38	0	
15	0	0	0	0	517	501	163	512	38	0	
0	0	0	0	0	498	519	164	525	38	0	
1	0	0	0	0	491	532	164	532	38	0	
2	0	0	0	0	488	540	163	534	38	0	
3	0	0	0	0	472	542	164	528	38	0	
4	0	0	0	0	465	536	164	519	38	0	
5	0	0	0	0	476	527	164	505	38	0	
6	0	0	0	0	484	511	164	490	38	0	
7	0	0	0	0	496	495	164	478	38	0	
8	0	0	0	0	507	478	164	466	38	0	
9	0	0	0	0	521	464	164	460	38	0	
10	0	0	0	0	536	455	164	454	38	0	
11	0	0	0	0	540	451	164	451	38	0	
12	0	0	0	0	546	454	164	451	38	0	
13	0	0	0	0	540	462	163	473	38	0	
14	0	0	0	0	542	474	163	499	38	0	
15	0	0	0	0	527	489	163	527	38	0	
0	0	0	0	0	509	508	163	562	38	0	
1	0	0	0	0	496	523	163	592	38	0	
2	0	0	0	0	497	535	163	616	38	0	
3	0	0	0	0	492	543	163	621	38	0	
4	0	0	0	0	470	543	163	607	38	0	
5	0	0	0	0	472	536	163	584	38	0	
6	0	0	0	0	478	524	163	559	38	0	
7	0	0	0	0	481	508	163	535	38	0	
8	0	0	0	0	494	491	163	510	38	0	
9	0	0	0	0	513	473	164	490	38	0	
10	0	0	0	0	528	460	164	476	38	0	
11	0	0	0	0	532	450	164	477	38	0	
12	0	0	0	0	548	447	164	458	38	0	
13	0	0	0	0	540	452	164	457	38	0	
14	0	0	0	0	541	464	163	461	38	0	
15	0	0	0	0	537	479	163	479	38	0	
0	0	0	0	0	519	496	163	503	38	0	
1	0	0	0	0	509	512	163	542	38	0	
2	0	0	0	0	489	525	163	568	38	0	
3	0	0	0	0	490	534	163	575	38	0	
4	0	0	0	0	480	540	164	569	38	0	
5	0	0	0	0	467	536	163	556	38	0	
6	0	0	0	0	465	529	164	537	38	0	
7	0	0	0	0	470	517	164	517	38	0	
8	0	0	0	0	489	501	164	499	38	0	
9	0	0	0	0	501	487	164	485	38	0	
10	0	0	0	0	518	473	164	471	38	0	
11	0	0	0	0	535	463	164	461	38	0	
12	0	0	0	0	543	457	164	455	38	0	
13	0	0	0	0	559	459	164	453	38	0	
14	0	0	0	0	542	466	164	459	38	0	
15	0	0	0	0	539	478	164	475	38	0	
0	0	0	0	0	527	494	164	501	38	0	
1	0	0	0	0	522	510	164	522	38	0	
2	0	0	0	0	499	526	164	537	38	0	
3	0	0	0	0	494	538	164	545	38	0	
4	0	0	0	0	483	545	163	552	38	0	
5	0	0	0	0	472	549	163	536	38	0	
6	0	0	0	0	465	544	163	526	38	0	
7	0	0	0	0	476	534	163	512	38	0	
8	0	0	0	0	477	519	163	495	38	0	
9	0	0	0	0	495	502	163	481	38	0	
10	0	0	0	0	506	485	164	468	38	0	
11	0	0	0	0	527	472	164	459	38	0	
12	0	0	0	0	524	461	164	454	38	0	
13	0	0	0	0	540	456	164	449	38	0	
14	0	0	0	0	553	459	164	451	38	0	
15	0	0	0	0	550	469	164	466	38	0	
0	0	0	0	0	537	484	164	485	38	0	
1	0	0	0	0	527	500	164	510	38	0	
2	0	0	0	0	505	518	164	538	38	0	
3	0	0	0	0	494	533	164	560	38	0	
4	0	0	0	0	493	543	164	581	38	0	
5	0	0	0	0	480	549	164	586	38	0	
6	0	0	0	0	462	550	164	577	38	0	
7	0	0	0	0	474	543	164	568	38	0	
8	0	0	0	0	477	532	164	539	38	0	
9	0	0	0	0	486	516	164	519	38	0	
10	0	0	0	0	491	500	164	500	38	0	
11	0	0	0	0	509	484	164	486	38	0	
12	0	0	0	0	532	472	164	474	38	0	
13	0	0	0	0	527	465	164	463	38	0	
14	0	0	0	0	548	463	164	457	38	0	
15	0	0	0	0	547	469	164	457	38	0	
0	0	0	0	0	541	481	164	463	38	0	
1	0	0	0	0	535	497	164	480	38	0	
2	0	0	0	0	525	515	163	501	38	0	
3	0	0	0	0	510	532	163	537	38	0	
4	0	0	0	0	498	546	163	559	38	0	
5	0	0	0	0	489	556	163	560	38	0	
6	0	0	0	0	479	562	163	555	38	0	
7	0	0	0	0	461	558	163	540	38	0	
8	0	0	0	0	472	549	163	524	38	0	
9	0	0	0	0	479	535	163	509	38	0	
10	0	0	0	0	490	519	163	493	38	0	
11	0	0	0	0	504	502	163	480	38	0	
12	0	0	0	0	522	488	163	470	38	0	
13	0	0	0	0	531	479	163	461	38	0	
14	0	0	0	0	532	475	164	457	38	0	
15	0	0	0	0	548	477	164	455	38	0	
0	0	0	0	0	542	487	163	458	38	0	
1	0	0	0	0	547	499	163	465	38	0	
2	0	0	0	0	521	515	163	492	38	0	
3	0	0	0	0	523	531	163	515	38	0	
4	0	0	0	0	502	547	163	533	38	0	
5	0	0	0	0	490	560	163	560	38	0	
6	0	0	0	0	487	568	163	574	38	0	
7	0	0	0	0	472	569	163	571	38	0	
8	0	0	0	0	470	562	163	558	38	0	
9	0	0	0	0	479	551	163	539	38	0	
10	0	0	0	0	479	535	163	519	38	0	
11	0	0	0	0	488	518	164	502	38	0	
12	0	0	0	0	510	502	164	486	38	0	
13	0	0	0	0	520	490	164	475	38	0	
14	0	0	0	0	529	481	164	466	38	0	
15	0	0	0	0	539	477	164	460	38	0	
0	0	0	0	0	559	481	164	459	38	0	
1	0	0	0	0	543	491	164	475	38	0	
2	0	0	0	0	540	505	164	493	38	0	
3	0	0	0	0	518	523	164	516	38	0	
4	0	0	0	0	524	539	164	544	38	0	
5	0	0	0	0	495	551	164	568	38	0	
6	0	0	0	0	494	561	163	594	38	0	
7	0	0	0	0	483	566	163	603	38	0	
8	0	0	0	0	465	565	163	593	38	0	
9	0	0	0	0	466	558	163	572	38	0	
10	0	0	0	0	476	545	163	550	38	0	
11	0	0	0	0	479	528	163	528	38	0	
12	0	0	0	0	499	511	163	505	38	0	
13	0	0	0	0	508	495	163	489	38	0	
14	0	0	0	0	524	484	164	476	38	0	
15	0	0	0	0	534	477	164	467	38	0	
0	0	0	0	0	550	474	164	461	38	0	
1	0	0	0	0	550	480	164	459	38	0	
2	0	0	0	0	542	489	164	463	38	0	
3	0	0	0	0	542	505	164	477	38	0	
4	0	0	0	0	520	522	164	509	38	0	
5	0	0	0	0	502	539	163	559	38	0	
6	0	0	0	0	498	552	163	595	38	0	
7	0	0	0	0	488	561	163	606	38	0	
8	0	0	0	0	477	566	163	598	38	0	
9	0	0	0	0	457	560	163	582	38	0	
10	0	0	0	0	474	550	164	558	38	0	
11	0	0	0	0	478	535	164	536	38	0	
12	0	0	0	0	488	518	164	515	38	0	
13	0	0	0	0	507	501	164	496	38	0	
14	0	0	0	0	522	485	164	483	38	0	
15	0	0	0	0	526	473	164	471	38	0	
0	0	0	0	0	530	467	164	462	38	0	
1	0	0	0	0	556	468	164	458	38	0	
2	0	0	0	0	546	477	164	459	38	0	
3	0	0	0	0	544	490	164	464	38	0	
4	0	0	0	0	527	506	164	490	38	0	
5	0	0	0	0	521	521	164	519	38	0	
6	0	0	0	0	501	535	164	546	38	0	
7	0	0	0	0	482	546	163	561	38	0	
8	0	0	0	0	488	553	163	561	38	0	
9	0	0	0	0	473	555	164	551	38	0	
10	0	0	0	0	468	550	164	538	38	0	
11	0	0	0	0	482	539	164	522	38	0	
12	0	0	0	0	480	523	164	504	38	0	
13	0	0	0	0	494	506	164	490	38	0	
14	0	0	0	0	507	488	164	476	38	0	
15	0	0	0	0	515	475	164	465	38	0	
0	0	0	0	0	523	467	163	460	38	0	
1	0	0	0	0	541	463	164	454	38	0	
2	0	0	0	0	552	467	163	454	38	0	
3	0	0	0	0	553	479	163	470	38	0	
4	0	0	0	0	535	494	163	488	38	0	
5	0	0	0	0	525	510	163	514	38	0	
6	0	0	0	0	508	527	163	549	38	0	
7	0	0	0	0	498	541	163	576	38	0	
8	0	0	0	0	483	550	163	591	38	0	
9	0	0	0	0	481	555	163	591	38	0	
10	0	0	0	0	470	553	163	578	38	0	
11	0	0	0	0	479	544	163	558	38	0	
12	0	0	0	0	480	530	163	535	38	0	
13	0	0	0	0	484	514	163	518	38	0	
14	0	0	0	0	495	496	163	495	38	0	
15	0	0	0	0	507	479	163	480	38	0	
0	0	0	0	0	524	466	164	468	38	0	
1	0	0	0	0	531	457	164	460	38	0	
2	0	0	0	0	546	455	164	455	38	0	
3	0	0	0	0	548	461	163	454	38	0	
4	0	0	0	0	540	473	163	461	38	0	
5	0	0	0	0	532	489	163	491	38	0	
6	0	0	0	0	530	505	164	515	38	0	
7	0	0	0	0	510	520	164	568	38	0	
8	0	0	0	0	489	533	163	597	38	0	
9	0	0	0	0	495	541	164	601	38	0	
10	0	0	0	0	479	545	164	590	38	0	
11	0	0	0	0	463	541	164	571	38	0	
12	0	0	0	0	468	530	164	547	38	0	
13	0	0	0	0	475	515	164	525	38	0	
14	0	0	0	0	493	499	164	506	38	0	
15	0	0	0	0	507	482	164	487	38	0	
0	0	0	0	0	523	467	164	473	38	0	
1	0	0	0	0	527	458	164	463	38	0	
2	0	0	0	0	534	452	164	467	38	0	
3	0	0	0	0	551	453	164	451	38	0	
4	0	0	0	0	551	461	164	454	38	0	
5	0	0	0	0	538	474	164	460	38	0	
6	0	0	0	0	533	491	164	489	38	0	
7	0	0	0	0	519	508	164	514	38	0	
8	0	0	0	0	500	525	163	537	38	0	
9	0	0	0	0	492	536	164	551	38	0	
10	0	0	0	0	480	544	164	552	38	0	
11	0	0	0	0	467	547	163	544	38	0	
12	0	0	0	0	466	541	163	531	38	0	
13	0	0	0	0	473	529	164	514	38	0	
14	0	0	0	0	482	515	164	497	38	0	
15	0	0	0	0	491	497	164	483	38	0	
0	0	0	0	0	508	481	164	473	38	0	
1	0	0	0	0	528	467	164	464	38	0	
2	0	0	0	0	534	459	164	456	38	0	
3	0	0	0	0	545	453	164	453	38	0	
4	0	0	0	0	554	457	164	449	38	0	
5	0	0	0	0	538	466	164	454	38	0	
6	0	0	0	0	539	480	164	462	38	0	
7	0	0	0	0	529	498	163	482	38	0	
8	0	0	0	0	516	514	163	521	38	0	
9	0	0	0	0	492	529	163	559	38	0	
10	0	0	0	0	479	540	163	594	38	0	
11	0	0	0	0	485	545	163	609	38	0	
12	0	0	0	0	462	545	163	603	38	0	
13	0	0	0	0	472	536	163	578	38	0	
14	0	0	0	0	471	524	163	553	38	0	
15	0	0	0	0	487	507	163	527	38	0	
0	0	0	0	0	493	489	163	505	38	0	
1	0	0	0	0	520	473	163	486	38	0	
2	0	0	0	0	530	461	163	472	38	0	
3	0	0	0	0	526	453	163	463	38	0	
4	0	0	0	0	542	450	164	457	38	0	
5	0	0	0	0	541	457	163	456	38	0	
6	0	0	0	0	542	468	163	460	38	0	
7	0	0	0	0	533	484	163	468	38	0	
8	0	0	0	0	520	500	163	497	38	0	
9	0	0	0	0	517	516	163	544	38	0	
10	0	0	0	0	489	529	163	580	38	0	
11	0	0	0	0	492	538	163	596	38	0	
12	0	0	0	0	477	543	163	606	38	0	
13	0	0	0	0	468	539	163	579	38	0	
14	0	0	0	0	476	528	163	557	38	0	
15	0	0	0	0	483	515	163	534	38	0	
0	0	0	0	0	494	499	163	513	38	0	
1	0	0	0	0	498	482	164	495	38	0	
2	0	0	0	0	519	468	164	479	38	0	
3	0	0	0	0	526	456	164	468	38	0	
4	0	0	0	0	526	449	164	459	38	0	
5	0	0	0	0	555	450	163	454	38	0	
6	0	0	0	0	550	457	163	455	38	0	
7	0	0	0	0	545	470	163	462	38	0	
8	0	0	0	0	526	485	163	479	38	0	
9	0	0	0	0	520	503	163	508	38	0	
10	0	0	0	0	509	519	163	520	38	0	
11	0	0	0	0	482	532	163	538	38	0	
12	0	0	0	0	489	540	163	546	38	0	
13	0	0	0	0	471	543	163	548	38	0	
14	0	0	0	0	463	534	163	541	38	0	
15	0	0	0	0	477	521	163	526	38	0	
0	0	0	0	0	481	505	164	510	38	0	
1	0	0	0	0	490	488	164	495	38	0	
2	0	0	0	0	505	472	164	480	38	0	
3	0	0	0	0	526	457	164	469	38	0	
4	0	0	0	0	536	447	164	461	38	0	
5	0	0	0	0	543	443	164	458	38	0	
6	0	0	0	0	550	446	163	457	38	0	
7	0	0	0	0	539	455	163	466	38	0	
8	0	0	0	0	535	469	163	483	38	0	
9	0	0	0	0	530	485	163	507	38	0	
10	0	0	0	0	513	503	163	530	38	0	
11	0	0	0	0	494	518	163	551	38	0	
12	0	0	0	0	485	528	163	562	38	0	
13	0	0	0	0	484	535	163	563	38	0	
14	0	0	0	0	462	533	163	552	38	0	
15	0	0	0	0	472	524	163	536	38	0	
0	0	0	0	0	469	510	163	520	38	0	
1	0	0	0	0	487	493	163	503	38	0	
2	0	0	0	0	498	476	164	489	38	0	
3	0	0	0	0	519	459	164	477	38	0	
4	0	0	0	0	530	447	164	467	38	0	
5	0	0	0	0	525	440	164	460	38	0	
6	0	0	0	0	551	438	164	455	38	0	
7	0	0	0	0	548	444	164	454	38	0	
8	0	0	0	0	545	455	163	461	38	0	
9	0	0	0	0	536	472	163	485	38	0	
10	0	0	0	0	526	490	163	529	38	0	
11	0	0	0	0	512	508	163	591	38	0	
12	0	0	0	0	494	522	163	625	38	0	
13	0	0	0	0	492	531	163	629	38	0	
14	0	0	0	0	467	537	163	613	38	0	
15	0	0	0	0	458	534	163	590	38	0	
0	0	0	0	0	473	524	163	563	38	0	
1	0	0	0	0	476	509	163	537	38	0	
2	0	0	0	0	487	491	163	514	38	0	
3	0	0	0	0	505	473	163	495	38	0	
4	0	0	0	0	524	459	163	478	38	0	
5	0	0	0	0	532	448	164	466	38	0	
6	0	0	0	0	534	442	164	457	38	0	
7	0	0	0	0	552	443	164	453	38	0	
8	0	0	0	0	546	452	164	455	38	0	
9	0	0	0	0	541	466	164	463	38	0	
10	0	0	0	0	522	482	163	497	38	0	
11	0	0	0	0	523	500	164	535	38	0	
12	0	0	0	0	508	516	163	566	38	0	
13	0	0	0	0	489	530	163	581	38	0	
14	0	0	0	0	481	538	163	579	38	0	
15	0	0	0	0	471	541	163	565	38	0	
0	0	0	0	0	465	534	164	549	38	0	
1	0	0	0	0	473	522	164	531	38	0	
2	0	0	0	0	476	506	164	511	38	0	
3	0	0	0	0	494	488	164	492	38	0	
4	0	0	0	0	515	472	164	477	38	0	
5	0	0	0	0	524	459	164	465	38	0	
6	0	0	0	0	527	451	164	460	38	0	
7	0	0	0	0	533	446	164	449	38	0	
8	0	0	0	0	553	451	164	448	38	0	
9	0	0	0	0	550	461	164	457	38	0	
10	0	0	0	0	544	477	164	471	38	0	
11	0	0	0	0	529	494	164	490	38	0	
12	0	0	0	0	511	513	164	541	38	0	
13	0	0	0	0	497	528	163	585	38	0	
14	0	0	0	0	490	537	163	608	38	0	
15	0	0	0	0	486	542	163	608	38	0	
0	0	0	0	0	464	540	163	594	38	0	
1	0	0	0	0	467	532	164	573	38	0	
2	0	0	0	0	473	520	164	549	38	0	
3	0	0	0	0	494	503	164	525	38	0	
4	0	0	0	0	495	485	164	504	38	0	
5	0	0	0	0	515	468	164	487	38	0	
6	0	0	0	0	520	455	164	473	38	0	
7	0	0	0	0	524	448	164	463	38	0	
8	0	0	0	0	543	446	164	457	38	0	
9	0	0	0	0	548	453	164	455	38	0	
10	0	0	0	0	544	464	164	461	38	0	
11	0	0	0	0	534	482	164	479	38	0	
12	0	0	0	0	520	501	164	510	38	0	
13	0	0	0	0	512	519	164	571	38	0	
14	0	0	0	0	491	534	163	609	38	0	
15	0	0	0	0	485	543	163	620	38	0	
0	0	0	0	0	469	548	163	612	38	0	
1	0	0	0	0	464	545	163	594	38	0	
2	0	0	0	0	474	537	164	569	38	0	
3	0	0	0	0	477	523	164	543	38	0	
4	0	0	0	0	491	506	164	519	38	0	
5	0	0	0	0	510	489	164	499	38	0	
6	0	0	0	0	515	475	164	482	38	0	
7	0	0	0	0	529	465	164	470	38	0	
8	0	0	0	0	529	460	164	461	38	0	
9	0	0	0	0	551	462	163	464	38	0	
10	0	0	0	0	544	471	164	459	38	0	
11	0	0	0	0	549	483	163	463	38	0	
12	0	0	0	0	524	499	163	474	38	0	
13	0	0	0	0	526	516	163	485	38	0	
14	0	0	0	0	501	532	163	501	38	0	
15	0	0	0	0	491	545	163	516	38	0	
0	0	0	0	0	489	553	163	522	38	0	
1	0	0	0	0	469	555	163	520	38	0	
2	0	0	0	0	467	547	163	512	38	0	
3	0	0	0	0	472	536	164	501	38	0	
4	0	0	0	0	487	522	164	488	38	0	
5	0	0	0	0	493	505	164	476	38	0	
6	0	0	0	0	505	489	164	466	38	0	
7	0	0	0	0	527	475	164	460	38	0	
8	0	0	0	0	532	466	164	455	38	0	
9	0	0	0	0	540	463	164	452	38	0	
10	0	0	0	0	553	468	163	453	38	0	
11	0	0	0	0	545	479	163	468	38	0	
12	0	0	0	0	535	495	163	484	38	0	
13	0	0	0	0	529	512	163	514	38	0	
14	0	0	0	0	513	530	163	551	38	0	
15	0	0	0	0	491	545	163	598	38	0	
0	0	0	0	0	487	554	163	627	38	0	
1	0	0	0	0	485	559	163	631	38	0	
2	0	0	0	0	461	558	163	614	38	0	
3	0	0	0	0	470	550	163	588	38	0	
4	0	0	0	0	471	537	163	560	38	0	
5	0	0	0	0	482	520	164	537	38	0	
6	0	0	0	0	502	502	164	513	38	0	
7	0	0	0	0	512	485	164	494	38	0	
8	0	0	0	0	531	475	164	478	38	0	
9	0	0	0	0	530	467	164	466	38	0	
10	0	0	0	0	547	465	164	460	38	0	
11	0	0	0	0	550	472	164	458	38	0	
12	0	0	0	0	545	483	164	466	38	0	
13	0	0	0	0	544	499	164	480	38	0	
14	0	0	0	0	529	516	164	518	38	0	
15	0	0	0	0	506	534	164	559	38	0	
0	0	0	0	0	496	547	164	588	38	0	
1	0	0	0	0	489	555	164	602	38	0	
2	0	0	0	0	472	557	164	599	38	0	
3	0	0	0	0	463	551	164	583	38	0	
4	0	0	0	0	473	541	164	559	38	0	
5	0	0	0	0	472	526	164	535	38	0	
6	0	0	0	0	490	508	164	512	38	0	
7	0	0	0	0	503	491	164	492	38	0	
8	0	0	0	0	514	477	164	476	38	0	
9	0	0	0	0	528	467	164	476	38	0	
10	0	0	0	0	534	461	164	457	38	0	
11	0	0	0	0	559	462	164	454	38	0	
12	0	0	0	0	544	470	164	464	38	0	
13	0	0	0	0	534	482	164	491	38	0	
14	0	0	0	0	528	498	164	539	38	0	
15	0	0	0	0	516	516	163	570	38	0	
0	0	0	0	0	503	532	163	583	38	0	
1	0	0	0	0	493	544	164	586	38	0	
2	0	0	0	0	489	553	163	582	38	0	
3	0	0	0	0	467	556	163	569	38	0	
4	0	0	0	0	463	550	163	550	38	0	
5	0	0	0	0	483	539	163	527	38	0	
6	0	0	0	0	478	524	164	507	38	0	
7	0	0	0	0	495	505	164	490	38	0	
8	0	0	0	0	507	489	164	475	38	0	
9	0	0	0	0	526	477	164	463	38	0	
10	0	0	0	0	526	468	164	453	38	0	
11	0	0	0	0	537	463	164	448	38	0	
12	0	0	0	0	553	467	164	446	38	0	
13	0	0	0	0	544	476	164	468	38	0	
14	0	0	0	0	543	492	164	476	38	0	
15	0	0	0	0	530	509	164	502	38	0	
0	0	0	0	0	511	527	163	535	38	0	
1	0	0	0	0	492	542	163	561	38	0	
2	0	0	0	0	489	552	163	582	38	0	
3	0	0	0	0	484	560	163	583	38	0	
4	0	0	0	0	459	559	163	573	38	0	
5	0	0	0	0	464	551	163	553	38	0	
6	0	0	0	0	470	539	163	531	38	0	
7	0	0	0	0	488	523	163	509	38	0	
8	0	0	0	0	501	505	164	489	38	0	
9	0	0	0	0	514	489	164	475	38	0	
10	0	0	0	0	524	478	164	462	38	0	
11	0	0	0	0	529	471	164	455	38	0	
12	0	0	0	0	547	467	164	452	38	0	
13	0	0	0	0	547	473	163	452	38	0	
14	0	0	0	0	539	483	163	457	38	0	
15	0	0	0	0	531	499	163	477	38	0	
0	0	0	0	0	527	517	163	506	38	0	
1	0	0	0	0	514	533	163	526	38	0	
2	0	0	0	0	489	546	163	538	38	0	
3	0	0	0	0	491	554	163	539	38	0	
4	0	0	0	0	472	558	163	536	38	0	
5	0	0	0	0	470	553	163	540	38	0	
6	0	0	0	0	476	543	163	513	38	0	
7	0	0	0	0	474	528	163	500	38	0	
8	0	0	0	0	503	512	163	486	38	0	
9	0	0	0	0	502	495	163	473	38	0	
10	0	0	0	0	511	481	163	462	38	0	
11	0	0	0	0	526	471	163	455	38	0	
12	0	0	0	0	531	465	163	451	38	0	
13	0	0	0	0	558	466	163	450	38	0	
14	0	0	0	0	546	475	164	455	38	0	
15	0	0	0	0	543	488	163	463	38	0	
0	0	0	0	0	531	505	163	483	38	0	
1	0	0	0	0	514	523	163	506	38	0	
2	0	0	0	0	507	540	163	528	38	0	
3	0	0	0	0	491	551	163	539	38	0	
4	0	0	0	0	486	558	163	542	38	0	
5	0	0	0	0	471	559	163	535	38	0	
6	0	0	0	0	466	551	163	522	38	0	
7	0	0	0	0	480	540	163	507	38	0	
8	0	0	0	0	480	524	164	496	38	0	
9	0	0	0	0	495	505	164	481	38	0	
10	0	0	0	0	506	488	164	471	38	0	
11	0	0	0	0	526	474	164	463	38	0	
12	0	0	0	0	528	464	164	455	38	0	
13	0	0	0	0	538	460	164	452	38	0	
14	0	0	0	0	553	464	164	452	38	0	
15	0	0	0	0	541	475	164	468	38	0	
0	0	0	0	0	534	490	164	485	38	0	
1	0	0	0	0	529	507	164	507	38	0	
2	0	0	0	0	510	525	164	528	38	0	
3	0	0	0	0	489	539	163	547	38	0	
4	0	0	0	0	489	550	164	565	38	0	
5	0	0	0	0	488	557	164	566	38	0	
6	0	0	0	0	466	557	163	556	38	0	
7	0	0	0	0	469	548	164	541	38	0	
8	0	0	0	0	482	533	164	523	38	0	
9	0	0	0	0	488	517	163	506	38	0	
10	0	0	0	0	490	498	163	491	38	0	
11	0	0	0	0	511	482	163	477	38	0	
12	0	0	0	0	521	471	164	468	38	0	
13	0	0	0	0	531	464	163	458	38	0	
14	0	0	0	0	551	463	163	454	38	0	
15	0	0	0	0	559	471	163	455	38	0	
0	0	0	0	0	543	483	163	465	38	0	
1	0	0	0	0	530	498	163	490	38	0	
2	0	0	0	0	521	515	163	526	38	0	
3	0	0	0	0	507	531	163	568	38	0	
4	0	0	0	0	488	544	163	590	38	0	
5	0	0	0	0	494	553	163	589	38	0	
6	0	0	0	0	470	558	163	580	38	0	
7	0	0	0	0	462	555	163	561	38	0	
8	0	0	0	0	475	545	163	541	38	0	
9	0	0	0	0	475	532	163	521	38	0	
10	0	0	0	0	497	516	163	505	38	0	
11	0	0	0	0	504	499	163	487	38	0	
12	0	0	0	0	510	485	163	476	38	0	
13	0	0	0	0	525	475	163	466	38	0	
14	0	0	0	0	536	470	163	460	38	0	
15	0	0	0	0	561	473	163	457	38	0	
0	0	0	0	0	540	482	163	458	38	0	
1	0	0	0	0	544	495	163	472	38	0	
2	0	0	0	0	531	512	163	511	38	0	
3	0	0	0	0	514	528	163	558	38	0	
4	0	0	0	0	507	544	164	592	38	0	
5	0	0	0	0	487	556	164	604	38	0	
6	0	0	0	0	481	564	164	601	38	0	
7	0	0	0	0	476	567	163	589	38	0	
8	0	0	0	0	475	561	163	568	38	0	
9	0	0	0	0	465	551	164	544	38	0	
10	0	0	0	0	476	536	164	523	38	0	
11	0	0	0	0	488	519	164	504	38	0	
12	0	0	0	0	516	503	164	497	38	0	
13	0	0	0	0	524	490	164	473	38	0	
14	0	0	0	0	534	482	164	463	38	0	
15	0	0	0	0	544	479	164	458	38	0	
0	0	0	0	0	545	484	164	460	38	0	
1	0	0	0	0	543	496	163	466	38	0	
2	0	0	0	0	538	511	163	480	38	0	
3	0	0	0	0	520	529	163	504	38	0	
4	0	0	0	0	511	549	163	536	38	0	
5	0	0	0	0	495	564	163	566	38	0	
6	0	0	0	0	487	575	163	589	38	0	
7	0	0	0	0	477	580	163	594	38	0	
8	0	0	0	0	467	579	163	583	38	0	
9	0	0	0	0	474	571	163	563	38	0	
10	0	0	0	0	478	559	164	541	38	0	
11	0	0	0	0	494	543	164	520	38	0	
12	0	0	0	0	494	526	164	502	38	0	
13	0	0	0	0	512	511	164	486	38	0	
14	0	0	0	0	533	501	164	472	38	0	
15	0	0	0	0	526	495	164	463	38	0	
0	0	0	0	0	547	495	164	460	38	0	
1	0	0	0	0	542	504	164	459	38	0	
2	0	0	0	0	539	520	163	463	38	0	
3	0	0	0	0	535	540	163	480	38	0	
4	0	0	0	0	520	560	163	502	38	0	
5	0	0	0	0	513	579	163	539	38	0	
6	0	0	0	0	488	593	162	562	38	0	
7	0	0	0	0	488	604	162	568	38	0	
8	0	0	0	0	481	611	163	563	38	0	
9	0	0	0	0	462	608	163	549	38	0	
10	0	0	0	0	473	598	163	532	38	0	
11	0	0	0	0	481	583	163	515	38	0	
12	0	0	0	0	494	568	164	500	38	0	
13	0	0	0	0	500	550	164	486	38	0	
14	0	0	0	0	525	534	164	472	38	0	
15	0	0	0	0	530	521	164	463	38	0	
0	0	0	0	0	530	511	164	458	38	0	
1	0	0	0	0	553	508	164	456	38	0	
2	0	0	0	0	533	514	164	460	38	0	
3	0	0	0	0	539	523	164	465	38	0	
4	0	0	0	0	527	535	164	491	38	0	
5	0	0	0	0	522	546	163	513	38	0	
6	0	0	0	0	505	556	164	532	38	0	
7	0	0	0	0	488	563	163	547	38	0	
8	0	0	0	0	485	566	163	551	38	0	
9	0	0	0	0	467	564	163	544	38	0	
10	0	0	0	0	471	554	164	532	38	0	
11	0	0	0	0	474	537	164	519	38	0	
12	0	0	0	0	481	514	164	503	38	0	
13	0	0	0	0	493	490	164	491	38	0	
14	0	0	0	0	504	468	164	479	38	0	
15	0	0	0	0	519	451	164	469	38	0	
0	0	0	0	0	536	438	164	462	38	0	
1	0	0	0	0	538	432	164	459	38	0	
2	0	0	0	0	559	435	164	459	38	0	
3	0	0	0	0	543	442	164	466	38	0	
4	0	0	0	0	536	455	164	476	38	0	
5	0	0	0	0	525	469	164	494	38	0	
6	0	0	0	0	511	484	164	525	38	0	
7	0	0	0	0	493	497	163	572	38	0	
8	0	0	0	0	494	504	164	586	38	0	
9	0	0	0	0	487	506	164	586	38	0	
10	0	0	0	0	466	502	163	573	38	0	
11	0	0	0	0	470	492	163	553	38	0	
12	0	0	0	0	473	480	164	533	38	0	
13	0	0	0	0	491	465	164	514	38	0	
14	0	0	0	0	504	451	164	497	38	0	
15	0	0	0	0	515	440	164	482	38	0	
0	0	0	0	0	531	433	164	471	38	0	
1	0	0	0	0	529	430	164	462	38	0	
2	0	0	0	0	542	433	164	458	38	0	
3	0	0	0	0	549	444	164	458	38	0	
4	0	0	0	0	541	460	163	463	38	0	
5	0	0	0	0	535	480	163	477	38	0	
6	0	0	0	0	523	503	163	503	38	0	
7	0	0	0	0	507	525	163	551	38	0	
8	0	0	0	0	488	542	164	582	38	0	
9	0	0	0	0	492	555	163	589	38	0	
10	0	0	0	0	473	561	164	581	38	0	
11	0	0	0	0	460	558	163	566	38	0	
12	0	0	0	0	477	549	164	547	38	0	
13	0	0	0	0	476	536	164	525	38	0	
14	0	0	0	0	494	521	164	516	38	0	
15	0	0	0	0	510	505	164	489	38	0	
0	0	0	0	0	518	492	163	476	38	0	
1	0	0	0	0	532	484	164	466	38	0	
2	0	0	0	0	525	480	164	461	38	0	
3	0	0	0	0	557	482	164	459	38	0	
4	0	0	0	0	543	491	164	463	38	0	
5	0	0	0	0	543	506	164	483	38	0	
6	0	0	0	0	525	524	164	520	38	0	
7	0	0	0	0	516	541	163	559	38	0	
8	0	0	0	0	495	558	163	570	38	0	
9	0	0	0	0	491	572	163	592	38	0	
10	0	0	0	0	499	579	163	598	38	0	
11	0	0	0	0	472	581	163	590	38	0	
12	0	0	0	0	466	574	163	574	38	0	
13	0	0	0	0	473	562	164	552	38	0	
14	0	0	0	0	481	547	164	531	38	0	
15	0	0	0	0	493	529	164	511	38	0	
0	0	0	0	0	510	512	164	494	38	0	
1	0	0	0	0	526	499	164	478	38	0	
2	0	0	0	0	528	491	164	467	38	0	
3	0	0	0	0	542	486	164	460	38	0	
4	0	0	0	0	552	490	164	457	38	0	
5	0	0	0	0	538	501	164	467	38	0	
6	0	0	0	0	542	515	164	484	38	0	
7	0	0	0	0	524	531	164	512	38	0	
8	0	0	0	0	506	550	164	559	38	0	
9	0	0	0	0	500	564	163	598	38	0	
10	0	0	0	0	487	573	163	625	38	0	
11	0	0	0	0	477	579	163	627	38	0	
12	0	0	0	0	458	578	164	612	38	0	
13	0	0	0	0	476	570	164	587	38	0	
14	0	0	0	0	479	557	164	559	38	0	
15	0	0	0	0	489	540	164	531	38	0	
0	0	0	0	0	497	521	164	508	38	0	
1	0	0	0	0	520	505	164	493	38	0	
2	0	0	0	0	528	494	164	475	38	0	
3	0	0	0	0	526	486	164	463	38	0	
4	0	0	0	0	541	483	164	457	38	0	
5	0	0	0	0	553	490	164	454	38	0	
6	0	0	0	0	545	503	163	462	38	0	
7	0	0	0	0	531	518	163	483	38	0	
8	0	0	0	0	518	534	163	515	38	0	
9	0	0	0	0	510	550	163	560	38	0	
10	0	0	0	0	495	563	163	588	38	0	
11	0	0	0	0	494	572	163	595	38	0	
12	0	0	0	0	473	576	163	588	38	0	
13	0	0	0	0	467	571	163	569	38	0	
14	0	0	0	0	475	560	164	547	38	0	
15	0	0	0	0	476	546	164	526	38	0	
0	0	0	0	0	484	528	163	506	38	0	
1	0	0	0	0	506	510	163	488	38	0	
2	0	0	0	0	520	495	163	476	38	0	
3	0	0	0	0	535	484	163	466	38	0	
4	0	0	0	0	536	479	163	459	38	0	
5	0	0	0	0	556	480	163	455	38	0	
6	0	0	0	0	548	488	164	455	38	0	
7	0	0	0	0	538	502	164	464	38	0	
8	0	0	0	0	528	518	163	478	38	0	
9	0	0	0	0	526	536	163	493	38	0	
10	0	0	0	0	503	552	163	512	38	0	
11	0	0	0	0	491	564	163	526	38	0	
12	0	0	0	0	483	573	163	531	38	0	
13	0	0	0	0	466	575	163	535	38	0	
14	0	0	0	0	471	568	163	533	38	0	
15	0	0	0	0	478	556	163	521	38	0	
0	0	0	0	0	481	540	163	507	38	0	
1	0	0	0	0	494	522	164	492	38	0	
2	0	0	0	0	511	505	163	479	38	0	
3	0	0	0	0	526	492	163	469	38	0	
4	0	0	0	0	532	483	163	460	38	0	
5	0	0	0	0	538	478	163	455	38	0	
6	0	0	0	0	546	482	163	455	38	0	
7	0	0	0	0	540	492	163	470	38	0	
8	0	0	0	0	539	507	163	492	38	0	
9	0	0	0	0	523	524	163	514	38	0	
10	0	0	0	0	513	543	163	543	38	0	
11	0	0	0	0	492	557	163	567	38	0	
12	0	0	0	0	488	568	163	587	38	0	
13	0	0	0	0	480	572	163	589	38	0	
14	0	0	0	0	468	569	163	575	38	0	
15	0	0	0	0	472	561	163	553	38	0	
0	0	0	0	0	476	547	163	531	38	0	
1	0	0	0	0	481	530	164	510	38	0	
2	0	0	0	0	495	512	164	492	38	0	
3	0	0	0	0	514	496	164	477	38	0	
4	0	0	0	0	530	485	164	467	38	0	
5	0	0	0	0	531	477	164	461	38	0	
6	0	0	0	0	551	475	164	456	38	0	
7	0	0	0	0	547	483	164	459	38	0	
8	0	0	0	0	543	496	164	468	38	0	
9	0	0	0	0	537	512	164	499	38	0	
10	0	0	0	0	524	530	164	543	38	0	
11	0	0	0	0	508	547	163	599	38	0	
12	0	0	0	0	490	560	163	630	38	0	
13	0	0	0	0	484	570	163	628	38	0	
14	0	0	0	0	474	576	163	611	38	0	
15	0	0	0	0	467	573	163	587	38	0	
0	0	0	0	0	470	564	164	562	38	0	
1	0	0	0	0	478	549	164	535	38	0	
2	0	0	0	0	496	531	164	512	38	0	
3	0	0	0	0	509	513	164	492	38	0	
4	0	0	0	0	521	498	164	478	38	0	
5	0	0	0	0	528	487	164	465	38	0	
6	0	0	0	0	528	480	164	460	38	0	
7	0	0	0	0	553	481	164	455	38	0	
8	0	0	0	0	543	489	164	457	38	0	
9	0	0	0	0	539	503	164	465	38	0	
10	0	0	0	0	529	521	163	507	38	0	
11	0	0	0	0	522	540	163	542	38	0	
12	0	0	0	0	503	556	163	565	38	0	
13	0	0	0	0	495	568	163	576	38	0	
14	0	0	0	0	491	575	163	573	38	0	
15	0	0	0	0	472	578	163	563	38	0	
0	0	0	0	0	465	571	163	545	38	0	
1	0	0	0	0	472	559	163	525	38	0	
2	0	0	0	0	480	543	163	504	38	0	
3	0	0	0	0	497	525	163	487	38	0	
4	0	0	0	0	504	508	163	471	38	0	
5	0	0	0	0	519	495	163	461	38	0	
6	0	0	0	0	532	487	163	455	38	0	
7	0	0	0	0	544	485	163	451	38	0	
8	0	0	0	0	547	490	163	451	38	0	
9	0	0	0	0	543	502	163	460	38	0	
10	0	0	0	0	540	518	163	473	38	0	
11	0	0	0	0	527	535	163	492	38	0	
12	0	0	0	0	510	553	163	524	38	0	
13	0	0	0	0	495	567	163	557	38	0	
14	0	0	0	0	485	577	163	574	38	0	
15	0	0	0	0	485	583	164	580	38	0	
0	0	0	0	0	456	583	163	572	38	0	
1	0	0	0	0	472	575	163	555	38	0	
2	0	0	0	0	479	561	163	534	38	0	
3	0	0	0	0	481	545	164	513	38	0	
4	0	0	0	0	491	528	164	495	38	0	
5	0	0	0	0	511	513	164	478	38	0	
6	0	0	0	0	527	502	164	472	38	0	
7	0	0	0	0	531	495	163	456	38	0	
8	0	0	0	0	554	494	163	452	38	0	
9	0	0	0	0	553	501	163	451	38	0	
10	0	0	0	0	550	513	163	457	38	0	
11	0	0	0	0	534	529	163	468	38	0	
12	0	0	0	0	518	546	163	500	38	0	
13	0	0	0	0	507	562	163	548	38	0	
14	0	0	0	0	495	575	163	580	38	0	
15	0	0	0	0	491	584	163	588	38	0	
0	0	0	0	0	471	589	163	579	38	0	
1	0	0	0	0	464	584	162	562	38	0	
2	0	0	0	0	475	574	163	540	38	0	
3	0	0	0	0	475	560	163	519	38	0	
4	0	0	0	0	489	543	163	499	38	0	
5	0	0	0	0	496	526	164	484	38	0	
6	0	0	0	0	523	511	164	472	38	0	
7	0	0	0	0	530	499	163	461	38	0	
8	0	0	0	0	537	493	163	454	38	0	
9	0	0	0	0	553	494	163	453	38	0	
10	0	0	0	0	544	502	163	452	38	0	
11	0	0	0	0	541	514	163	461	38	0	
12	0	0	0	0	521	529	163	498	38	0	
13	0	0	0	0	519	546	163	547	38	0	
14	0	0	0	0	508	562	163	579	38	0	
15	0	0	0	0	487	574	163	593	38	0	
0	0	0	0	0	484	580	163	593	38	0	
1	0	0	0	0	473	582	163	582	38	0	
2	0	0	0	0	464	575	163	561	38	0	
3	0	0	0	0	479	562	163	540	38	0	
4	0	0	0	0	484	545	164	519	38	0	
5	0	0	0	0	492	527	164	499	38	0	
6	0	0	0	0	511	509	164	483	38	0	
7	0	0	0	0	524	496	164	470	38	0	
8	0	0	0	0	534	487	163	460	38	0	
9	0	0	0	0	538	483	163	454	38	0	
10	0	0	0	0	547	488	163	452	38	0	
11	0	0	0	0	546	499	163	462	38	0	
12	0	0	0	0	528	516	163	477	38	0	
13	0	0	0	0	526	534	163	499	38	0	
14	0	0	0	0	507	552	163	522	38	0	
15	0	0	0	0	495	565	163	550	38	0	
0	0	0	0	0	490	575	163	569	38	0	
1	0	0	0	0	487	581	163	570	38	0	
2	0	0	0	0	466	579	163	560	38	0	
3	0	0	0	0	476	569	163	543	38	0	
4	0	0	0	0	471	556	163	524	38	0	
5	0	0	0	0	489	539	164	504	38	0	
6	0	0	0	0	489	520	164	491	38	0	
7	0	0	0	0	524	504	163	472	38	0	
8	0	0	0	0	530	491	163	463	38	0	
9	0	0	0	0	530	483	163	456	38	0	
10	0	0	0	0	546	481	164	463	38	0	
11	0	0	0	0	548	487	163	455	38	0	
12	0	0	0	0	544	499	163	460	38	0	
13	0	0	0	0	530	515	163	472	38	0	
14	0	0	0	0	523	531	163	503	38	0	
15	0	0	0	0	507	548	163	542	38	0	
0	0	0	0	0	496	561	163	566	38	0	
1	0	0	0	0	486	569	163	568	38	0	
2	0	0	0	0	470	574	163	559	38	0	
3	0	0	0	0	467	569	163	542	38	0	
4	0	0	0	0	474	558	163	521	38	0	
5	0	0	0	0	473	543	163	503	38	0	
6	0	0	0	0	491	526	164	488	38	0	
7	0	0	0	0	509	508	164	474	38	0	
8	0	0	0	0	524	495	164	464	38	0	
9	0	0	0	0	528	484	164	455	38	0	
10	0	0	0	0	531	479	164	449	38	0	
11	0	0	0	0	553	480	163	448	38	0	
12	0	0	0	0	544	489	163	453	38	0	
13	0	0	0	0	543	503	163	467	38	0	
14	0	0	0	0	526	520	163	512	38	0	
15	0	0	0	0	517	537	163	569	38	0	
0	0	0	0	0	493	552	163	618	38	0	
1	0	0	0	0	497	563	163	647	38	0	
2	0	0	0	0	492	569	164	655	38	0	
3	0	0	0	0	473	571	164	644	38	0	
4	0	0	0	0	470	564	164	618	38	0	
5	0	0	0	0	476	551	164	588	38	0	
6	0	0	0	0	486	535	164	558	38	0	
7	0	0	0	0	494	519	164	530	38	0	
8	0	0	0	0	501	502	164	505	38	0	
9	0	0	0	0	525	489	164	486	38	0	
10	0	0	0	0	530	480	164	472	38	0	
11	0	0	0	0	544	475	163	460	38	0	
12	0	0	0	0	547	481	163	457	38	0	
13	0	0	0	0	544	493	163	466	38	0	
14	0	0	0	0	545	508	163	479	38	0	
15	0	0	0	0	528	524	163	501	38	0	
0	0	0	0	0	509	541	163	519	38	0	
1	0	0	0	0	496	554	163	549	38	0	
2	0	0	0	0	486	564	163	580	38	0	
3	0	0	0	0	486	571	163	600	38	0	
4	0	0	0	0	467	568	163	581	38	0	
5	0	0	0	0	471	558	163	563	38	0	
6	0	0	0	0	476	544	163	540	38	0	
7	0	0	0	0	483	527	164	518	38	0	
8	0	0	0	0	494	509	164	498	38	0	
9	0	0	0	0	516	493	164	480	38	0	
10	0	0	0	0	525	482	164	465	38	0	
11	0	0	0	0	530	475	164	456	38	0	
12	0	0	0	0	550	472	164	452	38	0	
13	0	0	0	0	548	479	164	453	38	0	
14	0	0	0	0	540	489	164	457	38	0	
15	0	0	0	0	525	505	164	472	38	0	
0	0	0	0	0	520	523	163	503	38	0	
1	0	0	0	0	511	541	163	542	38	0	
2	0	0	0	0	492	555	163	562	38	0	
3	0	0	0	0	486	565	163	564	38	0	
4	0	0	0	0	468	569	163	556	38	0	
5	0	0	0	0	457	564	163	540	38	0	
6	0	0	0	0	476	555	163	520	38	0	
7	0	0	0	0	481	540	163	504	38	0	
8	0	0	0	0	498	523	164	489	38	0	
9	0	0	0	0	507	507	164	475	38	0	
10	0	0	0	0	519	492	164	463	38	0	
11	0	0	0	0	536	483	164	455	38	0	
12	0	0	0	0	531	477	164	449	38	0	
13	0	0	0	0	555	479	164	445	38	0	
14	0	0	0	0	540	487	164	447	38	0	
15	0	0	0	0	539	502	164	459	38	0	
0	0	0	0	0	526	519	164	490	38	0	
1	0	0	0	0	521	536	164	516	38	0	
2	0	0	0	0	499	551	163	535	38	0	
3	0	0	0	0	483	564	164	546	38	0	
4	0	0	0	0	482	572	163	547	38	0	
5	0	0	0	0	468	575	163	540	38	0	
6	0	0	0	0	473	568	163	528	38	0	
7	0	0	0	0	476	557	164	513	38	0	
8	0	0	0	0	484	540	164	498	38	0	
9	0	0	0	0	493	522	164	483	38	0	
10	0	0	0	0	504	504	164	471	38	0	
11	0	0	0	0	519	491	164	461	38	0	
12	0	0	0	0	529	481	163	452	38	0	
13	0	0	0	0	553	479	163	447	38	0	
14	0	0	0	0	549	485	163	455	38	0	
15	0	0	0	0	546	496	163	472	38	0	
0	0	0	0	0	531	511	163	496	38	0	
1	0	0	0	0	527	529	163	524	38	0	
2	0	0	0	0	509	547	163	550	38	0	
3	0	0	0	0	496	561	163	573	38	0	
4	0	0	0	0	487	571	163	592	38	0	
5	0	0	0	0	486	576	163	594	38	0	
6	0	0	0	0	463	573	163	581	38	0	
7	0	0	0	0	468	563	163	560	38	0	
8	0	0	0	0	477	550	163	537	38	0	
9	0	0	0	0	493	533	164	515	38	0	
10	0	0	0	0	502	515	163	496	38	0	
11	0	0	0	0	519	499	163	480	38	0	
12	0	0	0	0	529	487	163	468	38	0	
13	0	0	0	0	524	480	163	460	38	0	
14	0	0	0	0	550	478	163	454	38	0	
15	0	0	0	0	553	484	163	451	38	0	
0	0	0	0	0	541	496	163	460	38	0	
1	0	0	0	0	529	513	163	496	38	0	
2	0	0	0	0	519	531	163	543	38	0	
3	0	0	0	0	505	549	163	597	38	0	
4	0	0	0	0	493	563	163	624	38	0	
5	0	0	0	0	492	572	163	628	38	0	
6	0	0	0	0	469	576	163	617	38	0	
7	0	0	0	0	462	570	163	596	38	0	
8	0	0	0	0	470	558	163	568	38	0	
9	0	0	0	0	476	543	164	542	38	0	
10	0	0	0	0	499	526	164	517	38	0	
11	0	0	0	0	500	508	164	497	38	0	
12	0	0	0	0	517	494	164	481	38	0	
13	0	0	0	0	535	484	164	470	38	0	
14	0	0	0	0	534	477	164	462	38	0	
15	0	0	0	0	557	477	164	457	38	0	
0	0	0	0	0	544	484	163	458	38	0	
1	0	0	0	0	544	497	163	471	38	0	
2	0	0	0	0	525	516	164	491	38	0	
3	0	0	0	0	508	536	164	513	38	0	
4	0	0	0	0	501	553	163	529	38	0	
5	0	0	0	0	491	566	163	543	38	0	
6	0	0	0	0	491	574	163	542	38	0	
7	0	0	0	0	464	575	163	533	38	0	
8	0	0	0	0	467	568	163	520	38	0	
9	0	0	0	0	484	555	164	504	38	0	
10	0	0	0	0	479	539	164	489	38	0	
11	0	0	0	0	497	520	164	475	38	0	
12	0	0	0	0	505	503	164	463	38	0	
13	0	0	0	0	514	490	164	456	38	0	
14	0	0	0	0	534	483	164	452	38	0	
15	0	0	0	0	544	479	164	448	38	0	
0	0	0	0	0	558	484	164	448	38	0	
1	0	0	0	0	543	495	164	457	38	0	
2	0	0	0	0	540	512	163	478	38	0	
3	0	0	0	0	522	529	163	501	38	0	
4	0	0	0	0	514	547	163	532	38	0	
5	0	0	0	0	501	562	163	565	38	0	
6	0	0	0	0	491	572	163	599	38	0	
7	0	0	0	0	485	579	163	609	38	0	
8	0	0	0	0	460	577	163	601	38	0	
9	0	0	0	0	472	568	163	577	38	0	
10	0	0	0	0	476	554	163	553	38	0	
11	0	0	0	0	485	537	163	528	38	0	
12	0	0	0	0	500	518	163	505	38	0	
13	0	0	0	0	521	500	163	485	38	0	
14	0	0	0	0	520	487	163	472	38	0	
15	0	0	0	0	528	479	164	462	38	0	
0	0	0	0	0	549	477	164	457	38	0	
1	0	0	0	0	549	484	164	454	38	0	
2	0	0	0	0	538	497	164	460	38	0	
3	0	0	0	0	534	514	164	475	38	0	
4	0	0	0	0	519	531	163	496	38	0	
5	0	0	0	0	509	547	163	542	38	0	
6	0	0	0	0	489	561	163	573	38	0	
7	0	0	0	0	497	570	163	583	38	0	
8	0	0	0	0	478	575	164	579	38	0	
9	0	0	0	0	457	569	164	565	38	0	
10	0	0	0	0	470	559	163	544	38	0	
11	0	0	0	0	478	543	163	526	38	0	
12	0	0	0	0	491	525	163	507	38	0	
13	0	0	0	0	504	508	163	490	38	0	
14	0	0	0	0	526	493	163	476	38	0	
15	0	0	0	0	529	484	164	464	38	0	
0	0	0	0	0	533	480	164	459	38	0	
1	0	0	0	0	558	483	164	456	38	0	
2	0	0	0	0	546	492	164	458	38	0	
3	0	0	0	0	533	507	164	467	38	0	
4	0	0	0	0	528	525	163	494	38	0	
5	0	0	0	0	519	543	163	519	38	0	
6	0	0	0	0	508	557	163	536	38	0	
7	0	0	0	0	490	567	163	553	38	0	
8	0	0	0	0	479	574	163	558	38	0	
9	0	0	0	0	472	574	163	550	38	0	
10	0	0	0	0	467	567	163	536	38	0	
11	0	0	0	0	475	555	163	519	38	0	
12	0	0	0	0	486	539	164	502	38	0	
13	0	0	0	0	500	520	164	487	38	0	
14	0	0	0	0	504	503	164	475	38	0	
15	0	0	0	0	525	488	164	464	38	0	
0	0	0	0	0	527	479	164	457	38	0	
1	0	0	0	0	542	475	164	452	38	0	
2	0	0	0	0	549	481	164	452	38	0	
3	0	0	0	0	540	492	164	461	38	0	
4	0	0	0	0	541	508	164	473	38	0	
5	0	0	0	0	529	525	164	496	38	0	
6	0	0	0	0	512	542	164	519	38	0	
7	0	0	0	0	496	555	163	536	38	0	
8	0	0	0	0	491	566	163	542	38	0	
9	0	0	0	0	483	572	163	542	38	0	
10	0	0	0	0	461	570	163	532	38	0	
11	0	0	0	0	468	560	163	519	38	0	
12	0	0	0	0	471	545	163	507	38	0	
13	0	0	0	0	490	528	163	491	38	0	
14	0	0	0	0	500	511	163	479	38	0	
15	0	0	0	0	521	496	163	468	38	0	
0	0	0	0	0	535	484	163	462	38	0	
1	0	0	0	0	526	476	163	453	38	0	
2	0	0	0	0	550	476	163	451	38	0	
3	0	0	0	0	545	485	163	453	38	0	
4	0	0	0	0	543	497	163	468	38	0	
5	0	0	0	0	529	514	163	486	38	0	
6	0	0	0	0	525	531	163	504	38	0	
7	0	0	0	0	512	548	163	529	38	0	
8	0	0	0	0	486	561	163	548	38	0	
9	0	0	0	0	489	570	162	555	38	0	
10	0	0	0	0	466	575	163	551	38	0	
11	0	0	0	0	465	571	163	541	38	0	
12	0	0	0	0	475	562	163	526	38	0	
13	0	0	0	0	479	547	163	516	38	0	
14	0	0	0	0	492	531	164	493	38	0	
15	0	0	0	0	505	513	164	480	38	0	
0	0	0	0	0	519	499	164	470	38	0	
1	0	0	0	0	534	489	164	461	38	0	
2	0	0	0	0	532	483	164	456	38	0	
3	0	0	0	0	551	484	164	456	38	0	
4	0	0	0	0	551	494	164	462	38	0	
5	0	0	0	0	546	508	164	470	38	0	
6	0	0	0	0	524	524	164	503	38	0	
7	0	0	0	0	517	543	164	536	38	0	
8	0	0	0	0	499	561	163	567	38	0	
9	0	0	0	0	489	573	164	583	38	0	
10	0	0	0	0	484	580	164	583	38	0	
11	0	0	0	0	465	579	163	570	38	0	
12	0	0	0	0	474	572	163	553	38	0	
13	0	0	0	0	476	560	163	535	38	0	
14	0	0	0	0	475	544	163	516	38	0	
15	0	0	0	0	497	527	164	500	38	0	
0	0	0	0	0	504	510	164	485	38	0	
1	0	0	0	0	527	495	164	476	38	0	
2	0	0	0	0	539	484	163	467	38	0	
3	0	0	0	0	545	479	163	463	38	0	
4	0	0	0	0	551	483	163	460	38	0	
5	0	0	0	0	538	494	163	481	38	0	
6	0	0	0	0	537	509	163	504	38	0	
7	0	0	0	0	523	527	163	530	38	0	
8	0	0	0	0	502	545	163	557	38	0	
9	0	0	0	0	492	560	163	575	38	0	
10	0	0	0	0	492	571	163	595	38	0	
11	0	0	0	0	491	577	163	598	38	0	
12	0	0	0	0	466	576	164	588	38	0	
13	0	0	0	0	471	568	163	567	38	0	
14	0	0	0	0	473	555	163	544	38	0	
15	0	0	0	0	490	540	163	522	38	0	
0	0	0	0	0	503	523	163	504	38	0	
1	0	0	0	0	516	507	163	486	38	0	
2	0	0	0	0	525	497	163	474	38	0	
3	0	0	0	0	530	490	163	466	38	0	
4	0	0	0	0	552	488	164	466	38	0	
5	0	0	0	0	545	496	164	460	38	0	
6	0	0	0	0	536	511	164	473	38	0	
7	0	0	0	0	530	528	163	514	38	0	
8	0	0	0	0	527	545	163	560	38	0	
9	0	0	0	0	507	562	163	602	38	0	
10	0	0	0	0	491	575	163	623	38	0	
11	0	0	0	0	482	584	163	623	38	0	
12	0	0	0	0	464	588	163	615	38	0	
13	0	0	0	0	468	583	163	596	38	0	
14	0	0	0	0	477	571	163	570	38	0	
15	0	0	0	0	475	556	163	543	38	0	
0	0	0	0	0	503	538	163	532	38	0	
1	0	0	0	0	508	521	164	500	38	0	
2	0	0	0	0	525	507	164	484	38	0	
3	0	0	0	0	536	496	164	472	38	0	
4	0	0	0	0	528	490	164	464	38	0	
5	0	0	0	0	556	492	164	460	38	0	
6	0	0	0	0	541	502	163	465	38	0	
7	0	0	0	0	540	516	163	478	38	0	
8	0	0	0	0	526	533	163	512	38	0	
9	0	0	0	0	514	550	163	538	38	0	
10	0	0	0	0	503	565	163	554	38	0	
11	0	0	0	0	494	575	163	565	38	0	
12	0	0	0	0	483	582	163	564	38	0	
13	0	0	0	0	467	582	163	555	38	0	
14	0	0	0	0	471	574	163	540	38	0	
15	0	0	0	0	475	563	163	522	38	0	
0	0	0	0	0	483	547	163	504	38	0	
1	0	0	0	0	497	529	164	487	38	0	
2	0	0	0	0	505	511	164	473	38	0	
3	0	0	0	0	522	497	164	463	38	0	
4	0	0	0	0	535	488	164	458	38	0	
5	0	0	0	0	551	484	164	464	38	0	
6	0	0	0	0	553	489	164	454	38	0	
7	0	0	0	0	539	499	164	466	38	0	
8	0	0	0	0	535	513	164	479	38	0	
9	0	0	0	0	524	530	163	500	38	0	
10	0	0	0	0	505	547	163	529	38	0	
11	0	0	0	0	502	560	163	556	38	0	
12	0	0	0	0	487	570	163	572	38	0	
13	0	0	0	0	481	576	163	575	38	0	
14	0	0	0	0	467	574	163	564	38	0	
15	0	0	0	0	473	565	163	544	38	0	
0	0	0	0	0	479	549	163	526	38	0	
1	0	0	0	0	490	530	163	507	38	0	
2	0	0	0	0	500	511	163	492	38	0	
3	0	0	0	0	519	495	163	477	38	0	
4	0	0	0	0	526	482	163	467	38	0	
5	0	0	0	0	527	475	163	460	38	0	
6	0	0	0	0	555	475	163	455	38	0	
7	0	0	0	0	547	481	163	455	38	0	
8	0	0	0	0	539	493	163	469	38	0	
9	0	0	0	0	532	510	163	496	38	0	
10	0	0	0	0	521	529	163	522	38	0	
11	0	0	0	0	511	545	163	561	38	0	
12	0	0	0	0	498	557	163	587	38	0	
13	0	0	0	0	490	566	163	588	38	0	
14	0	0	0	0	467	569	163	579	38	0	
15	0	0	0	0	465	564	163	563	38	0	
0	0	0	0	0	472	553	163	541	38	0	
1	0	0	0	0	476	538	163	521	38	0	
2	0	0	0	0	492	519	163	502	38	0	
3	0	0	0	0	504	500	163	485	38	0	
4	0	0	0	0	524	486	163	472	38	0	
5	0	0	0	0	527	476	163	462	38	0	
6	0	0	0	0	533	471	163	458	38	0	
7	0	0	0	0	548	474	163	455	38	0	
8	0	0	0	0	542	485	163	460	38	0	
9	0	0	0	0	545	498	163	476	38	0	
10	0	0	0	0	527	515	163	497	38	0	
11	0	0	0	0	518	533	163	517	38	0	
12	0	0	0	0	500	548	163	529	38	0	
13	0	0	0	0	483	560	163	543	38	0	
14	0	0	0	0	488	566	163	545	38	0	
15	0	0	0	0	470	567	163	539	38	0	
0	0	0	0	0	466	559	163	526	38	0	
1	0	0	0	0	481	546	163	512	38	0	
2	0	0	0	0	484	529	163	498	38	0	
3	0	0	0	0	495	511	163	484	38	0	
4	0	0	0	0	508	495	163	472	38	0	
5	0	0	0	0	523	481	163	464	38	0	
6	0	0	0	0	526	473	163	459	38	0	
7	0	0	0	0	548	469	164	455	38	0	
8	0	0	0	0	556	475	163	454	38	0	
9	0	0	0	0	547	485	163	459	38	0	
10	0	0	0	0	541	501	163	468	38	0	
11	0	0	0	0	520	519	164	501	38	0	
12	0	0	0	0	510	537	163	549	38	0	
13	0	0	0	0	503	552	163	583	38	0	
14	0	0	0	0	480	562	163	609	38	0	
15	0	0	0	0	474	568	163	616	38	0	
0	0	0	0	0	459	567	163	601	38	0	
1	0	0	0	0	474	558	164	578	38	0	
2	0	0	0	0	481	544	164	554	38	0	
3	0	0	0	0	485	527	164	531	38	0	
4	0	0	0	0	494	508	164	510	38	0	
5	0	0	0	0	516	491	164	491	38	0	
6	0	0	0	0	526	480	164	477	38	0	
7	0	0	0	0	532	473	164	467	38	0	
8	0	0	0	0	558	472	164	460	38	0	
9	0	0	0	0	545	481	164	459	38	0	
10	0	0	0	0	545	493	164	463	38	0	
11	0	0	0	0	533	510	164	483	38	0	
12	0	0	0	0	523	528	163	520	38	0	
13	0	0	0	0	504	547	163	565	38	0	
14	0	0	0	0	496	561	163	588	38	0	
15	0	0	0	0	480	571	163	586	38	0	
0	0	0	0	0	469	574	163	574	38	0	
1	0	0	0	0	466	568	163	555	38	0	
2	0	0	0	0	470	558	163	534	38	0	
3	0	0	0	0	485	542	163	515	38	0	
4	0	0	0	0	487	524	164	496	38	0	
5	0	0	0	0	508	507	164	480	38	0	
6	0	0	0	0	518	492	164	468	38	0	
7	0	0	0	0	527	483	164	461	38	0	
8	0	0	0	0	530	478	164	455	38	0	
9	0	0	0	0	551	481	164	453	38	0	
10	0	0	0	0	548	490	164	454	38	0	
11	0	0	0	0	539	504	164	478	38	0	
12	0	0	0	0	524	522	163	521	38	0	
13	0	0	0	0	519	542	163	566	38	0	
14	0	0	0	0	498	558	163	593	38	0	
15	0	0	0	0	486	569	163	600	38	0	
0	0	0	0	0	487	576	163	593	38	0	
1	0	0	0	0	465	577	163	576	38	0	
2	0	0	0	0	470	568	163	557	38	0	
3	0	0	0	0	472	554	163	536	38	0	
4	0	0	0	0	489	536	163	516	38	0	
5	0	0	0	0	495	518	163	496	38	0	
6	0	0	0	0	515	500	163	481	38	0	
7	0	0	0	0	527	487	164	467	38	0	
8	0	0	0	0	529	479	164	459	38	0	
9	0	0	0	0	544	476	164	454	38	0	
10	0	0	0	0	551	483	163	454	38	0	
11	0	0	0	0	543	494	163	467	38	0	
12	0	0	0	0	536	509	163	480	38	0	
13	0	0	0	0	527	526	163	499	38	0	
14	0	0	0	0	504	544	163	523	38	0	
15	0	0	0	0	490	558	163	542	38	0	
0	0	0	0	0	489	568	163	559	38	0	
1	0	0	0	0	481	574	163	568	38	0	
2	0	0	0	0	468	572	162	556	38	0	
3	0	0	0	0	475	562	163	542	38	0	
4	0	0	0	0	477	548	163	524	38	0	
5	0	0	0	0	487	531	163	507	38	0	
6	0	0	0	0	496	514	163	490	38	0	
7	0	0	0	0	518	498	163	476	38	0	
8	0	0	0	0	529	487	164	466	38	0	
9	0	0	0	0	539	480	164	460	38	0	
10	0	0	0	0	545	479	164	455	38	0	
11	0	0	0	0	546	487	164	455	38	0	
12	0	0	0	0	540	499	164	469	38	0	
13	0	0	0	0	537	516	164	491	38	0	
14	0	0	0	0	518	534	163	529	38	0	
15	0	0	0	0	510	551	163	579	38	0	
0	0	0	0	0	497	564	163	607	38	0	
1	0	0	0	0	481	573	163	608	38	0	
2	0	0	0	0	472	576	163	592	38	0	
3	0	0	0	0	466	570	163	571	38	0	
4	0	0	0	0	469	559	163	546	38	0	
5	0	0	0	0	480	544	163	524	38	0	
6	0	0	0	0	491	527	164	504	38	0	
7	0	0	0	0	506	508	164	487	38	0	
8	0	0	0	0	516	493	164	473	38	0	
9	0	0	0	0	533	484	164	463	38	0	
10	0	0	0	0	529	480	164	459	38	0	
11	0	0	0	0	557	483	164	452	38	0	
12	0	0	0	0	546	492	164	454	38	0	
13	0	0	0	0	535	505	164	461	38	0	
14	0	0	0	0	527	521	164	488	38	0	
15	0	0	0	0	521	539	163	523	38	0	
0	0	0	0	0	503	554	163	550	38	0	
1	0	0	0	0	494	566	163	563	38	0	
2	0	0	0	0	479	573	163	562	38	0	
3	0	0	0	0	470	574	163	550	38	0	
4	0	0	0	0	461	565	163	535	38	0	
5	0	0	0	0	475	552	164	518	38	0	
6	0	0	0	0	488	536	164	501	38	0	
7	0	0	0	0	493	520	164	485	38	0	
8	0	0	0	0	517	503	164	471	38	0	
9	0	0	0	0	515	489	164	461	38	0	
10	0	0	0	0	537	480	164	459	38	0	
11	0	0	0	0	550	476	163	451	38	0	
12	0	0	0	0	551	482	164	455	38	0	
13	0	0	0	0	541	494	164	467	38	0	
14	0	0	0	0	538	510	164	490	38	0	
15	0	0	0	0	527	527	163	511	38	0	
0	0	0	0	0	513	545	164	532	38	0	
1	0	0	0	0	492	559	163	552	38	0	
2	0	0	0	0	489	569	163	570	38	0	
3	0	0	0	0	486	574	163	574	38	0	
4	0	0	0	0	461	572	163	565	38	0	
5	0	0	0	0	472	561	163	548	38	0	
6	0	0	0	0	475	548	163	531	38	0	
7	0	0	0	0	487	531	163	512	38	0	
8	0	0	0	0	499	513	164	495	38	0	
9	0	0	0	0	518	497	163	480	38	0	
10	0	0	0	0	532	487	163	469	38	0	
11	0	0	0	0	531	480	163	461	38	0	
12	0	0	0	0	545	480	163	457	38	0	
13	0	0	0	0	537	489	163	458	38	0	
14	0	0	0	0	543	503	163	461	38	0	
15	0	0	0	0	529	520	163	482	38	0	
0	0	0	0	0	524	537	163	502	38	0	
1	0	0	0	0	507	555	163	534	38	0	
2	0	0	0	0	494	568	163	553	38	0	
3	0	0	0	0	490	576	163	554	38	0	
4	0	0	0	0	474	579	163	552	38	0	
5	0	0	0	0	472	573	163	535	38	0	
6	0	0	0	0	468	561	163	519	38	0	
7	0	0	0	0	474	546	163	503	38	0	
8	0	0	0	0	494	527	164	487	38	0	
9	0	0	0	0	504	508	164	473	38	0	
10	0	0	0	0	521	493	164	465	38	0	
11	0	0	0	0	528	483	164	459	38	0	
12	0	0	0	0	532	477	164	454	38	0	
13	0	0	0	0	556	479	164	454	38	0	
14	0	0	0	0	545	489	164	457	38	0	
15	0	0	0	0	543	503	164	468	38	0	
0	0	0	0	0	526	521	164	493	38	0	
1	0	0	0	0	516	539	164	516	38	0	
2	0	0	0	0	506	554	163	541	38	0	
3	0	0	0	0	487	566	163	557	38	0	
4	0	0	0	0	473	573	163	558	38	0	
5	0	0	0	0	463	574	163	551	38	0	
6	0	0	0	0	471	566	163	537	38	0	
7	0	0	0	0	481	553	163	522	38	0	
8	0	0	0	0	480	536	164	505	38	0	
9	0	0	0	0	491	518	164	492	38	0	
10	0	0	0	0	512	501	164	479	38	0	
11	0	0	0	0	520	487	164	470	38	0	
12	0	0	0	0	527	480	164	462	38	0	
13	0	0	0	0	552	477	164	458	38	0	
14	0	0	0	0	544	483	163	460	38	0	
15	0	0	0	0	545	495	163	481	38	0	
0	0	0	0	0	541	511	163	504	38	0	
1	0	0	0	0	529	529	163	539	38	0	
2	0	0	0	0	510	547	163	571	38	0	
3	0	0	0	0	493	562	163	588	38	0	
4	0	0	0	0	496	572	163	609	38	0	
5	0	0	0	0	481	578	163	612	38	0	
6	0	0	0	0	460	575	163	597	38	0	
7	0	0	0	0	475	566	163	573	38	0	
8	0	0	0	0	472	552	163	550	38	0	
9	0	0	0	0	489	535	164	526	38	0	
10	0	0	0	0	502	517	164	507	38	0	
11	0	0	0	0	521	500	164	490	38	0	
12	0	0	0	0	524	489	164	478	38	0	
13	0	0	0	0	535	482	164	469	38	0	
14	0	0	0	0	554	480	164	462	38	0	
15	0	0	0	0	544	487	164	460	38	0	
0	0	0	0	0	542	499	163	470	38	0	
1	0	0	0	0	534	516	163	503	38	0	
2	0	0	0	0	519	534	163	535	38	0	
3	0	0	0	0	505	551	163	561	38	0	
4	0	0	0	0	488	565	163	575	38	0	
5	0	0	0	0	489	574	163	574	38	0	
6	0	0	0	0	471	576	163	565	38	0	
7	0	0	0	0	470	571	163	550	38	0	
8	0	0	0	0	479	559	163	532	38	0	
9	0	0	0	0	476	543	163	512	38	0	
10	0	0	0	0	486	526	163	497	38	0	
11	0	0	0	0	507	508	163	482	38	0	
12	0	0	0	0	523	493	163	470	38	0	
13	0	0	0	0	527	484	163	461	38	0	
14	0	0	0	0	539	480	163	457	38	0	
15	0	0	0	0	557	483	163	455	38	0	
0	0	0	0	0	544	493	163	461	38	0	
1	0	0	0	0	544	508	164	479	38	0	
2	0	0	0	0	524	527	164	531	38	0	
3	0	0	0	0	521	545	164	577	38	0	
4	0	0	0	0	500	561	163	617	38	0	
5	0	0	0	0	487	571	163	639	38	0	
6	0	0	0	0	484	577	163	639	38	0	
7	0	0	0	0	470	577	163	620	38	0	
8	0	0	0	0	477	569	163	595	38	0	
9	0	0	0	0	475	556	163	566	38	0	
10	0	0	0	0	482	539	164	538	38	0	
11	0	0	0	0	491	519	164	513	38	0	
12	0	0	0	0	517	500	164	491	38	0	
13	0	0	0	0	523	486	164	475	38	0	
14	0	0	0	0	533	476	164	465	38	0	
15	0	0	0	0	544	471	164	459	38	0	
0	0	0	0	0	550	475	164	457	38	0	
1	0	0	0	0	542	486	164	467	38	0	
2	0	0	0	0	528	500	164	482	38	0	
3	0	0	0	0	519	518	163	503	38	0	
4	0	0	0	0	510	536	163	530	38	0	
5	0	0	0	0	492	550	163	543	38	0	
6	0	0	0	0	484	559	163	554	38	0	
7	0	0	0	0	480	563	163	556	38	0	
8	0	0	0	0	468	560	164	547	38	0	
9	0	0	0	0	479	551	164	532	38	0	
10	0	0	0	0	468	537	164	514	38	0	
11	0	0	0	0	492	519	164	497	38	0	
12	0	0	0	0	503	502	164	482	38	0	
13	0	0	0	0	516	487	164	472	38	0	
14	0	0	0	0	527	478	164	461	38	0	
15	0	0	0	0	537	472	164	455	38	0	
0	0	0	0	0	553	472	164	453	38	0	
1	0	0	0	0	545	480	164	454	38	0	
2	0	0	0	0	546	493	163	460	38	0	
3	0	0	0	0	529	510	163	470	38	0	
4	0	0	0	0	519	528	163	492	38	0	
5	0	0	0	0	512	546	163	539	38	0	
6	0	0	0	0	489	559	163	574	38	0	
7	0	0	0	0	484	566	163	598	38	0	
8	0	0	0	0	472	568	163	579	38	0	
9	0	0	0	0	468	561	163	563	38	0	
10	0	0	0	0	479	549	163	544	38	0	
11	0	0	0	0	481	532	163	524	38	0	
12	0	0	0	0	495	514	163	505	38	0	
13	0	0	0	0	511	495	164	489	38	0	
14	0	0	0	0	521	481	163	476	38	0	
15	0	0	0	0	529	471	164	470	38	0	
0	0	0	0	0	534	467	163	461	38	0	
1	0	0	0	0	554	469	163	460	38	0	
2	0	0	0	0	538	480	163	463	38	0	
3	0	0	0	0	544	495	163	475	38	0	
4	0	0	0	0	527	513	163	501	38	0	
5	0	0	0	0	515	530	163	526	38	0	
6	0	0	0	0	498	543	163	546	38	0	
7	0	0	0	0	489	554	163	554	38	0	
8	0	0	0	0	477	561	163	563	38	0	
9	0	0	0	0	465	561	164	542	38	0	
10	0	0	0	0	470	553	163	529	38	0	
11	0	0	0	0	481	540	163	513	38	0	
12	0	0	0	0	482	523	164	498	38	0	
13	0	0	0	0	494	505	164	484	38	0	
14	0	0	0	0	510	488	164	474	38	0	
15	0	0	0	0	526	475	164	463	38	0	
0	0	0	0	0	539	467	164	457	38	0	
1	0	0	0	0	548	463	164	453	38	0	
2	0	0	0	0	547	468	164	457	38	0	
3	0	0	0	0	537	478	164	474	38	0	
4	0	0	0	0	529	494	164	494	38	0	
5	0	0	0	0	526	512	163	518	38	0	
6	0	0	0	0	513	531	163	544	38	0	
7	0	0	0	0	492	545	163	565	38	0	
8	0	0	0	0	484	555	163	575	38	0	
9	0	0	0	0	485	560	163	572	38	0	
10	0	0	0	0	464	558	163	558	38	0	
11	0	0	0	0	472	550	163	539	38	0	
12	0	0	0	0	476	536	163	521	38	0	
13	0	0	0	0	486	518	163	503	38	0	
14	0	0	0	0	503	500	163	488	38	0	
15	0	0	0	0	514	484	163	474	38	0	
0	0	0	0	0	527	473	164	465	38	0	
1	0	0	0	0	531	466	164	458	38	0	
2	0	0	0	0	555	465	164	456	38	0	
3	0	0	0	0	546	472	164	459	38	0	
4	0	0	0	0	543	484	164	462	38	0	
5	0	0	0	0	537	501	164	478	38	0	
6	0	0	0	0	514	517	164	507	38	0	
7	0	0	0	0	508	534	164	548	38	0	
8	0	0	0	0	495	547	164	572	38	0	
9	0	0	0	0	479	557	163	575	38	0	
10	0	0	0	0	473	561	164	566	38	0	
11	0	0	0	0	464	556	163	550	38	0	
12	0	0	0	0	473	544	164	530	38	0	
13	0	0	0	0	486	527	164	512	38	0	
14	0	0	0	0	496	509	164	495	38	0	
15	0	0	0	0	503	491	164	482	38	0	
0	0	0	0	0	526	476	164	472	38	0	
1	0	0	0	0	527	465	164	463	38	0	
2	0	0	0	0	529	457	164	458	38	0	
3	0	0	0	0	561	460	164	456	38	0	
4	0	0	0	0	543	467	164	462	38	0	
5	0	0	0	0	540	480	164	475	38	0	
6	0	0	0	0	525	496	164	505	38	0	
7	0	0	0	0	513	513	163	533	38	0	
8	0	0	0	0	494	528	163	552	38	0	
9	0	0	0	0	494	538	163	560	38	0	
10	0	0	0	0	487	544	163	556	38	0	
11	0	0	0	0	468	544	163	544	38	0	
12	0	0	0	0	472	535	163	531	38	0	
13	0	0	0	0	471	522	163	516	38	0	
14	0	0	0	0	487	504	163	499	38	0	
15	0	0	0	0	499	487	163	490	38	0	
0	0	0	0	0	511	471	163	478	38	0	
1	0	0	0	0	522	457	164	469	38	0	
2	0	0	0	0	531	449	164	463	38	0	
3	0	0	0	0	547	446	164	459	38	0	
4	0	0	0	0	547	451	164	456	38	0	
5	0	0	0	0	543	462	163	462	38	0	
6	0	0	0	0	540	478	164	470	38	0	
7	0	0	0	0	526	495	164	492	38	0	
8	0	0	0	0	497	513	163	532	38	0	
9	0	0	0	0	496	527	163	566	38	0	
10	0	0	0	0	483	536	163	580	38	0	
11	0	0	0	0	481	540	163	577	38	0	
12	0	0	0	0	470	536	163	563	38	0	
13	0	0	0	0	474	527	163	546	38	0	
14	0	0	0	0	480	512	163	526	38	0	
15	0	0	0	0	492	495	163	509	38	0	
0	0	0	0	0	499	477	163	494	38	0	
1	0	0	0	0	515	460	163	483	38	0	
2	0	0	0	0	534	448	164	470	38	0	
3	0	0	0	0	529	441	164	463	38	0	
4	0	0	0	0	547	440	163	460	38	0	
5	0	0	0	0	544	446	163	460	38	0	
6	0	0	0	0	535	458	163	466	38	0	
7	0	0	0	0	534	475	163	484	38	0	
8	0	0	0	0	520	493	163	508	38	0	
9	0	0	0	0	503	510	163	532	38	0	
10	0	0	0	0	499	523	163	550	38	0	
11	0	0	0	0	484	532	163	550	38	0	
12	0	0	0	0	470	537	163	543	38	0	
13	0	0	0	0	466	532	164	533	38	0	
14	0	0	0	0	476	523	164	519	38	0	
15	0	0	0	0	478	506	164	506	38	0	
0	0	0	0	0	486	489	164	491	38	0	
1	0	0	0	0	513	471	164	478	38	0	
2	0	0	0	0	524	457	164	470	38	0	
3	0	0	0	0	531	448	164	464	38	0	
4	0	0	0	0	539	445	164	461	38	0	
5	0	0	0	0	557	448	164	464	38	0	
6	0	0	0	0	545	460	164	467	38	0	
7	0	0	0	0	539	476	164	484	38	0	
8	0	0	0	0	516	495	164	519	38	0	
9	0	0	0	0	516	513	163	545	38	0	
10	0	0	0	0	499	529	163	572	38	0	
11	0	0	0	0	492	542	163	588	38	0	
12	0	0	0	0	486	549	163	587	38	0	
13	0	0	0	0	464	551	164	575	38	0	
14	0	0	0	0	468	545	163	558	38	0	
15	0	0	0	0	480	535	164	538	38	0	
0	0	0	0	0	487	520	164	519	38	0	
1	0	0	0	0	501	504	164	503	38	0	
2	0	0	0	0	510	487	164	487	38	0	
3	0	0	0	0	524	476	164	475	38	0	
4	0	0	0	0	532	471	164	467	38	0	
5	0	0	0	0	545	471	164	464	38	0	
6	0	0	0	0	543	478	164	469	38	0	
7	0	0	0	0	539	492	164	484	38	0	
8	0	0	0	0	535	511	164	503	38	0	
9	0	0	0	0	529	531	164	531	38	0	
10	0	0	0	0	507	550	163	568	38	0	
11	0	0	0	0	497	565	163	596	38	0	
12	0	0	0	0	480	575	163	611	38	0	
13	0	0	0	0	482	582	163	610	38	0	
14	0	0	0	0	462	578	163	594	38	0	
15	0	0	0	0	476	566	163	572	38	0	
0	0	0	0	0	472	547	164	547	38	0	
1	0	0	0	0	495	527	164	525	38	0	
2	0	0	0	0	503	504	164	504	38	0	
3	0	0	0	0	515	482	164	488	38	0	
4	0	0	0	0	525	465	164	475	38	0	
5	0	0	0	0	530	452	164	467	38	0	
6	0	0	0	0	552	446	164	463	38	0	
7	0	0	0	0	545	447	164	463	38	0	
8	0	0	0	0	550	455	163	478	38	0	
9	0	0	0	0	528	467	163	505	38	0	
10	0	0	0	0	521	482	163	545	38	0	
11	0	0	0	0	507	496	163	590	38	0	
12	0	0	0	0	489	504	163	624	38	0	
13	0	0	0	0	488	509	163	608	38	0	
14	0	0	0	0	470	507	163	594	38	0	
15	0	0	0	0	462	495	163	574	38	0	
0	0	0	0	0	475	480	163	550	38	0	
1	0	0	0	0	480	461	163	526	38	0	
2	0	0	0	0	497	438	163	505	38	0	
3	0	0	0	0	505	417	164	487	38	0	
4	0	0	0	0	523	400	164	474	38	0	
5	0	0	0	0	535	389	164	464	38	0	
6	0	0	0	0	536	383	164	457	38	0	
7	0	0	0	0	559	384	164	455	38	0	
8	0	0	0	0	544	394	164	465	38	0	
9	0	0	0	0	544	408	164	480	38	0	
10	0	0	0	0	529	423	164	509	38	0	
11	0	0	0	0	518	440	164	512	38	0	
12	0	0	0	0	505	455	164	526	38	0	
13	0	0	0	0	485	468	164	535	38	0	
14	0	0	0	0	486	476	163	534	38	0	
15	0	0	0	0	462	480	164	527	38	0	
0	0	0	0	0	464	476	164	517	38	0	
1	0	0	0	0	469	468	164	503	38	0	
2	0	0	0	0	484	456	164	491	38	0	
3	0	0	0	0	503	443	164	478	38	0	
4	0	0	0	0	509	431	164	468	38	0	
5	0	0	0	0	522	423	164	462	38	0	
6	0	0	0	0	532	419	164	455	38	0	
7	0	0	0	0	547	420	164	454	38	0	
8	0	0	0	0	553	431	164	455	38	0	
9	0	0	0	0	540	448	164	471	38	0	
10	0	0	0	0	534	470	164	487	38	0	
11	0	0	0	0	528	491	164	515	38	0	
12	0	0	0	0	510	512	163	542	38	0	
13	0	0	0	0	495	529	163	560	38	0	
14	0	0	0	0	488	541	163	572	38	0	
15	0	0	0	0	484	550	163	572	38	0	
0	0	0	0	0	466	550	163	560	38	0	
1	0	0	0	0	477	543	164	543	38	0	
2	0	0	0	0	478	530	163	525	38	0	
3	0	0	0	0	487	513	164	508	38	0	
4	0	0	0	0	503	497	164	492	38	0	
5	0	0	0	0	516	482	164	479	38	0	
6	0	0	0	0	526	472	164	469	38	0	
7	0	0	0	0	525	464	164	463	38	0	
8	0	0	0	0	546	463	164	463	38	0	
9	0	0	0	0	540	471	163	462	38	0	
10	0	0	0	0	545	485	163	473	38	0	
11	0	0	0	0	530	503	163	489	38	0	
12	0	0	0	0	525	522	163	518	38	0	
13	0	0	0	0	504	540	163	570	38	0	
14	0	0	0	0	488	553	163	602	38	0	
15	0	0	0	0	487	561	163	608	38	0	
0	0	0	0	0	475	564	163	602	38	0	
1	0	0	0	0	462	559	163	583	38	0	
2	0	0	0	0	481	547	163	560	38	0	
3	0	0	0	0	479	531	163	536	38	0	
4	0	0	0	0	490	513	164	515	38	0	
5	0	0	0	0	500	496	164	495	38	0	
6	0	0	0	0	519	480	164	478	38	0	
7	0	0	0	0	527	471	164	468	38	0	
8	0	0	0	0	538	464	164	462	38	0	
9	0	0	0	0	549	467	164	459	38	0	
10	0	0	0	0	547	477	164	462	38	0	
11	0	0	0	0	544	491	163	477	38	0	
12	0	0	0	0	519	508	164	521	38	0	
13	0	0	0	0	507	527	164	555	38	0	
14	0	0	0	0	497	542	163	570	38	0	
15	0	0	0	0	485	552	163	583	38	0	
0	0	0	0	0	480	560	163	583	38	0	
1	0	0	0	0	467	560	163	572	38	0	
2	0	0	0	0	477	552	163	554	38	0	
3	0	0	0	0	478	539	163	533	38	0	
4	0	0	0	0	485	521	164	515	38	0	
5	0	0	0	0	497	503	164	498	38	0	
6	0	0	0	0	516	486	164	483	38	0	
7	0	0	0	0	523	473	163	474	38	0	
8	0	0	0	0	535	465	163	466	38	0	
9	0	0	0	0	540	463	164	460	38	0	
10	0	0	0	0	551	471	164	460	38	0	
11	0	0	0	0	548	483	164	487	38	0	
12	0	0	0	0	536	498	164	519	38	0	
13	0	0	0	0	518	514	163	543	38	0	
14	0	0	0	0	507	532	163	566	38	0	
15	0	0	0	0	499	547	163	583	38	0	
0	0	0	0	0	477	556	163	589	38	0	
1	0	0	0	0	482	561	163	583	38	0	
2	0	0	0	0	467	559	163	569	38	0	
3	0	0	0	0	480	550	163	547	38	0	
4	0	0	0	0	472	536	163	526	38	0	
5	0	0	0	0	489	519	163	506	38	0	
6	0	0	0	0	501	500	164	490	38	0	
7	0	0	0	0	522	484	164	476	38	0	
8	0	0	0	0	533	473	164	467	38	0	
9	0	0	0	0	535	467	164	461	38	0	
10	0	0	0	0	549	468	164	460	38	0	
11	0	0	0	0	546	475	164	460	38	0	
12	0	0	0	0	539	487	164	465	38	0	
13	0	0	0	0	524	504	163	477	38	0	
14	0	0	0	0	519	522	163	494	38	0	
15	0	0	0	0	500	539	163	516	38	0	
0	0	0	0	0	495	551	163	531	38	0	
1	0	0	0	0	489	558	163	537	38	0	
2	0	0	0	0	472	561	163	533	38	0	
3	0	0	0	0	465	556	163	522	38	0	
4	0	0	0	0	476	543	163	507	38	0	
5	0	0	0	0	478	527	163	493	38	0	
6	0	0	0	0	490	509	164	480	38	0	
7	0	0	0	0	507	493	164	471	38	0	
8	0	0	0	0	527	480	164	467	38	0	
9	0	0	0	0	534	470	164	459	38	0	
10	0	0	0	0	535	465	164	457	38	0	
11	0	0	0	0	558	468	163	456	38	0	
12	0	0	0	0	540	477	163	471	38	0	
13	0	0	0	0	540	491	163	489	38	0	
14	0	0	0	0	523	508	163	534	38	0	
15	0	0	0	0	513	526	163	577	38	0	
0	0	0	0	0	497	542	163	603	38	0	
1	0	0	0	0	490	553	163	609	38	0	
2	0	0	0	0	483	561	163	597	38	0	
3	0	0	0	0	465	563	163	578	38	0	
4	0	0	0	0	470	556	163	556	38	0	
5	0	0	0	0	472	544	163	535	38	0	
6	0	0	0	0	482	527	164	514	38	0	
7	0	0	0	0	498	509	164	497	38	0	
8	0	0	0	0	517	493	164	481	38	0	
9	0	0	0	0	527	481	164	470	38	0	
10	0	0	0	0	522	473	164	461	38	0	
11	0	0	0	0	544	472	164	456	38	0	
12	0	0	0	0	551	478	164	459	38	0	
13	0	0	0	0	540	490	164	472	38	0	
14	0	0	0	0	538	507	164	496	38	0	
15	0	0	0	0	520	525	163	525	38	0	
0	0	0	0	0	512	543	163	546	38	0	
1	0	0	0	0	497	559	163	563	38	0	
2	0	0	0	0	489	569	163	575	38	0	
3	0	0	0	0	485	575	163	576	38	0	
4	0	0	0	0	463	572	163	565	38	0	
5	0	0	0	0	477	562	164	547	38	0	
6	0	0	0	0	475	547	164	527	38	0	
7	0	0	0	0	493	529	164	513	38	0	
8	0	0	0	0	505	511	164	489	38	0	
9	0	0	0	0	523	494	164	476	38	0	
10	0	0	0	0	523	483	164	466	38	0	
11	0	0	0	0	526	477	164	458	38	0	
12	0	0	0	0	552	476	163	455	38	0	
13	0	0	0	0	543	484	163	457	38	0	
14	0	0	0	0	547	497	163	463	38	0	
15	0	0	0	0	528	515	163	487	38	0	
0	0	0	0	0	515	534	163	519	38	0	
1	0	0	0	0	506	552	163	551	38	0	
2	0	0	0	0	493	566	162	567	38	0	
3	0	0	0	0	486	575	162	569	38	0	
4	0	0	0	0	467	579	163	563	38	0	
5	0	0	0	0	469	572	163	550	38	0	
6	0	0	0	0	473	560	163	532	38	0	
7	0	0	0	0	481	545	163	513	38	0	
8	0	0	0	0	490	528	163	498	38	0	
9	0	0	0	0	508	512	164	483	38	0	
10	0	0	0	0	524	499	164	473	38	0	
11	0	0	0	0	531	489	164	462	38	0	
12	0	0	0	0	532	484	164	457	38	0	
13	0	0	0	0	551	488	164	455	38	0	
14	0	0	0	0	545	499	164	459	38	0	
15	0	0	0	0	543	515	163	471	38	0	
0	0	0	0	0	526	534	163	512	38	0	
1	0	0	0	0	515	552	163	547	38	0	
2	0	0	0	0	497	569	163	571	38	0	
3	0	0	0	0	489	582	163	583	38	0	
4	0	0	0	0	490	588	163	579	38	0	
5	0	0	0	0	465	588	163	568	38	0	
6	0	0	0	0	471	580	163	550	38	0	
7	0	0	0	0	477	568	163	531	38	0	
8	0	0	0	0	481	552	163	512	38	0	
9	0	0	0	0	490	535	163	496	38	0	
10	0	0	0	0	513	518	164	482	38	0	
11	0	0	0	0	527	505	164	471	38	0	
12	0	0	0	0	529	496	164	462	38	0	
13	0	0	0	0	548	495	164	458	38	0	
14	0	0	0	0	551	502	164	460	38	0	
15	0	0	0	0	537	514	164	481	38	0	
0	0	0	0	0	529	531	163	501	38	0	
1	0	0	0	0	531	547	163	529	38	0	
2	0	0	0	0	504	564	163	554	38	0	
3	0	0	0	0	496	577	163	575	38	0	
4	0	0	0	0	485	586	163	593	38	0	
5	0	0	0	0	484	592	163	591	38	0	
6	0	0	0	0	472	588	163	579	38	0	
7	0	0	0	0	476	579	163	560	38	0	
8	0	0	0	0	471	563	163	537	38	0	
9	0	0	0	0	495	545	163	515	38	0	
10	0	0	0	0	505	528	163	499	38	0	
11	0	0	0	0	513	513	163	484	38	0	
12	0	0	0	0	528	501	163	473	38	0	
13	0	0	0	0	527	495	163	463	38	0	
14	0	0	0	0	554	495	163	459	38	0	
15	0	0	0	0	547	504	163	460	38	0	
0	0	0	0	0	544	519	163	473	38	0	
1	0	0	0	0	527	536	163	499	38	0	
2	0	0	0	0	520	553	163	528	38	0	
3	0	0	0	0	502	570	163	581	38	0	
4	0	0	0	0	496	583	163	616	38	0	
5	0	0	0	0	486	592	163	622	38	0	
6	0	0	0	0	476	595	163	608	38	0	
7	0	0	0	0	466	589	163	585	38	0	
8	0	0	0	0	473	576	163	560	38	0	
9	0	0	0	0	480	558	163	532	38	0	
10	0	0	0	0	496	540	163	511	38	0	
11	0	0	0	0	501	521	163	493	38	0	
12	0	0	0	0	518	506	163	478	38	0	
13	0	0	0	0	534	496	164	469	38	0	
14	0	0	0	0	543	491	164	461	38	0	
15	0	0	0	0	560	495	164	459	38	0	
0	0	0	0	0	545	504	164	460	38	0	
1	0	0	0	0	539	520	164	476	38	0	
2	0	0	0	0	522	538	163	512	38	0	
3	0	0	0	0	512	556	163	569	38	0	
4	0	0	0	0	499	572	163	610	38	0	
5	0	0	0	0	486	583	163	628	38	0	
6	0	0	0	0	490	590	162	631	38	0	
7	0	0	0	0	468	589	162	617	38	0	
8	0	0	0	0	468	579	163	593	38	0	
9	0	0	0	0	471	566	163	566	38	0	
10	0	0	0	0	486	549	163	539	38	0	
11	0	0	0	0	494	531	163	514	38	0	
12	0	0	0	0	505	514	163	493	38	0	
13	0	0	0	0	534	501	163	475	38	0	
14	0	0	0	0	528	492	163	463	38	0	
15	0	0	0	0	545	488	163	455	38	0	
0	0	0	0	0	557	495	163	455	38	0	
1	0	0	0	0	542	505	164	463	38	0	
2	0	0	0	0	535	521	163	489	38	0	
3	0	0	0	0	520	537	163	519	38	0	
4	0	0	0	0	516	554	163	549	38	0	
5	0	0	0	0	496	568	163	572	38	0	
6	0	0	0	0	488	577	163	590	38	0	
7	0	0	0	0	479	583	163	596	38	0	
8	0	0	0	0	465	579	163	584	38	0	
9	0	0	0	0	471	568	163	575	38	0	
10	0	0	0	0	472	553	163	539	38	0	
11	0	0	0	0	481	535	164	516	38	0	
12	0	0	0	0	499	515	164	496	38	0	
13	0	0	0	0	517	497	164	480	38	0	
14	0	0	0	0	531	486	164	466	38	0	
15	0	0	0	0	531	479	164	459	38	0	
0	0	0	0	0	551	478	164	456	38	0	
1	0	0	0	0	549	486	164	456	38	0	
2	0	0	0	0	538	499	164	475	38	0	
3	0	0	0	0	527	518	163	501	38	0	
4	0	0	0	0	517	536	163	537	38	0	
5	0	0	0	0	504	552	163	578	38	0	
6	0	0	0	0	499	566	163	598	38	0	
7	0	0	0	0	486	575	163	597	38	0	
8	0	0	0	0	472	577	163	584	38	0	
9	0	0	0	0	467	570	163	564	38	0	
10	0	0	0	0	478	558	163	540	38	0	
11	0	0	0	0	480	540	163	515	38	0	
12	0	0	0	0	495	521	164	494	38	0	
13	0	0	0	0	501	502	164	477	38	0	
14	0	0	0	0	521	486	164	463	38	0	
15	0	0	0	0	532	476	164	452	38	0	
0	0	0	0	0	536	471	164	448	38	0	
1	0	0	0	0	556	474	164	452	38	0	
2	0	0	0	0	543	484	164	454	38	0	
3	0	0	0	0	542	500	164	475	38	0	
4	0	0	0	0	531	518	163	516	38	0	
5	0	0	0	0	507	536	163	563	38	0	
6	0	0	0	0	496	552	163	596	38	0	
7	0	0	0	0	484	563	163	613	38	0	
8	0	0	0	0	483	569	163	608	38	0	
9	0	0	0	0	465	568	163	588	38	0	
10	0	0	0	0	469	559	163	565	38	0	
11	0	0	0	0	474	545	163	540	38	0	
12	0	0	0	0	486	528	164	516	38	0	
13	0	0	0	0	500	510	163	496	38	0	
14	0	0	0	0	513	492	164	479	38	0	
15	0	0	0	0	525	479	164	465	38	0	
0	0	0	0	0	534	470	164	457	38	0	
1	0	0	0	0	546	467	164	450	38	0	
2	0	0	0	0	548	473	164	450	38	0	
3	0	0	0	0	549	486	163	463	38	0	
4	0	0	0	0	529	502	163	476	38	0	
5	0	0	0	0	522	519	163	502	38	0	
6	0	0	0	0	501	537	163	529	38	0	
7	0	0	0	0	497	551	163	547	38	0	
8	0	0	0	0	482	560	163	564	38	0	
9	0	0	0	0	479	567	163	567	38	0	
10	0	0	0	0	467	563	163	557	38	0	
11	0	0	0	0	476	555	163	540	38	0	
12	0	0	0	0	470	541	163	520	38	0	
13	0	0	0	0	488	524	163	500	38	0	
14	0	0	0	0	499	505	163	483	38	0	
15	0	0	0	0	520	488	164	469	38	0	
0	0	0	0	0	525	476	164	459	38	0	
1	0	0	0	0	534	471	163	460	38	0	
2	0	0	0	0	558	472	163	449	38	0	
3	0	0	0	0	547	481	163	451	38	0	
4	0	0	0	0	541	494	163	456	38	0	
5	0	0	0	0	529	511	163	465	38	0	
6	0	0	0	0	521	529	163	487	38	0	
7	0	0	0	0	504	545	163	527	38	0	
8	0	0	0	0	496	557	162	551	38	0	
9	0	0	0	0	485	566	162	554	38	0	
10	0	0	0	0	462	568	163	545	38	0	
11	0	0	0	0	472	561	163	533	38	0	
12	0	0	0	0	474	549	163	516	38	0	
13	0	0	0	0	477	533	163	500	38	0	
14	0	0	0	0	493	514	163	486	38	0	
15	0	0	0	0	507	497	163	472	38	0	
0	0	0	0	0	529	483	163	460	38	0	
1	0	0	0	0	527	474	164	453	38	0	
2	0	0	0	0	534	469	164	448	38	0	
3	0	0	0	0	559	473	164	447	38	0	
4	0	0	0	0	543	484	164	452	38	0	
5	0	0	0	0	537	498	163	470	38	0	
6	0	0	0	0	527	514	163	511	38	0	
7	0	0	0	0	512	533	163	542	38	0	
8	0	0	0	0	493	549	163	558	38	0	
9	0	0	0	0	494	560	163	562	38	0	
10	0	0	0	0	491	568	163	555	38	0	
11	0	0	0	0	468	569	163	539	38	0	
12	0	0	0	0	472	560	163	522	38	0	
13	0	0	0	0	476	545	163	506	38	0	
14	0	0	0	0	489	527	163	492	38	0	
15	0	0	0	0	494	509	164	476	38	0	
0	0	0	0	0	507	492	164	466	38	0	
1	0	0	0	0	525	479	164	454	38	0	
2	0	0	0	0	537	471	164	448	38	0	
3	0	0	0	0	548	469	164	445	38	0	
4	0	0	0	0	545	476	164	447	38	0	
5	0	0	0	0	542	490	164	459	38	0	
6	0	0	0	0	535	507	164	482	38	0	
7	0	0	0	0	523	526	164	510	38	0	
8	0	0	0	0	510	545	163	542	38	0	
9	0	0	0	0	500	559	163	568	38	0	
10	0	0	0	0	486	568	163	586	38	0	
11	0	0	0	0	487	573	163	587	38	0	
12	0	0	0	0	464	569	163	574	38	0	
13	0	0	0	0	478	559	163	555	38	0	
14	0	0	0	0	471	543	163	531	38	0	
15	0	0	0	0	484	525	163	509	38	0	
0	0	0	0	0	504	505	163	491	38	0	
1	0	0	0	0	515	489	164	476	38	0	
2	0	0	0	0	527	478	163	464	38	0	
3	0	0	0	0	531	471	163	455	38	0	
4	0	0	0	0	555	471	163	451	38	0	
5	0	0	0	0	542	478	163	454	38	0	
6	0	0	0	0	543	491	163	462	38	0	
7	0	0	0	0	529	508	163	478	38	0	
8	0	0	0	0	519	527	163	503	38	0	
9	0	0	0	0	504	543	163	530	38	0	
10	0	0	0	0	493	556	163	545	38	0	
11	0	0	0	0	487	563	163	550	38	0	
12	0	0	0	0	471	565	163	540	38	0	
13	0	0	0	0	475	558	162	527	38	0	
14	0	0	0	0	472	546	163	511	38	0	
15	0	0	0	0	476	529	163	496	38	0	
0	0	0	0	0	497	511	163	481	38	0	
1	0	0	0	0	506	493	164	471	38	0	
2	0	0	0	0	523	479	164	462	38	0	
3	0	0	0	0	535	470	164	456	38	0	
4	0	0	0	0	535	465	164	450	38	0	
5	0	0	0	0	551	470	164	450	38	0	
6	0	0	0	0	541	480	164	460	38	0	
7	0	0	0	0	539	496	163	474	38	0	
8	0	0	0	0	529	514	163	504	38	0	
9	0	0	0	0	512	532	164	532	38	0	
10	0	0	0	0	494	549	163	557	38	0	
11	0	0	0	0	486	560	163	566	38	0	
12	0	0	0	0	483	566	163	562	38	0	
13	0	0	0	0	468	565	163	550	38	0	
14	0	0	0	0	477	556	163	533	38	0	
15	0	0	0	0	476	542	163	514	38	0	
0	0	0	0	0	487	524	163	499	38	0	
1	0	0	0	0	492	505	164	487	38	0	
2	0	0	0	0	513	489	164	475	38	0	
3	0	0	0	0	527	476	164	465	38	0	
4	0	0	0	0	527	469	164	459	38	0	
5	0	0	0	0	549	466	164	454	38	0	
6	0	0	0	0	558	472	164	455	38	0	
7	0	0	0	0	543	483	164	476	38	0	
8	0	0	0	0	535	500	164	500	38	0	
9	0	0	0	0	523	519	163	528	38	0	
10	0	0	0	0	511	539	164	560	38	0	
11	0	0	0	0	488	554	163	583	38	0	
12	0	0	0	0	484	565	163	599	38	0	
13	0	0	0	0	471	570	163	601	38	0	
14	0	0	0	0	467	566	163	588	38	0	
15	0	0	0	0	479	556	163	566	38	0	
0	0	0	0	0	479	540	163	543	38	0	
1	0	0	0	0	487	523	164	521	38	0	
2	0	0	0	0	505	507	164	503	38	0	
3	0	0	0	0	524	491	164	487	38	0	
4	0	0	0	0	530	480	164	473	38	0	
5	0	0	0	0	529	474	164	463	38	0	
6	0	0	0	0	552	475	164	458	38	0	
7	0	0	0	0	546	483	164	458	38	0	
8	0	0	0	0	537	496	164	468	38	0	
9	0	0	0	0	527	513	164	491	38	0	
10	0	0	0	0	520	531	163	525	38	0	
11	0	0	0	0	503	549	163	577	38	0	
12	0	0	0	0	487	563	163	609	38	0	
13	0	0	0	0	481	572	163	615	38	0	
14	0	0	0	0	472	574	163	604	38	0	
15	0	0	0	0	465	568	163	583	38	0	
0	0	0	0	0	473	556	163	558	38	0	
1	0	0	0	0	482	540	163	533	38	0	
2	0	0	0	0	490	523	163	509	38	0	
3	0	0	0	0	508	505	164	487	38	0	
4	0	0	0	0	527	491	164	473	38	0	
5	0	0	0	0	532	481	164	462	38	0	
6	0	0	0	0	539	475	164	455	38	0	
7	0	0	0	0	554	478	164	455	38	0	
8	0	0	0	0	546	487	164	454	38	0	
9	0	0	0	0	539	501	164	470	38	0	
10	0	0	0	0	517	518	163	505	38	0	
11	0	0	0	0	508	536	163	536	38	0	
12	0	0	0	0	497	552	163	561	38	0	
13	0	0	0	0	492	564	163	575	38	0	
14	0	0	0	0	483	571	163	575	38	0	
15	0	0	0	0	462	570	163	563	38	0	
0	0	0	0	0	471	562	163	548	38	0	
1	0	0	0	0	480	550	164	527	38	0	
2	0	0	0	0	489	533	164	507	38	0	
3	0	0	0	0	494	514	164	490	38	0	
4	0	0	0	0	513	497	164	475	38	0	
5	0	0	0	0	523	484	164	464	38	0	
6	0	0	0	0	529	476	164	455	38	0	
7	0	0	0	0	544	476	164	451	38	0	
8	0	0	0	0	547	484	164	451	38	0	
9	0	0	0	0	544	496	164	466	38	0	
10	0	0	0	0	532	512	163	484	38	0	
11	0	0	0	0	529	530	163	514	38	0	
12	0	0	0	0	500	548	163	554	38	0	
13	0	0	0	0	490	563	163	580	38	0	
14	0	0	0	0	491	574	163	597	38	0	
15	0	0	0	0	481	578	163	599	38	0	
0	0	0	0	0	466	573	163	586	38	0	
1	0	0	0	0	477	561	163	564	38	0	
2	0	0	0	0	475	545	163	541	38	0	
3	0	0	0	0	491	527	163	516	38	0	
4	0	0	0	0	504	508	164	496	38	0	
5	0	0	0	0	523	492	164	479	38	0	
6	0	0	0	0	525	481	164	468	38	0	
7	0	0	0	0	530	474	164	460	38	0	
8	0	0	0	0	547	474	164	455	38	0	
9	0	0	0	0	545	484	164	455	38	0	
10	0	0	0	0	546	499	164	463	38	0	
11	0	0	0	0	531	516	163	498	38	0	
12	0	0	0	0	519	535	163	546	38	0	
13	0	0	0	0	501	551	163	590	38	0	
14	0	0	0	0	487	564	163	608	38	0	
15	0	0	0	0	486	572	163	604	38	0	
0	0	0	0	0	478	574	163	591	38	0	
1	0	0	0	0	473	567	163	570	38	0	
2	0	0	0	0	473	555	163	545	38	0	
3	0	0	0	0	483	537	163	522	38	0	
4	0	0	0	0	492	520	164	501	38	0	
5	0	0	0	0	505	503	164	483	38	0	
6	0	0	0	0	519	489	164	470	38	0	
7	0	0	0	0	529	479	164	460	38	0	
8	0	0	0	0	535	474	164	454	38	0	
9	0	0	0	0	557	479	164	451	38	0	
10	0	0	0	0	542	489	164	460	38	0	
11	0	0	0	0	540	503	164	479	38	0	
12	0	0	0	0	526	520	164	520	38	0	
13	0	0	0	0	512	538	163	558	38	0	
14	0	0	0	0	496	553	163	593	38	0	
15	0	0	0	0	486	564	163	616	38	0	
0	0	0	0	0	483	571	163	615	38	0	
1	0	0	0	0	463	571	163	600	38	0	
2	0	0	0	0	468	563	163	576	38	0	
3	0	0	0	0	476	551	163	550	38	0	
4	0	0	0	0	491	536	164	526	38	0	
5	0	0	0	0	504	518	164	503	38	0	
6	0	0	0	0	512	502	164	483	38	0	
7	0	0	0	0	522	489	164	468	38	0	
8	0	0	0	0	532	481	164	457	38	0	
9	0	0	0	0	548	479	164	451	38	0	
10	0	0	0	0	547	486	164	449	38	0	
11	0	0	0	0	547	497	164	467	38	0	
12	0	0	0	0	532	513	163	490	38	0	
13	0	0	0	0	523	531	163	517	38	0	
14	0	0	0	0	508	549	163	563	38	0	
15	0	0	0	0	492	562	163	570	38	0	
0	0	0	0	0	492	570	162	574	38	0	
1	0	0	0	0	476	574	162	564	38	0	
2	0	0	0	0	464	570	162	548	38	0	
3	0	0	0	0	480	560	163	526	38	0	
4	0	0	0	0	471	544	163	509	38	0	
5	0	0	0	0	492	527	163	491	38	0	
6	0	0	0	0	507	508	163	476	38	0	
7	0	0	0	0	518	492	163	467	38	0	
8	0	0	0	0	531	481	164	457	38	0	
9	0	0	0	0	535	475	164	451	38	0	
10	0	0	0	0	550	476	164	448	38	0	
11	0	0	0	0	548	484	164	450	38	0	
12	0	0	0	0	542	497	164	458	38	0	
13	0	0	0	0	531	514	164	472	38	0	
14	0	0	0	0	522	532	163	495	38	0	
15	0	0	0	0	502	548	163	545	38	0	
0	0	0	0	0	497	559	163	577	38	0	
1	0	0	0	0	484	566	163	583	38	0	
2	0	0	0	0	470	568	163	573	38	0	
3	0	0	0	0	461	561	163	555	38	0	
4	0	0	0	0	481	551	163	532	38	0	
5	0	0	0	0	480	534	164	511	38	0	
6	0	0	0	0	492	516	164	493	38	0	
7	0	0	0	0	505	499	164	478	38	0	
8	0	0	0	0	525	485	164	466	38	0	
9	0	0	0	0	529	474	164	458	38	0	
10	0	0	0	0	538	469	164	453	38	0	
11	0	0	0	0	556	474	164	451	38	0	
12	0	0	0	0	543	484	164	452	38	0	
13	0	0	0	0	537	500	163	460	38	0	
14	0	0	0	0	524	519	163	470	38	0	
15	0	0	0	0	513	535	163	487	38	0	
0	0	0	0	0	495	551	163	511	38	0	
1	0	0	0	0	489	560	163	531	38	0	
2	0	0	0	0	487	566	163	538	38	0	
3	0	0	0	0	465	565	163	531	38	0	
4	0	0	0	0	468	556	163	519	38	0	
5	0	0	0	0	476	542	163	505	38	0	
6	0	0	0	0	492	525	164	494	38	0	
7	0	0	0	0	500	505	164	477	38	0	
8	0	0	0	0	509	488	164	468	38	0	
9	0	0	0	0	525	475	164	461	38	0	
10	0	0	0	0	525	465	164	454	38	0	
11	0	0	0	0	547	462	164	450	38	0	
12	0	0	0	0	550	468	163	450	38	0	
13	0	0	0	0	542	479	163	456	38	0	
14	0	0	0	0	539	496	163	468	38	0	
15	0	0	0	0	524	514	163	492	38	0	
0	0	0	0	0	513	532	163	512	38	0	
1	0	0	0	0	494	545	162	530	38	0	
2	0	0	0	0	484	555	162	547	38	0	
3	0	0	0	0	470	559	163	553	38	0	
4	0	0	0	0	465	554	163	544	38	0	
5	0	0	0	0	472	543	163	530	38	0	
6	0	0	0	0	480	527	163	513	38	0	
7	0	0	0	0	486	508	163	498	38	0	
8	0	0	0	0	506	489	163	484	38	0	
9	0	0	0	0	518	472	163	472	38	0	
10	0	0	0	0	535	462	163	462	38	0	
11	0	0	0	0	532	455	163	456	38	0	
12	0	0	0	0	553	457	163	455	38	0	
13	0	0	0	0	543	467	163	457	38	0	
14	0	0	0	0	544	482	163	467	38	0	
15	0	0	0	0	530	499	163	488	38	0	
0	0	0	0	0	517	518	163	521	38	0	
1	0	0	0	0	502	535	163	568	38	0	
2	0	0	0	0	492	547	163	594	38	0	
3	0	0	0	0	480	554	163	596	38	0	
4	0	0	0	0	457	556	163	584	38	0	
5	0	0	0	0	476	548	163	568	38	0	
6	0	0	0	0	483	536	163	543	38	0	
7	0	0	0	0	481	519	163	521	38	0	
8	0	0	0	0	496	500	163	502	38	0	
9	0	0	0	0	510	481	164	487	38	0	
10	0	0	0	0	525	467	164	474	38	0	
11	0	0	0	0	535	459	164	465	38	0	
12	0	0	0	0	537	456	164	460	38	0	
13	0	0	0	0	552	462	163	458	38	0	
14	0	0	0	0	542	475	164	462	38	0	
15	0	0	0	0	532	492	163	487	38	0	
0	0	0	0	0	523	510	163	529	38	0	
1	0	0	0	0	514	528	163	565	38	0	
2	0	0	0	0	493	543	163	589	38	0	
3	0	0	0	0	489	555	163	592	38	0	
4	0	0	0	0	487	562	163	583	38	0	
5	0	0	0	0	467	561	163	568	38	0	
6	0	0	0	0	477	552	163	547	38	0	
7	0	0	0	0	472	538	163	528	38	0	
8	0	0	0	0	482	521	163	508	38	0	
9	0	0	0	0	494	504	164	491	38	0	
10	0	0	0	0	512	487	164	478	38	0	
11	0	0	0	0	526	475	164	469	38	0	
12	0	0	0	0	529	465	164	461	38	0	
13	0	0	0	0	541	462	164	458	38	0	
14	0	0	0	0	550	468	164	459	38	0	
15	0	0	0	0	545	480	164	472	38	0	
0	0	0	0	0	536	496	163	488	38	0	
1	0	0	0	0	524	515	163	508	38	0	
2	0	0	0	0	508	532	163	530	38	0	
3	0	0	0	0	486	547	163	545	38	0	
4	0	0	0	0	486	556	163	548	38	0	
5	0	0	0	0	472	561	163	546	38	0	
6	0	0	0	0	465	559	163	536	38	0	
7	0	0	0	0	478	548	163	521	38	0	
8	0	0	0	0	479	532	163	505	38	0	
9	0	0	0	0	490	515	164	492	38	0	
10	0	0	0	0	505	497	163	478	38	0	
11	0	0	0	0	528	482	164	467	38	0	
12	0	0	0	0	526	472	164	460	38	0	
13	0	0	0	0	525	465	164	454	38	0	
14	0	0	0	0	552	466	164	452	38	0	
15	0	0	0	0	549	475	164	453	38	0	
0	0	0	0	0	547	488	163	476	38	0	
1	0	0	0	0	530	505	163	501	38	0	
2	0	0	0	0	516	523	163	534	38	0	
3	0	0	0	0	504	538	163	582	38	0	
4	0	0	0	0	487	550	163	608	38	0	
5	0	0	0	0	482	557	163	620	38	0	
6	0	0	0	0	470	559	163	593	38	0	
7	0	0	0	0	476	552	163	573	38	0	
8	0	0	0	0	476	540	163	550	38	0	
9	0	0	0	0	480	524	163	528	38	0	
10	0	0	0	0	499	506	163	504	38	0	
11	0	0	0	0	503	489	164	487	38	0	
12	0	0	0	0	523	475	164	473	38	0	
13	0	0	0	0	530	465	164	464	38	0	
14	0	0	0	0	546	460	164	459	38	0	
15	0	0	0	0	551	464	164	457	38	0	
0	0	0	0	0	550	475	164	460	38	0	
1	0	0	0	0	539	491	163	465	38	0	
2	0	0	0	0	517	508	163	482	38	0	
3	0	0	0	0	510	525	163	503	38	0	
4	0	0	0	0	494	540	163	537	38	0	
5	0	0	0	0	481	551	163	573	38	0	
6	0	0	0	0	479	558	163	586	38	0	
7	0	0	0	0	468	557	163	578	38	0	
8	0	0	0	0	466	547	163	560	38	0	
9	0	0	0	0	473	534	163	540	38	0	
10	0	0	0	0	487	517	163	518	38	0	
11	0	0	0	0	497	499	163	500	38	0	
12	0	0	0	0	519	482	164	484	38	0	
13	0	0	0	0	526	469	164	473	38	0	
14	0	0	0	0	539	462	164	465	38	0	
15	0	0	0	0	547	460	163	462	38	0	
0	0	0	0	0	549	468	163	464	38	0	
1	0	0	0	0	541	479	163	478	38	0	
2	0	0	0	0	540	494	163	492	38	0	
3	0	0	0	0	529	511	163	507	38	0	
4	0	0	0	0	507	529	163	535	38	0	
5	0	0	0	0	487	542	163	559	38	0	
6	0	0	0	0	487	551	163	566	38	0	
7	0	0	0	0	476	555	163	563	38	0	
8	0	0	0	0	465	550	162	551	38	0	
9	0	0	0	0	470	539	163	534	38	0	
10	0	0	0	0	477	523	163	515	38	0	
11	0	0	0	0	489	505	163	498	38	0	
12	0	0	0	0	500	486	163	484	38	0	
13	0	0	0	0	519	472	163	476	38	0	
14	0	0	0	0	527	463	163	463	38	0	
15	0	0	0	0	534	458	163	457	38	0	
0	0	0	0	0	553	460	163	454	38	0	
1	0	0	0	0	547	470	163	458	38	0	
2	0	0	0	0	545	484	163	466	38	0	
3	0	0	0	0	536	501	163	485	38	0	
4	0	0	0	0	516	519	163	543	38	0	
5	0	0	0	0	497	537	163	622	38	0	
6	0	0	0	0	490	549	163	672	38	0	
7	0	0	0	0	485	555	163	679	38	0	
8	0	0	0	0	463	555	163	659	38	0	
9	0	0	0	0	465	548	163	627	38	0	
10	0	0	0	0	477	536	163	593	38	0	
11	0	0	0	0	486	518	163	558	38	0	
12	0	0	0	0	492	500	163	530	38	0	
13	0	0	0	0	502	483	163	506	38	0	
14	0	0	0	0	524	468	163	486	38	0	
15	0	0	0	0	531	459	163	472	38	0	
0	0	0	0	0	550	454	163	464	38	0	
1	0	0	0	0	551	459	163	460	38	0	
2	0	0	0	0	544	468	163	467	38	0	
3	0	0	0	0	537	483	163	482	38	0	
4	0	0	0	0	529	502	163	516	38	0	
5	0	0	0	0	510	520	163	543	38	0	
6	0	0	0	0	499	535	163	561	38	0	
7	0	0	0	0	489	545	163	576	38	0	
8	0	0	0	0	485	551	162	578	38	0	
9	0	0	0	0	459	551	163	567	38	0	
10	0	0	0	0	466	543	163	549	38	0	
11	0	0	0	0	478	529	163	527	38	0	
12	0	0	0	0	489	512	163	507	38	0	
13	0	0	0	0	499	494	163	489	38	0	
14	0	0	0	0	515	477	163	476	38	0	
15	0	0	0	0	527	465	163	466	38	0	
0	0	0	0	0	527	457	164	459	38	0	
1	0	0	0	0	552	456	164	454	38	0	
2	0	0	0	0	554	463	164	457	38	0	
3	0	0	0	0	541	476	164	478	38	0	
4	0	0	0	0	541	493	163	500	38	0	
5	0	0	0	0	525	510	163	528	38	0	
6	0	0	0	0	511	526	163	554	38	0	
7	0	0	0	0	491	539	162	572	38	0	
8	0	0	0	0	489	549	163	581	38	0	
9	0	0	0	0	475	553	163	580	38	0	
10	0	0	0	0	460	549	163	567	38	0	
11	0	0	0	0	476	540	163	546	38	0	
12	0	0	0	0	473	527	163	523	38	0	
13	0	0	0	0	487	511	163	502	38	0	
14	0	0	0	0	502	495	164	483	38	0	
15	0	0	0	0	514	479	164	469	38	0	
0	0	0	0	0	531	467	164	464	38	0	
1	0	0	0	0	535	459	164	450	38	0	
2	0	0	0	0	553	459	164	450	38	0	
3	0	0	0	0	542	467	164	454	38	0	
4	0	0	0	0	544	480	163	460	38	0	
5	0	0	0	0	530	497	163	476	38	0	
6	0	0	0	0	508	515	163	530	38	0	
7	0	0	0	0	504	532	163	578	38	0	
8	0	0	0	0	486	545	163	600	38	0	
9	0	0	0	0	484	553	163	599	38	0	
10	0	0	0	0	469	555	163	583	38	0	
11	0	0	0	0	464	547	163	562	38	0	
12	0	0	0	0	475	534	163	539	38	0	
13	0	0	0	0	479	519	163	516	38	0	
14	0	0	0	0	499	503	164	496	38	0	
15	0	0	0	0	507	485	164	482	38	0	
0	0	0	0	0	529	471	164	469	38	0	
1	0	0	0	0	531	462	164	458	38	0	
2	0	0	0	0	540	457	164	452	38	0	
3	0	0	0	0	561	462	163	449	38	0	
4	0	0	0	0	536	473	164	458	38	0	
5	0	0	0	0	536	489	164	479	38	0	
6	0	0	0	0	524	506	163	520	38	0	
7	0	0	0	0	511	524	163	554	38	0	
8	0	0	0	0	502	540	163	580	38	0	
9	0	0	0	0	485	551	163	589	38	0	
10	0	0	0	0	487	558	163	582	38	0	
11	0	0	0	0	461	556	163	567	38	0	
12	0	0	0	0	475	547	163	547	38	0	
13	0	0	0	0	476	533	163	527	38	0	
14	0	0	0	0	488	515	164	506	38	0	
15	0	0	0	0	492	497	164	490	38	0	
0	0	0	0	0	508	483	164	475	38	0	
1	0	0	0	0	529	472	164	463	38	0	
2	0	0	0	0	535	465	164	455	38	0	
3	0	0	0	0	553	464	164	449	38	0	
4	0	0	0	0	544	471	164	449	38	0	
5	0	0	0	0	542	483	163	463	38	0	
6	0	0	0	0	532	499	163	480	38	0	
7	0	0	0	0	521	517	163	519	38	0	
8	0	0	0	0	508	536	163	550	38	0	
9	0	0	0	0	496	548	162	578	38	0	
10	0	0	0	0	485	557	162	599	38	0	
11	0	0	0	0	471	562	162	600	38	0	
12	0	0	0	0	471	558	163	586	38	0	
13	0	0	0	0	477	548	163	564	38	0	
14	0	0	0	0	468	535	163	540	38	0	
15	0	0	0	0	492	519	163	516	38	0	
0	0	0	0	0	511	502	163	499	38	0	
1	0	0	0	0	516	488	163	481	38	0	
2	0	0	0	0	532	479	163	470	38	0	
3	0	0	0	0	534	472	163	460	38	0	
4	0	0	0	0	559	474	164	457	38	0	
5	0	0	0	0	543	484	164	457	38	0	
6	0	0	0	0	543	498	163	464	38	0	
7	0	0	0	0	518	516	163	482	38	0	
8	0	0	0	0	515	536	162	517	38	0	
9	0	0	0	0	508	552	163	562	38	0	
10	0	0	0	0	488	566	163	584	38	0	
11	0	0	0	0	483	572	163	585	38	0	
12	0	0	0	0	467	574	163	576	38	0	
13	0	0	0	0	469	566	163	560	38	0	
14	0	0	0	0	482	553	163	540	38	0	
15	0	0	0	0	480	537	163	516	38	0	
0	0	0	0	0	492	519	163	497	38	0	
1	0	0	0	0	510	502	164	481	38	0	
2	0	0	0	0	525	487	164	469	38	0	
3	0	0	0	0	529	479	164	460	38	0	
4	0	0	0	0	542	476	164	453	38	0	
5	0	0	0	0	556	481	164	451	38	0	
6	0	0	0	0	544	493	164	455	38	0	
7	0	0	0	0	540	508	163	468	38	0	
8	0	0	0	0	522	525	163	503	38	0	
9	0	0	0	0	514	542	163	529	38	0	
10	0	0	0	0	502	557	163	540	38	0	
11	0	0	0	0	489	568	163	540	38	0	
12	0	0	0	0	481	574	163	533	38	0	
13	0	0	0	0	463	574	163	524	38	0	
14	0	0	0	0	469	565	163	508	38	0	
15	0	0	0	0	476	551	163	495	38	0	
0	0	0	0	0	487	533	163	481	38	0	
1	0	0	0	0	496	513	163	470	38	0	
2	0	0	0	0	511	496	164	460	38	0	
3	0	0	0	0	523	482	164	453	38	0	
4	0	0	0	0	527	473	164	449	38	0	
5	0	0	0	0	553	470	164	447	38	0	
6	0	0	0	0	550	478	164	451	38	0	
7	0	0	0	0	546	491	164	480	38	0	
8	0	0	0	0	535	508	164	513	38	0	
9	0	0	0	0	527	525	163	550	38	0	
10	0	0	0	0	505	542	163	594	38	0	
11	0	0	0	0	488	555	163	624	38	0	
12	0	0	0	0	481	563	163	632	38	0	
13	0	0	0	0	473	565	163	620	38	0	
14	0	0	0	0	465	560	163	596	38	0	
15	0	0	0	0	484	550	163	570	38	0	
0	0	0	0	0	475	533	163	543	38	0	
1	0	0	0	0	490	514	163	517	38	0	
2	0	0	0	0	504	495	163	496	38	0	
3	0	0	0	0	526	479	164	477	38	0	
4	0	0	0	0	531	468	163	464	38	0	
5	0	0	0	0	529	463	163	456	38	0	
6	0	0	0	0	551	465	163	454	38	0	
7	0	0	0	0	540	475	163	455	38	0	
8	0	0	0	0	542	490	163	467	38	0	
9	0	0	0	0	532	508	163	484	38	0	
10	0	0	0	0	522	527	163	516	38	0	
11	0	0	0	0	497	542	163	556	38	0	
12	0	0	0	0	487	554	162	579	38	0	
13	0	0	0	0	481	561	162	578	38	0	
14	0	0	0	0	467	563	163	563	38	0	
15	0	0	0	0	467	556	162	545	38	0	
0	0	0	0	0	478	542	163	525	38	0	
1	0	0	0	0	480	526	163	505	38	0	
2	0	0	0	0	494	508	163	497	38	0	
3	0	0	0	0	504	491	163	473	38	0	
4	0	0	0	0	525	478	163	462	38	0	
5	0	0	0	0	529	470	163	455	38	0	
6	0	0	0	0	550	466	163	451	38	0	
7	0	0	0	0	559	470	163	463	38	0	
8	0	0	0	0	545	481	163	455	38	0	
9	0	0	0	0	536	497	163	471	38	0	
10	0	0	0	0	521	514	163	516	38	0	
11	0	0	0	0	505	531	163	557	38	0	
12	0	0	0	0	501	547	163	579	38	0	
13	0	0	0	0	488	558	163	582	38	0	
14	0	0	0	0	485	565	163	572	38	0	
15	0	0	0	0	459	563	163	555	38	0	
0	0	0	0	0	472	555	163	536	38	0	
1	0	0	0	0	475	541	163	518	38	0	
2	0	0	0	0	491	524	163	500	38	0	
3	0	0	0	0	503	507	163	484	38	0	
4	0	0	0	0	509	491	164	472	38	0	
5	0	0	0	0	523	479	164	464	38	0	
6	0	0	0	0	529	472	164	457	38	0	
7	0	0	0	0	550	470	164	454	38	0	
8	0	0	0	0	553	477	163	453	38	0	
9	0	0	0	0	544	491	163	465	38	0	
10	0	0	0	0	531	508	163	484	38	0	
11	0	0	0	0	525	527	163	511	38	0	
12	0	0	0	0	508	545	162	535	38	0	
13	0	0	0	0	498	557	162	554	38	0	
14	0	0	0	0	483	565	162	568	38	0	
15	0	0	0	0	472	569	162	568	38	0	
0	0	0	0	0	465	565	162	556	38	0	
1	0	0	0	0	476	553	162	537	38	0	
2	0	0	0	0	480	537	163	516	38	0	
3	0	0	0	0	492	519	163	499	38	0	
4	0	0	0	0	504	502	163	483	38	0	
5	0	0	0	0	519	487	163	472	38	0	
6	0	0	0	0	527	477	163	463	38	0	
7	0	0	0	0	533	471	163	457	38	0	
8	0	0	0	0	547	473	163	454	38	0	
9	0	0	0	0	545	482	163	455	38	0	
10	0	0	0	0	544	495	163	468	38	0	
11	0	0	0	0	530	513	163	500	38	0	
12	0	0	0	0	521	531	163	548	38	0	
13	0	0	0	0	504	548	163	574	38	0	
14	0	0	0	0	494	561	163	591	38	0	
15	0	0	0	0	478	568	163	590	38	0	
0	0	0	0	0	470	569	163	578	38	0	
1	0	0	0	0	467	563	163	556	38	0	
2	0	0	0	0	480	551	163	535	38	0	
3	0	0	0	0	478	535	163	515	38	0	
4	0	0	0	0	493	517	163	497	38	0	
5	0	0	0	0	515	501	164	484	38	0	
6	0	0	0	0	521	488	163	470	38	0	
7	0	0	0	0	527	481	164	461	38	0	
8	0	0	0	0	543	477	164	455	38	0	
9	0	0	0	0	552	482	164	453	38	0	
10	0	0	0	0	545	494	164	463	38	0	
11	0	0	0	0	541	509	163	488	38	0	
12	0	0	0	0	524	526	163	530	38	0	
13	0	0	0	0	514	544	163	564	38	0	
14	0	0	0	0	495	561	162	589	38	0	
15	0	0	0	0	481	572	162	596	38	0	
0	0	0	0	0	487	576	162	591	38	0	
1	0	0	0	0	464	573	162	573	38	0	
2	0	0	0	0	479	563	162	557	38	0	
3	0	0	0	0	469	550	163	530	38	0	
4	0	0	0	0	486	534	163	509	38	0	
5	0	0	0	0	498	515	163	492	38	0	
6	0	0	0	0	516	497	163	490	38	0	
7	0	0	0	0	532	485	164	466	38	0	
8	0	0	0	0	534	478	164	458	38	0	
9	0	0	0	0	539	478	164	453	38	0	
10	0	0	0	0	552	487	164	455	38	0	
11	0	0	0	0	539	499	164	478	38	0	
12	0	0	0	0	540	517	164	503	38	0	
13	0	0	0	0	520	536	163	532	38	0	
14	0	0	0	0	500	554	163	568	38	0	
15	0	0	0	0	489	568	163	588	38	0	
0	0	0	0	0	487	578	163	591	38	0	
1	0	0	0	0	478	582	162	583	38	0	
2	0	0	0	0	466	576	162	567	38	0	
3	0	0	0	0	479	566	162	543	38	0	
4	0	0	0	0	472	550	163	522	38	0	
5	0	0	0	0	485	532	163	503	38	0	
6	0	0	0	0	503	514	163	487	38	0	
7	0	0	0	0	521	499	163	471	38	0	
8	0	0	0	0	528	488	163	461	38	0	
9	0	0	0	0	533	481	163	454	38	0	
10	0	0	0	0	556	482	163	452	38	0	
11	0	0	0	0	547	490	163	465	38	0	
12	0	0	0	0	546	503	163	461	38	0	
13	0	0	0	0	526	520	163	489	38	0	
14	0	0	0	0	515	538	163	520	38	0	
15	0	0	0	0	498	555	163	565	38	0	
0	0	0	0	0	483	569	163	590	38	0	
1	0	0	0	0	487	578	163	592	38	0	
2	0	0	0	0	471	580	163	580	38	0	
3	0	0	0	0	470	574	163	561	38	0	
4	0	0	0	0	478	563	163	537	38	0	
5	0	0	0	0	486	548	163	516	38	0	
6	0	0	0	0	498	530	163	499	38	0	
7	0	0	0	0	502	512	163	478	38	0	
8	0	0	0	0	527	499	163	465	38	0	
9	0	0	0	0	534	491	163	456	38	0	
10	0	0	0	0	542	488	164	451	38	0	
11	0	0	0	0	547	493	164	449	38	0	
12	0	0	0	0	541	504	163	457	38	0	
13	0	0	0	0	538	520	163	476	38	0	
14	0	0	0	0	528	537	163	505	38	0	
15	0	0	0	0	510	555	163	533	38	0	
0	0	0	0	0	491	569	163	546	38	0	
1	0	0	0	0	484	579	163	552	38	0	
2	0	0	0	0	483	585	163	548	38	0	
3	0	0	0	0	464	583	163	536	38	0	
4	0	0	0	0	470	575	163	520	38	0	
5	0	0	0	0	475	560	163	505	38	0	
6	0	0	0	0	487	544	163	491	38	0	
7	0	0	0	0	505	526	163	479	38	0	
8	0	0	0	0	515	510	163	468	38	0	
9	0	0	0	0	527	499	163	459	38	0	
10	0	0	0	0	536	495	163	454	38	0	
11	0	0	0	0	552	495	163	449	38	0	
12	0	0	0	0	550	503	163	451	38	0	
13	0	0	0	0	546	515	163	470	38	0	
14	0	0	0	0	529	531	163	492	38	0	
15	0	0	0	0	524	548	163	528	38	0	
0	0	0	0	0	506	566	163	566	38	0	
1	0	0	0	0	492	581	163	585	38	0	
2	0	0	0	0	490	592	163	592	38	0	
3	0	0	0	0	464	597	163	584	38	0	
4	0	0	0	0	466	593	163	568	38	0	
5	0	0	0	0	475	585	163	547	38	0	
6	0	0	0	0	483	571	163	525	38	0	
7	0	0	0	0	496	556	163	508	38	0	
8	0	0	0	0	501	541	163	487	38	0	
9	0	0	0	0	521	527	163	472	38	0	
10	0	0	0	0	536	518	163	462	38	0	
11	0	0	0	0	531	513	163	457	38	0	
12	0	0	0	0	557	517	163	455	38	0	
13	0	0	0	0	546	528	163	457	38	0	
14	0	0	0	0	542	543	163	471	38	0	
15	0	0	0	0	524	562	163	487	38	0	
0	0	0	0	0	514	581	163	521	38	0	
1	0	0	0	0	504	598	163	560	38	0	
2	0	0	0	0	494	607	163	581	38	0	
3	0	0	0	0	482	610	163	584	38	0	
4	0	0	0	0	461	606	163	572	38	0	
5	0	0	0	0	463	593	163	554	38	0	
6	0	0	0	0	478	574	163	535	38	0	
7	0	0	0	0	485	553	163	514	38	0	
8	0	0	0	0	496	529	163	495	38	0	
9	0	0	0	0	511	507	164	479	38	0	
10	0	0	0	0	525	487	163	466	38	0	
11	0	0	0	0	534	473	164	458	38	0	
12	0	0	0	0	539	463	164	463	38	0	
13	0	0	0	0	551	463	164	452	38	0	
14	0	0	0	0	539	472	163	463	38	0	
15	0	0	0	0	540	483	163	479	38	0	
0	0	0	0	0	524	494	163	505	38	0	
1	0	0	0	0	509	505	163	529	38	0	
2	0	0	0	0	497	515	163	544	38	0	
3	0	0	0	0	495	521	163	552	38	0	
4	0	0	0	0	483	523	163	551	38	0	
5	0	0	0	0	458	517	163	541	38	0	
6	0	0	0	0	472	504	163	525	38	0	
7	0	0	0	0	480	487	163	507	38	0	
8	0	0	0	0	484	468	164	492	38	0	
9	0	0	0	0	503	448	164	478	38	0	
10	0	0	0	0	513	429	164	467	38	0	
11	0	0	0	0	532	415	164	459	38	0	
12	0	0	0	0	532	405	164	453	38	0	
13	0	0	0	0	547	400	164	450	38	0	
14	0	0	0	0	547	404	164	452	38	0	
15	0	0	0	0	536	414	164	476	38	0	
0	0	0	0	0	530	432	164	504	38	0	
1	0	0	0	0	523	451	163	528	38	0	
2	0	0	0	0	512	472	163	557	38	0	
3	0	0	0	0	495	489	163	580	38	0	
4	0	0	0	0	484	504	163	585	38	0	
5	0	0	0	0	478	514	163	588	38	0	
6	0	0	0	0	469	514	163	560	38	0	
7	0	0	0	0	480	509	163	540	38	0	
8	0	0	0	0	481	499	163	519	38	0	
9	0	0	0	0	490	485	163	500	38	0	
10	0	0	0	0	505	472	163	486	38	0	
11	0	0	0	0	526	463	163	472	38	0	
12	0	0	0	0	523	456	163	462	38	0	
13	0	0	0	0	533	453	163	455	38	0	
14	0	0	0	0	555	458	163	452	38	0	
15	0	0	0	0	545	471	163	462	38	0	
0	0	0	0	0	545	487	163	461	38	0	
1	0	0	0	0	526	506	163	492	38	0	
2	0	0	0	0	510	527	163	527	38	0	
3	0	0	0	0	498	548	163	556	38	0	
4	0	0	0	0	488	562	163	572	38	0	
5	0	0	0	0	483	569	163	566	38	0	
6	0	0	0	0	468	571	163	556	38	0	
7	0	0	0	0	471	566	163	541	38	0	
8	0	0	0	0	477	556	163	524	38	0	
9	0	0	0	0	485	539	163	505	38	0	
10	0	0	0	0	494	521	163	491	38	0	
11	0	0	0	0	507	504	164	478	38	0	
12	0	0	0	0	532	491	163	467	38	0	
13	0	0	0	0	533	483	163	460	38	0	
14	0	0	0	0	548	479	163	456	38	0	
15	0	0	0	0	545	483	163	457	38	0	
0	0	0	0	0	549	495	163	462	38	0	
1	0	0	0	0	540	512	163	491	38	0	
2	0	0	0	0	525	531	163	539	38	0	
3	0	0	0	0	503	551	163	572	38	0	
4	0	0	0	0	493	567	163	586	38	0	
5	0	0	0	0	486	579	163	585	38	0	
6	0	0	0	0	476	586	163	575	38	0	
7	0	0	0	0	467	584	163	559	38	0	
8	0	0	0	0	472	574	163	540	38	0	
9	0	0	0	0	472	560	163	521	38	0	
10	0	0	0	0	486	543	163	504	38	0	
11	0	0	0	0	502	526	163	489	38	0	
12	0	0	0	0	517	510	163	475	38	0	
13	0	0	0	0	525	499	163	466	38	0	
14	0	0	0	0	535	492	163	460	38	0	
15	0	0	0	0	557	491	163	456	38	0	
0	0	0	0	0	544	499	163	457	38	0	
1	0	0	0	0	543	512	163	467	38	0	
2	0	0	0	0	530	529	163	491	38	0	
3	0	0	0	0	526	546	163	513	38	0	
4	0	0	0	0	507	563	163	539	38	0	
5	0	0	0	0	493	575	163	552	38	0	
6	0	0	0	0	490	583	162	564	38	0	
7	0	0	0	0	476	587	162	566	38	0	
8	0	0	0	0	466	582	162	554	38	0	
9	0	0	0	0	468	571	163	537	38	0	
10	0	0	0	0	473	555	163	518	38	0	
11	0	0	0	0	494	536	163	500	38	0	
12	0	0	0	0	498	518	163	496	38	0	
13	0	0	0	0	529	504	163	474	38	0	
14	0	0	0	0	533	493	163	465	38	0	
15	0	0	0	0	536	487	163	459	38	0	
0	0	0	0	0	556	489	163	457	38	0	
1	0	0	0	0	543	498	163	472	38	0	
2	0	0	0	0	541	513	163	474	38	0	
3	0	0	0	0	527	530	163	494	38	0	
4	0	0	0	0	520	547	163	512	38	0	
5	0	0	0	0	499	563	163	528	38	0	
6	0	0	0	0	488	575	163	534	38	0	
7	0	0	0	0	480	581	163	532	38	0	
8	0	0	0	0	473	581	163	526	38	0	
9	0	0	0	0	471	574	163	515	38	0	
10	0	0	0	0	472	560	163	503	38	0	
11	0	0	0	0	489	542	163	491	38	0	
12	0	0	0	0	499	523	163	480	38	0	
13	0	0	0	0	507	504	163	469	38	0	
14	0	0	0	0	518	491	163	463	38	0	
15	0	0	0	0	530	481	163	461	38	0	
0	0	0	0	0	545	477	163	460	38	0	
1	0	0	0	0	551	483	163	463	38	0	
2	0	0	0	0	539	495	163	466	38	0	
3	0	0	0	0	543	511	163	484	38	0	
4	0	0	0	0	522	528	163	540	38	0	
5	0	0	0	0	515	545	163	594	38	0	
6	0	0	0	0	493	559	163	612	38	0	
7	0	0	0	0	484	568	163	620	38	0	
8	0	0	0	0	484	574	163	608	38	0	
9	0	0	0	0	453	572	163	587	38	0	
10	0	0	0	0	467	564	163	563	38	0	
11	0	0	0	0	482	551	163	541	38	0	
12	0	0	0	0	491	534	163	518	38	0	
13	0	0	0	0	502	514	163	500	38	0	
14	0	0	0	0	510	497	163	485	38	0	
15	0	0	0	0	530	484	163	473	38	0	
0	0	0	0	0	533	477	163	466	38	0	
1	0	0	0	0	557	475	164	461	38	0	
2	0	0	0	0	549	482	163	463	38	0	
3	0	0	0	0	536	494	163	479	38	0	
4	0	0	0	0	531	512	163	497	38	0	
5	0	0	0	0	519	532	163	522	38	0	
6	0	0	0	0	504	550	163	546	38	0	
7	0	0	0	0	498	563	163	565	38	0	
8	0	0	0	0	491	571	163	580	38	0	
9	0	0	0	0	470	574	162	580	38	0	
10	0	0	0	0	469	568	162	568	38	0	
11	0	0	0	0	472	556	162	550	38	0	
12	0	0	0	0	476	541	162	529	38	0	
13	0	0	0	0	488	524	163	511	38	0	
14	0	0	0	0	505	505	163	493	38	0	
15	0	0	0	0	518	489	163	479	38	0	
0	0	0	0	0	528	479	163	468	38	0	
1	0	0	0	0	535	474	163	463	38	0	
2	0	0	0	0	555	476	163	460	38	0	
3	0	0	0	0	545	485	163	462	38	0	
4	0	0	0	0	543	499	163	477	38	0	
5	0	0	0	0	530	516	163	500	38	0	
6	0	0	0	0	522	533	163	527	38	0	
7	0	0	0	0	492	549	163	572	38	0	
8	0	0	0	0	487	561	163	599	38	0	
9	0	0	0	0	487	568	163	600	38	0	
10	0	0	0	0	466	571	163	586	38	0	
11	0	0	0	0	468	563	163	564	38	0	
12	0	0	0	0	474	551	163	542	38	0	
13	0	0	0	0	482	536	163	521	38	0	
14	0	0	0	0	497	519	163	503	38	0	
15	0	0	0	0	510	502	163	487	38	0	
0	0	0	0	0	521	487	163	474	38	0	
1	0	0	0	0	534	476	163	464	38	0	
2	0	0	0	0	549	470	163	460	38	0	
3	0	0	0	0	556	474	163	459	38	0	
4	0	0	0	0	541	484	163	474	38	0	
5	0	0	0	0	541	500	163	492	38	0	
6	0	0	0	0	517	517	163	526	38	0	
7	0	0	0	0	511	535	163	547	38	0	
8	0	0	0	0	495	550	163	560	38	0	
9	0	0	0	0	494	560	163	576	38	0	
10	0	0	0	0	478	565	163	573	38	0	
11	0	0	0	0	463	563	163	563	38	0	
12	0	0	0	0	478	553	162	547	38	0	
13	0	0	0	0	480	537	162	529	38	0	
14	0	0	0	0	485	520	163	512	38	0	
15	0	0	0	0	497	503	163	494	38	0	
0	0	0	0	0	507	487	163	481	38	0	
1	0	0	0	0	532	477	163	471	38	0	
2	0	0	0	0	527	471	163	465	38	0	
3	0	0	0	0	551	471	163	462	38	0	
4	0	0	0	0	545	478	163	462	38	0	
5	0	0	0	0	540	492	163	475	38	0	
6	0	0	0	0	536	510	163	499	38	0	
7	0	0	0	0	519	528	163	533	38	0	
8	0	0	0	0	508	547	163	559	38	0	
9	0	0	0	0	496	560	163	570	38	0	
10	0	0	0	0	492	569	163	577	38	0	
11	0	0	0	0	464	573	163	574	38	0	
12	0	0	0	0	460	567	163	573	38	0	
13	0	0	0	0	477	556	163	540	38	0	
14	0	0	0	0	476	539	163	521	38	0	
15	0	0	0	0	498	520	163	502	38	0	
0	0	0	0	0	508	503	163	487	38	0	
1	0	0	0	0	520	488	163	474	38	0	
2	0	0	0	0	530	477	163	462	38	0	
3	0	0	0	0	530	469	164	457	38	0	
4	0	0	0	0	558	471	164	456	38	0	
5	0	0	0	0	539	480	163	461	38	0	
6	0	0	0	0	538	495	163	470	38	0	
7	0	0	0	0	530	513	163	492	38	0	
8	0	0	0	0	519	532	163	524	38	0	
9	0	0	0	0	502	550	163	558	38	0	
10	0	0	0	0	484	562	163	576	38	0	
11	0	0	0	0	488	568	163	578	38	0	
12	0	0	0	0	467	568	163	568	38	0	
13	0	0	0	0	468	560	163	551	38	0	
14	0	0	0	0	483	548	163	534	38	0	
15	0	0	0	0	488	530	163	516	38	0	
0	0	0	0	0	497	512	163	500	38	0	
1	0	0	0	0	506	496	164	486	38	0	
2	0	0	0	0	522	483	164	475	38	0	
3	0	0	0	0	527	474	164	466	38	0	
4	0	0	0	0	542	470	163	460	38	0	
5	0	0	0	0	548	476	163	461	38	0	
6	0	0	0	0	543	486	163	470	38	0	
7	0	0	0	0	535	502	163	494	38	0	
8	0	0	0	0	525	519	163	544	38	0	
9	0	0	0	0	510	537	163	591	38	0	
10	0	0	0	0	495	551	163	628	38	0	
11	0	0	0	0	487	562	163	623	38	0	
12	0	0	0	0	486	568	163	610	38	0	
13	0	0	0	0	463	566	163	589	38	0	
14	0	0	0	0	471	556	163	564	38	0	
15	0	0	0	0	481	540	163	543	38	0	
0	0	0	0	0	491	521	163	516	38	0	
1	0	0	0	0	501	502	163	497	38	0	
2	0	0	0	0	516	486	163	480	38	0	
3	0	0	0	0	525	474	164	468	38	0	
4	0	0	0	0	538	467	164	464	38	0	
5	0	0	0	0	551	467	164	456	38	0	
6	0	0	0	0	539	476	164	456	38	0	
7	0	0	0	0	545	489	163	483	38	0	
8	0	0	0	0	535	506	163	515	38	0	
9	0	0	0	0	520	524	162	559	38	0	
10	0	0	0	0	512	542	162	589	38	0	
11	0	0	0	0	488	555	162	600	38	0	
12	0	0	0	0	484	562	162	595	38	0	
13	0	0	0	0	470	564	162	580	38	0	
14	0	0	0	0	466	557	163	562	38	0	
15	0	0	0	0	477	546	163	537	38	0	
0	0	0	0	0	472	529	163	515	38	0	
1	0	0	0	0	488	511	163	497	38	0	
2	0	0	0	0	504	494	163	482	38	0	
3	0	0	0	0	516	478	163	469	38	0	
4	0	0	0	0	524	468	164	461	38	0	
5	0	0	0	0	533	463	164	455	38	0	
6	0	0	0	0	560	467	164	453	38	0	
7	0	0	0	0	545	476	163	454	38	0	
8	0	0	0	0	537	491	163	470	38	0	
9	0	0	0	0	532	507	163	495	38	0	
10	0	0	0	0	516	524	162	525	38	0	
11	0	0	0	0	505	540	163	565	38	0	
12	0	0	0	0	486	552	163	568	38	0	
13	0	0	0	0	487	558	163	568	38	0	
14	0	0	0	0	468	559	163	556	38	0	
15	0	0	0	0	477	551	163	543	38	0	
0	0	0	0	0	476	539	163	525	38	0	
1	0	0	0	0	487	521	163	508	38	0	
2	0	0	0	0	495	502	163	492	38	0	
3	0	0	0	0	507	483	163	479	38	0	
4	0	0	0	0	525	468	163	467	38	0	
5	0	0	0	0	533	459	164	459	38	0	
6	0	0	0	0	543	455	164	453	38	0	
7	0	0	0	0	550	460	164	452	38	0	
8	0	0	0	0	543	471	164	457	38	0	
9	0	0	0	0	538	486	163	465	38	0	
10	0	0	0	0	519	503	163	488	38	0	
11	0	0	0	0	515	520	163	511	38	0	
12	0	0	0	0	489	534	163	535	38	0	
13	0	0	0	0	481	543	163	548	38	0	
14	0	0	0	0	487	547	163	550	38	0	
15	0	0	0	0	460	544	163	541	38	0	
0	0	0	0	0	464	535	162	527	38	0	
1	0	0	0	0	480	519	163	510	38	0	
2	0	0	0	0	492	500	163	495	38	0	
3	0	0	0	0	503	480	163	480	38	0	
4	0	0	0	0	512	464	163	468	38	0	
5	0	0	0	0	526	455	163	459	38	0	
6	0	0	0	0	528	447	163	454	38	0	
7	0	0	0	0	552	444	163	451	38	0	
8	0	0	0	0	545	451	163	452	38	0	
9	0	0	0	0	543	464	163	466	38	0	
10	0	0	0	0	533	480	163	467	38	0	
11	0	0	0	0	521	496	163	486	38	0	
12	0	0	0	0	508	512	163	509	38	0	
13	0	0	0	0	491	526	163	528	38	0	
14	0	0	0	0	486	533	163	537	38	0	
15	0	0	0	0	478	538	163	536	38	0	
0	0	0	0	0	471	532	163	529	38	0	
1	0	0	0	0	476	520	163	516	38	0	
2	0	0	0	0	472	504	163	503	38	0	
3	0	0	0	0	494	487	163	488	38	0	
4	0	0	0	0	504	468	163	478	38	0	
5	0	0	0	0	525	452	163	470	38	0	
6	0	0	0	0	532	442	164	463	38	0	
7	0	0	0	0	535	436	164	460	38	0	
8	0	0	0	0	552	440	164	459	38	0	
9	0	0	0	0	540	449	164	461	38	0	
10	0	0	0	0	546	464	163	467	38	0	
11	0	0	0	0	525	481	163	481	38	0	
12	0	0	0	0	520	499	162	514	38	0	
13	0	0	0	0	508	516	162	557	38	0	
14	0	0	0	0	484	527	162	583	38	0	
15	0	0	0	0	486	532	162	587	38	0	
0	0	0	0	0	467	532	162	577	38	0	
1	0	0	0	0	472	524	163	560	38	0	
2	0	0	0	0	480	511	163	539	38	0	
3	0	0	0	0	481	494	163	519	38	0	
4	0	0	0	0	491	475	163	501	38	0	
5	0	0	0	0	508	458	163	489	38	0	
6	0	0	0	0	535	445	163	473	38	0	
7	0	0	0	0	529	437	163	465	38	0	
8	0	0	0	0	541	433	163	461	38	0	
9	0	0	0	0	545	438	163	461	38	0	
10	0	0	0	0	538	450	163	469	38	0	
11	0	0	0	0	539	466	163	486	38	0	
12	0	0	0	0	528	484	163	538	38	0	
13	0	0	0	0	511	503	163	587	38	0	
14	0	0	0	0	494	517	163	605	38	0	
15	0	0	0	0	477	527	163	605	38	0	
0	0	0	0	0	480	532	163	594	38	0	
1	0	0	0	0	468	530	163	573	38	0	
2	0	0	0	0	476	520	162	551	38	0	
3	0	0	0	0	479	505	163	529	38	0	
4	0	0	0	0	491	487	163	509	38	0	
5	0	0	0	0	504	471	163	492	38	0	
6	0	0	0	0	515	454	163	480	38	0	
7	0	0	0	0	524	443	163	470	38	0	
8	0	0	0	0	536	436	163	463	38	0	
9	0	0	0	0	546	435	163	460	38	0	
10	0	0	0	0	545	444	163	473	38	0	
11	0	0	0	0	544	458	163	480	38	0	
12	0	0	0	0	526	477	163	502	38	0	
13	0	0	0	0	524	496	163	527	38	0	
14	0	0	0	0	505	514	163	551	38	0	
15	0	0	0	0	492	528	163	578	38	0	
0	0	0	0	0	482	536	163	568	38	0	
1	0	0	0	0	471	540	163	561	38	0	
2	0	0	0	0	465	535	163	547	38	0	
3	0	0	0	0	473	524	163	530	38	0	
4	0	0	0	0	481	507	163	513	38	0	
5	0	0	0	0	499	490	163	496	38	0	
6	0	0	0	0	513	472	163	483	38	0	
7	0	0	0	0	519	457	163	473	38	0	
8	0	0	0	0	530	447	164	465	38	0	
9	0	0	0	0	532	442	164	471	38	0	
10	0	0	0	0	550	446	164	457	38	0	
11	0	0	0	0	546	455	163	462	38	0	
12	0	0	0	0	546	469	163	477	38	0	
13	0	0	0	0	529	486	163	499	38	0	
14	0	0	0	0	513	504	163	561	38	0	
15	0	0	0	0	500	521	163	610	38	0	
0	0	0	0	0	487	533	162	643	38	0	
1	0	0	0	0	487	540	162	645	38	0	
2	0	0	0	0	465	540	162	627	38	0	
3	0	0	0	0	465	530	163	600	38	0	
4	0	0	0	0	472	516	163	570	38	0	
5	0	0	0	0	484	498	163	543	38	0	
6	0	0	0	0	495	481	163	521	38	0	
7	0	0	0	0	510	463	163	501	38	0	
8	0	0	0	0	529	449	163	484	38	0	
9	0	0	0	0	531	439	163	471	38	0	
10	0	0	0	0	546	436	163	464	38	0	
11	0	0	0	0	552	443	163	461	38	0	
12	0	0	0	0	537	456	164	464	38	0	
13	0	0	0	0	541	472	163	471	38	0	
14	0	0	0	0	524	489	163	504	38	0	
15	0	0	0	0	515	507	163	534	38	0	
0	0	0	0	0	496	522	163	568	38	0	
1	0	0	0	0	492	533	163	570	38	0	
2	0	0	0	0	486	539	162	566	38	0	
3	0	0	0	0	461	536	162	553	38	0	
4	0	0	0	0	477	527	162	536	38	0	
5	0	0	0	0	477	513	163	515	38	0	
6	0	0	0	0	488	495	163	499	38	0	
7	0	0	0	0	498	475	163	483	38	0	
8	0	0	0	0	516	460	163	469	38	0	
9	0	0	0	0	525	449	164	460	38	0	
10	0	0	0	0	531	441	163	453	38	0	
11	0	0	0	0	554	441	164	450	38	0	
12	0	0	0	0	545	448	164	456	38	0	
13	0	0	0	0	544	460	163	481	38	0	
14	0	0	0	0	533	477	163	507	38	0	
15	0	0	0	0	524	495	163	551	38	0	
0	0	0	0	0	511	513	163	594	38	0	
1	0	0	0	0	495	527	163	614	38	0	
2	0	0	0	0	478	536	163	617	38	0	
3	0	0	0	0	471	540	163	595	38	0	
4	0	0	0	0	468	535	163	574	38	0	
5	0	0	0	0	475	523	163	550	38	0	
6	0	0	0	0	477	507	163	527	38	0	
7	0	0	0	0	497	491	163	504	38	0	
8	0	0	0	0	504	474	163	487	38	0	
9	0	0	0	0	519	460	163	471	38	0	
10	0	0	0	0	532	451	163	463	38	0	
11	0	0	0	0	534	444	164	455	38	0	
12	0	0	0	0	551	447	164	454	38	0	
13	0	0	0	0	535	455	163	455	38	0	
14	0	0	0	0	537	469	163	469	38	0	
15	0	0	0	0	532	487	163	515	38	0	
0	0	0	0	0	518	505	163	558	38	0	
1	0	0	0	0	510	522	163	605	38	0	
2	0	0	0	0	482	533	163	626	38	0	
3	0	0	0	0	487	537	163	632	38	0	
4	0	0	0	0	465	538	163	603	38	0	
5	0	0	0	0	469	529	163	580	38	0	
6	0	0	0	0	475	516	163	553	38	0	
7	0	0	0	0	483	499	163	528	38	0	
8	0	0	0	0	492	481	163	505	38	0	
9	0	0	0	0	502	465	164	487	38	0	
10	0	0	0	0	533	452	163	472	38	0	
11	0	0	0	0	534	445	164	463	38	0	
12	0	0	0	0	551	441	164	459	38	0	
13	0	0	0	0	556	447	163	457	38	0	
14	0	0	0	0	542	459	163	464	38	0	
15	0	0	0	0	531	476	163	481	38	0	
0	0	0	0	0	522	493	163	524	38	0	
1	0	0	0	0	508	511	163	549	38	0	
2	0	0	0	0	496	527	162	567	38	0	
3	0	0	0	0	487	537	162	574	38	0	
4	0	0	0	0	480	540	162	567	38	0	
5	0	0	0	0	464	536	162	554	38	0	
6	0	0	0	0	480	525	162	535	38	0	
7	0	0	0	0	470	512	162	517	38	0	
8	0	0	0	0	485	496	163	498	38	0	
9	0	0	0	0	504	478	163	483	38	0	
10	0	0	0	0	520	461	163	470	38	0	
11	0	0	0	0	525	448	164	459	38	0	
12	0	0	0	0	529	441	164	453	38	0	
13	0	0	0	0	553	441	164	449	38	0	
14	0	0	0	0	543	450	163	449	38	0	
15	0	0	0	0	554	464	163	477	38	0	
0	0	0	0	0	538	482	163	503	38	0	
1	0	0	0	0	523	501	163	543	38	0	
2	0	0	0	0	499	520	163	579	38	0	
3	0	0	0	0	488	534	163	596	38	0	
4	0	0	0	0	489	544	163	606	38	0	
5	0	0	0	0	467	547	163	587	38	0	
6	0	0	0	0	474	541	163	568	38	0	
7	0	0	0	0	476	530	163	546	38	0	
8	0	0	0	0	478	513	163	524	38	0	
9	0	0	0	0	488	496	163	503	38	0	
10	0	0	0	0	504	478	163	486	38	0	
11	0	0	0	0	522	463	163	473	38	0	
12	0	0	0	0	530	454	163	464	38	0	
13	0	0	0	0	535	449	164	457	38	0	
14	0	0	0	0	555	454	163	455	38	0	
15	0	0	0	0	546	464	163	455	38	0	
0	0	0	0	0	552	478	163	462	38	0	
1	0	0	0	0	531	495	163	478	38	0	
2	0	0	0	0	513	514	162	511	38	0	
3	0	0	0	0	499	531	162	571	38	0	
4	0	0	0	0	490	544	162	608	38	0	
5	0	0	0	0	484	551	162	609	38	0	
6	0	0	0	0	459	552	163	595	38	0	
7	0	0	0	0	470	544	163	574	38	0	
8	0	0	0	0	471	531	163	547	38	0	
9	0	0	0	0	482	515	163	524	38	0	
10	0	0	0	0	495	497	163	502	38	0	
11	0	0	0	0	512	481	163	484	38	0	
12	0	0	0	0	533	468	163	472	38	0	
13	0	0	0	0	533	461	163	462	38	0	
14	0	0	0	0	539	458	163	454	38	0	
15	0	0	0	0	547	464	163	452	38	0	
0	0	0	0	0	543	477	163	455	38	0	
1	0	0	0	0	532	493	163	468	38	0	
2	0	0	0	0	529	511	163	496	38	0	
3	0	0	0	0	512	529	163	524	38	0	
4	0	0	0	0	490	544	163	539	38	0	
5	0	0	0	0	488	553	163	542	38	0	
6	0	0	0	0	483	559	163	548	38	0	
7	0	0	0	0	459	556	163	524	38	0	
8	0	0	0	0	472	546	163	511	38	0	
9	0	0	0	0	476	532	163	500	38	0	
10	0	0	0	0	489	515	163	480	38	0	
11	0	0	0	0	502	496	163	469	38	0	
12	0	0	0	0	519	480	163	460	38	0	
13	0	0	0	0	530	468	164	452	38	0	
14	0	0	0	0	534	462	164	446	38	0	
15	0	0	0	0	550	463	164	444	38	0	
0	0	0	0	0	545	471	164	447	38	0	
1	0	0	0	0	540	484	163	464	38	0	
2	0	0	0	0	527	502	163	487	38	0	
3	0	0	0	0	519	520	163	519	38	0	
4	0	0	0	0	505	536	163	553	38	0	
5	0	0	0	0	484	549	163	571	38	0	
6	0	0	0	0	484	558	163	570	38	0	
7	0	0	0	0	476	562	163	562	38	0	
8	0	0	0	0	469	556	163	546	38	0	
9	0	0	0	0	481	545	163	530	38	0	
10	0	0	0	0	478	528	163	510	38	0	
11	0	0	0	0	497	509	163	494	38	0	
12	0	0	0	0	506	491	163	479	38	0	
13	0	0	0	0	525	475	163	467	38	0	
14	0	0	0	0	523	467	163	460	38	0	
15	0	0	0	0	531	462	163	454	38	0	
0	0	0	0	0	559	465	163	452	38	0	
1	0	0	0	0	540	475	163	456	38	0	
2	0	0	0	0	542	489	163	469	38	0	
3	0	0	0	0	527	507	163	496	38	0	
4	0	0	0	0	519	524	163	529	38	0	
5	0	0	0	0	496	540	163	571	38	0	
6	0	0	0	0	487	549	163	594	38	0	
7	0	0	0	0	482	555	163	594	38	0	
8	0	0	0	0	461	558	163	580	38	0	
9	0	0	0	0	463	551	163	559	38	0	
10	0	0	0	0	473	538	162	538	38	0	
11	0	0	0	0	484	520	162	518	38	0	
12	0	0	0	0	501	499	163	501	38	0	
13	0	0	0	0	514	483	163	484	38	0	
14	0	0	0	0	529	470	163	473	38	0	
15	0	0	0	0	529	462	163	464	38	0	
0	0	0	0	0	546	458	163	458	38	0	
1	0	0	0	0	551	463	163	456	38	0	
2	0	0	0	0	536	472	163	460	38	0	
3	0	0	0	0	542	487	163	479	38	0	
4	0	0	0	0	521	504	163	527	38	0	
5	0	0	0	0	521	522	163	564	38	0	
6	0	0	0	0	494	537	163	583	38	0	
7	0	0	0	0	494	545	163	583	38	0	
8	0	0	0	0	481	550	163	574	38	0	
9	0	0	0	0	465	547	163	558	38	0	
10	0	0	0	0	468	537	162	540	38	0	
11	0	0	0	0	474	521	163	519	38	0	
12	0	0	0	0	490	502	163	501	38	0	
13	0	0	0	0	500	483	163	486	38	0	
14	0	0	0	0	520	466	164	470	38	0	
15	0	0	0	0	531	455	163	461	38	0	
0	0	0	0	0	531	448	163	454	38	0	
1	0	0	0	0	550	448	163	452	38	0	
2	0	0	0	0	545	457	163	455	38	0	
3	0	0	0	0	539	470	163	474	38	0	
4	0	0	0	0	531	487	163	494	38	0	
5	0	0	0	0	514	505	163	521	38	0	
6	0	0	0	0	515	523	162	551	38	0	
7	0	0	0	0	493	537	162	568	38	0	
8	0	0	0	0	482	544	162	567	38	0	
9	0	0	0	0	477	547	162	567	38	0	
10	0	0	0	0	465	542	162	541	38	0	
11	0	0	0	0	472	529	163	523	38	0	
12	0	0	0	0	477	512	163	505	38	0	
13	0	0	0	0	491	493	163	489	38	0	
14	0	0	0	0	499	475	163	475	38	0	
15	0	0	0	0	524	459	163	467	38	0	
0	0	0	0	0	531	449	164	460	38	0	
1	0	0	0	0	536	443	164	454	38	0	
2	0	0	0	0	556	447	163	460	38	0	
3	0	0	0	0	545	458	163	467	38	0	
4	0	0	0	0	539	473	163	483	38	0	
5	0	0	0	0	531	490	163	507	38	0	
6	0	0	0	0	512	508	163	540	38	0	
7	0	0	0	0	496	525	163	587	38	0	
8	0	0	0	0	486	536	163	612	38	0	
9	0	0	0	0	487	543	162	610	38	0	
10	0	0	0	0	465	545	162	595	38	0	
11	0	0	0	0	469	536	162	574	38	0	
12	0	0	0	0	477	524	163	550	38	0	
13	0	0	0	0	486	508	163	523	38	0	
14	0	0	0	0	502	489	163	503	38	0	
15	0	0	0	0	508	472	163	496	38	0	
0	0	0	0	0	522	459	163	472	38	0	
1	0	0	0	0	528	451	163	464	38	0	
2	0	0	0	0	546	448	163	467	38	0	
3	0	0	0	0	554	453	163	456	38	0	
4	0	0	0	0	546	464	163	461	38	0	
5	0	0	0	0	538	481	163	475	38	0	
6	0	0	0	0	521	500	163	533	38	0	
7	0	0	0	0	512	517	163	580	38	0	
8	0	0	0	0	494	529	163	612	38	0	
9	0	0	0	0	483	538	163	622	38	0	
10	0	0	0	0	484	542	163	615	38	0	
11	0	0	0	0	462	539	163	597	38	0	
12	0	0	0	0	473	530	163	571	38	0	
13	0	0	0	0	480	516	162	547	38	0	
14	0	0	0	0	496	500	163	524	38	0	
15	0	0	0	0	497	481	163	500	38	0	
0	0	0	0	0	517	465	163	482	38	0	
1	0	0	0	0	532	454	163	468	38	0	
2	0	0	0	0	534	447	163	459	38	0	
3	0	0	0	0	553	447	163	456	38	0	
4	0	0	0	0	548	455	163	457	38	0	
5	0	0	0	0	537	466	163	474	38	0	
6	0	0	0	0	527	484	163	499	38	0	
7	0	0	0	0	522	503	163	525	38	0	
8	0	0	0	0	504	520	163	560	38	0	
9	0	0	0	0	489	534	163	582	38	0	
10	0	0	0	0	487	543	163	591	38	0	
11	0	0	0	0	468	547	163	585	38	0	
12	0	0	0	0	460	540	163	569	38	0	
13	0	0	0	0	478	530	163	549	38	0	
14	0	0	0	0	478	515	163	526	38	0	
15	0	0	0	0	495	498	163	506	38	0	
0	0	0	0	0	505	481	163	488	38	0	
1	0	0	0	0	526	467	163	475	38	0	
2	0	0	0	0	532	457	163	465	38	0	
3	0	0	0	0	535	451	163	459	38	0	
4	0	0	0	0	552	455	163	455	38	0	
5	0	0	0	0	536	464	163	454	38	0	
6	0	0	0	0	543	479	163	462	38	0	
7	0	0	0	0	528	496	163	482	38	0	
8	0	0	0	0	516	513	162	512	38	0	
9	0	0	0	0	502	529	162	556	38	0	
10	0	0	0	0	487	540	162	581	38	0	
11	0	0	0	0	487	546	162	580	38	0	
12	0	0	0	0	466	548	162	566	38	0	
13	0	0	0	0	471	540	162	547	38	0	
14	0	0	0	0	471	527	162	522	38	0	
15	0	0	0	0	490	509	162	502	38	0	
0	0	0	0	0	496	492	163	485	38	0	
1	0	0	0	0	508	476	163	470	38	0	
2	0	0	0	0	520	464	163	460	38	0	
3	0	0	0	0	526	456	164	452	38	0	
4	0	0	0	0	545	452	163	448	38	0	
5	0	0	0	0	549	459	163	450	38	0	
6	0	0	0	0	539	472	163	455	38	0	
7	0	0	0	0	541	489	163	472	38	0	
8	0	0	0	0	525	505	163	519	38	0	
9	0	0	0	0	512	523	163	558	38	0	
10	0	0	0	0	493	537	163	573	38	0	
11	0	0	0	0	483	547	163	572	38	0	
12	0	0	0	0	483	550	163	562	38	0	
13	0	0	0	0	459	547	163	542	38	0	
14	0	0	0	0	476	537	163	524	38	0	
15	0	0	0	0	480	523	163	507	38	0	
0	0	0	0	0	494	505	163	490	38	0	
1	0	0	0	0	504	487	163	476	38	0	
2	0	0	0	0	524	471	163	464	38	0	
3	0	0	0	0	528	460	163	454	38	0	
4	0	0	0	0	540	454	163	449	38	0	
5	0	0	0	0	543	454	163	446	38	0	
6	0	0	0	0	543	463	163	448	38	0	
7	0	0	0	0	541	478	163	467	38	0	
8	0	0	0	0	531	495	163	488	38	0	
9	0	0	0	0	518	512	163	532	38	0	
10	0	0	0	0	502	529	163	574	38	0	
11	0	0	0	0	491	542	163	590	38	0	
12	0	0	0	0	485	551	163	590	38	0	
13	0	0	0	0	477	556	163	579	38	0	
14	0	0	0	0	472	550	163	561	38	0	
15	0	0	0	0	480	538	163	540	38	0	
0	0	0	0	0	483	521	163	518	38	0	
1	0	0	0	0	499	504	163	500	38	0	
2	0	0	0	0	506	486	163	483	38	0	
3	0	0	0	0	523	471	163	470	38	0	
4	0	0	0	0	537	459	164	462	38	0	
5	0	0	0	0	532	453	164	459	38	0	
6	0	0	0	0	555	457	163	455	38	0	
7	0	0	0	0	545	466	163	460	38	0	
8	0	0	0	0	533	479	163	480	38	0	
9	0	0	0	0	519	495	163	508	38	0	
10	0	0	0	0	509	515	163	532	38	0	
11	0	0	0	0	504	532	163	568	38	0	
12	0	0	0	0	487	543	163	586	38	0	
13	0	0	0	0	492	548	163	583	38	0	
14	0	0	0	0	468	548	163	572	38	0	
15	0	0	0	0	467	539	163	548	38	0	
0	0	0	0	0	474	526	163	527	38	0	
1	0	0	0	0	485	509	163	519	38	0	
2	0	0	0	0	497	492	163	489	38	0	
3	0	0	0	0	508	476	163	474	38	0	
4	0	0	0	0	527	463	163	473	38	0	
5	0	0	0	0	531	455	163	455	38	0	
6	0	0	0	0	543	452	163	451	38	0	
7	0	0	0	0	549	460	163	451	38	0	
8	0	0	0	0	541	471	163	457	38	0	
9	0	0	0	0	533	487	163	467	38	0	
10	0	0	0	0	519	504	163	480	38	0	
11	0	0	0	0	516	520	163	494	38	0	
12	0	0	0	0	495	534	163	513	38	0	
13	0	0	0	0	493	543	163	527	38	0	
14	0	0	0	0	477	547	163	529	38	0	
15	0	0	0	0	460	543	163	523	38	0	
0	0	0	0	0	476	535	163	512	38	0	
1	0	0	0	0	478	519	163	500	38	0	
2	0	0	0	0	492	500	163	489	38	0	
3	0	0	0	0	499	481	163	479	38	0	
4	0	0	0	0	517	465	163	471	38	0	
5	0	0	0	0	528	452	163	467	38	0	
6	0	0	0	0	535	446	163	456	38	0	
7	0	0	0	0	552	446	163	453	38	0	
8	0	0	0	0	548	453	163	456	38	0	
9	0	0	0	0	536	466	163	467	38	0	
10	0	0	0	0	530	483	163	483	38	0	
11	0	0	0	0	521	502	162	504	38	0	
12	0	0	0	0	504	521	162	525	38	0	
13	0	0	0	0	494	535	162	537	38	0	
14	0	0	0	0	488	544	163	544	38	0	
15	0	0	0	0	475	547	163	542	38	0	
0	0	0	0	0	467	542	163	532	38	0	
1	0	0	0	0	473	531	163	517	38	0	
2	0	0	0	0	480	515	163	502	38	0	
3	0	0	0	0	493	499	163	486	38	0	
4	0	0	0	0	507	478	163	474	38	0	
5	0	0	0	0	524	462	163	465	38	0	
6	0	0	0	0	529	452	164	459	38	0	
7	0	0	0	0	536	448	163	456	38	0	
8	0	0	0	0	554	451	164	456	38	0	
9	0	0	0	0	547	460	163	459	38	0	
10	0	0	0	0	539	476	163	471	38	0	
11	0	0	0	0	518	494	163	489	38	0	
12	0	0	0	0	509	511	163	531	38	0	
13	0	0	0	0	500	527	163	581	38	0	
14	0	0	0	0	479	540	163	602	38	0	
15	0	0	0	0	488	546	163	600	38	0	
0	0	0	0	0	466	547	163	585	38	0	
1	0	0	0	0	468	537	163	562	38	0	
2	0	0	0	0	473	523	163	540	38	0	
3	0	0	0	0	487	504	163	518	38	0	
