# OpenSignals Text File Format. Version 1
# {"98:D3:B1:FD:3D:90": {"position": 0, "device": "bitalino_rev", "device name": "98:D3:B1:FD:3D:90", "device connection": "/dev/tty.BITalino-DevB", "sampling rate": 1000, "resolution": [4, 1, 1, 1, 1, 10, 10, 10, 10, 6, 6], "firmware version": 1281, "comments": "", "keywords": "", "mode": 0, "sync interval": 2, "date": "2022-4-6", "time": "21:56:0.207", "channels": [1, 2, 3, 4, 5, 6], "sensor": ["RAW", "ECGBIT", "EDABITREV", "RAW", "RAW", "RAW"], "label": ["A1", "A2", "A3", "A4", "A5", "A6"], "column": ["nSeq", "I1", "I2", "O1", "O2", "A1", "A2", "A3", "A4", "A5", "A6"], "special": [{}, {}, {}, {}, {}, {}], "digital IO": [0, 0, 1, 1]}}
# EndOfHeader
0	0	0	0	0	503	595	178	517	38	0	
1	0	0	0	0	496	592	178	516	38	0	
2	0	0	0	0	498	589	178	516	38	0	
3	0	0	0	0	500	584	178	515	38	0	
4	0	0	0	0	505	579	177	511	38	0	
5	0	0	0	0	499	576	177	508	38	0	
6	0	0	0	0	502	574	178	507	38	0	
7	0	0	0	0	516	572	178	508	38	0	
8	0	0	0	0	513	571	178	507	38	0	
9	0	0	0	0	528	571	178	509	38	0	
10	0	0	0	0	520	572	178	514	38	0	
11	0	0	0	0	518	576	177	518	38	0	
12	0	0	0	0	512	582	177	526	38	0	
13	0	0	0	0	508	586	177	519	38	0	
14	0	0	0	0	505	590	177	521	38	0	
15	0	0	0	0	511	593	178	522	38	0	
0	0	0	0	0	504	595	178	522	38	0	
1	0	0	0	0	500	596	178	521	38	0	
2	0	0	0	0	499	595	178	519	38	0	
3	0	0	0	0	500	592	178	516	38	0	
4	0	0	0	0	504	588	177	515	38	0	
5	0	0	0	0	504	583	177	512	38	0	
6	0	0	0	0	504	579	177	510	38	0	
7	0	0	0	0	514	576	177	508	38	0	
8	0	0	0	0	508	575	178	508	38	0	
9	0	0	0	0	523	574	178	509	38	0	
10	0	0	0	0	522	574	178	511	38	0	
11	0	0	0	0	517	577	178	513	38	0	
12	0	0	0	0	526	582	178	515	38	0	
13	0	0	0	0	512	586	177	517	38	0	
14	0	0	0	0	511	590	177	518	38	0	
15	0	0	0	0	504	592	177	518	38	0	
0	0	0	0	0	506	593	177	523	38	0	
1	0	0	0	0	498	593	178	519	38	0	
2	0	0	0	0	495	590	178	519	38	0	
3	0	0	0	0	490	585	178	516	38	0	
4	0	0	0	0	498	581	178	515	38	0	
5	0	0	0	0	502	577	178	511	38	0	
6	0	0	0	0	506	575	178	508	38	0	
7	0	0	0	0	508	573	177	507	38	0	
8	0	0	0	0	506	572	177	505	38	0	
9	0	0	0	0	512	571	178	507	38	0	
10	0	0	0	0	518	572	178	508	38	0	
11	0	0	0	0	526	576	178	509	38	0	
12	0	0	0	0	519	580	178	510	38	0	
13	0	0	0	0	511	586	178	513	38	0	
14	0	0	0	0	510	590	177	515	38	0	
15	0	0	0	0	509	593	177	518	38	0	
0	0	0	0	0	509	595	177	520	38	0	
1	0	0	0	0	497	597	177	520	38	0	
2	0	0	0	0	496	599	177	520	38	0	
3	0	0	0	0	507	598	177	518	38	0	
4	0	0	0	0	499	595	177	515	38	0	
5	0	0	0	0	494	591	178	512	38	0	
6	0	0	0	0	512	587	178	509	38	0	
7	0	0	0	0	506	584	178	508	38	0	
8	0	0	0	0	502	581	178	506	38	0	
9	0	0	0	0	514	578	178	505	38	0	
10	0	0	0	0	518	576	178	505	38	0	
11	0	0	0	0	514	576	178	517	38	0	
12	0	0	0	0	516	578	177	508	38	0	
13	0	0	0	0	525	582	177	510	38	0	
14	0	0	0	0	518	587	177	512	38	0	
15	0	0	0	0	505	591	178	514	38	0	
0	0	0	0	0	504	596	178	515	38	0	
1	0	0	0	0	496	600	178	517	38	0	
2	0	0	0	0	507	601	178	517	38	0	
3	0	0	0	0	487	603	178	517	38	0	
4	0	0	0	0	495	601	178	514	38	0	
5	0	0	0	0	504	598	178	512	38	0	
6	0	0	0	0	499	595	178	510	38	0	
7	0	0	0	0	511	590	178	509	38	0	
8	0	0	0	0	508	586	177	505	38	0	
9	0	0	0	0	513	583	177	505	38	0	
10	0	0	0	0	512	582	177	505	38	0	
11	0	0	0	0	517	581	177	505	38	0	
12	0	0	0	0	520	583	177	506	38	0	
13	0	0	0	0	519	587	177	508	38	0	
14	0	0	0	0	524	592	177	511	38	0	
15	0	0	0	0	513	596	178	512	38	0	
0	0	0	0	0	507	600	178	514	38	0	
1	0	0	0	0	507	603	178	516	38	0	
2	0	0	0	0	501	605	178	517	38	0	
3	0	0	0	0	500	607	178	518	38	0	
4	0	0	0	0	501	606	178	517	38	0	
5	0	0	0	0	496	602	178	518	38	0	
6	0	0	0	0	502	596	178	516	38	0	
7	0	0	0	0	502	590	177	513	38	0	
8	0	0	0	0	505	585	178	512	38	0	
9	0	0	0	0	504	580	178	509	38	0	
10	0	0	0	0	521	577	178	508	38	0	
11	0	0	0	0	515	574	178	507	38	0	
12	0	0	0	0	522	573	178	507	38	0	
13	0	0	0	0	522	577	177	506	38	0	
14	0	0	0	0	519	580	177	508	38	0	
15	0	0	0	0	518	586	177	511	38	0	
0	0	0	0	0	518	591	177	514	38	0	
1	0	0	0	0	507	594	177	517	38	0	
2	0	0	0	0	505	596	178	520	38	0	
3	0	0	0	0	505	597	178	522	38	0	
4	0	0	0	0	494	599	178	523	38	0	
5	0	0	0	0	496	597	178	521	38	0	
6	0	0	0	0	499	594	178	516	38	0	
7	0	0	0	0	494	590	178	515	38	0	
8	0	0	0	0	501	586	178	512	38	0	
9	0	0	0	0	505	582	178	508	38	0	
10	0	0	0	0	509	579	178	506	38	0	
11	0	0	0	0	512	576	177	507	38	0	
12	0	0	0	0	511	574	177	507	38	0	
13	0	0	0	0	515	574	177	507	38	0	
14	0	0	0	0	519	577	177	507	38	0	
15	0	0	0	0	522	582	178	508	38	0	
0	0	0	0	0	515	588	178	510	38	0	
1	0	0	0	0	505	592	178	509	38	0	
2	0	0	0	0	506	595	178	513	38	0	
3	0	0	0	0	504	599	178	515	38	0	
4	0	0	0	0	500	601	178	515	38	0	
5	0	0	0	0	499	600	177	515	38	0	
6	0	0	0	0	500	598	178	515	38	0	
7	0	0	0	0	504	593	178	515	38	0	
8	0	0	0	0	496	588	178	513	38	0	
9	0	0	0	0	509	583	178	509	38	0	
10	0	0	0	0	509	579	178	508	38	0	
11	0	0	0	0	511	576	178	506	38	0	
12	0	0	0	0	513	575	178	508	38	0	
13	0	0	0	0	518	575	178	506	38	0	
14	0	0	0	0	522	577	177	508	38	0	
15	0	0	0	0	514	580	177	512	38	0	
0	0	0	0	0	516	585	177	520	38	0	
1	0	0	0	0	511	589	177	519	38	0	
2	0	0	0	0	505	592	178	525	38	0	
3	0	0	0	0	508	595	178	525	38	0	
4	0	0	0	0	499	596	178	525	38	0	
5	0	0	0	0	499	598	178	523	38	0	
6	0	0	0	0	498	597	177	521	38	0	
7	0	0	0	0	497	595	177	519	38	0	
8	0	0	0	0	500	591	178	515	38	0	
9	0	0	0	0	508	588	179	512	38	0	
10	0	0	0	0	508	583	179	511	38	0	
11	0	0	0	0	514	582	178	509	38	0	
12	0	0	0	0	511	581	178	509	38	0	
13	0	0	0	0	505	580	178	510	38	0	
14	0	0	0	0	524	582	178	507	38	0	
15	0	0	0	0	524	585	177	507	38	0	
0	0	0	0	0	520	590	177	507	38	0	
1	0	0	0	0	508	594	178	508	38	0	
2	0	0	0	0	510	599	178	510	38	0	
3	0	0	0	0	508	603	178	511	38	0	
4	0	0	0	0	512	607	178	515	38	0	
5	0	0	0	0	511	609	178	515	38	0	
6	0	0	0	0	501	611	178	515	38	0	
7	0	0	0	0	496	608	178	514	38	0	
8	0	0	0	0	501	607	178	513	38	0	
9	0	0	0	0	493	603	177	511	38	0	
10	0	0	0	0	502	599	177	508	38	0	
11	0	0	0	0	513	595	177	508	38	0	
12	0	0	0	0	512	591	177	507	38	0	
13	0	0	0	0	511	590	178	516	38	0	
14	0	0	0	0	516	588	179	506	38	0	
15	0	0	0	0	521	590	179	506	38	0	
0	0	0	0	0	518	593	179	507	38	0	
1	0	0	0	0	521	597	178	519	38	0	
2	0	0	0	0	515	603	178	511	38	0	
3	0	0	0	0	511	607	178	514	38	0	
4	0	0	0	0	508	611	177	516	38	0	
5	0	0	0	0	506	615	178	525	38	0	
6	0	0	0	0	498	617	177	519	38	0	
7	0	0	0	0	486	617	177	519	38	0	
8	0	0	0	0	493	615	177	518	38	0	
9	0	0	0	0	497	612	177	517	38	0	
10	0	0	0	0	502	609	178	515	38	0	
11	0	0	0	0	508	605	179	511	38	0	
12	0	0	0	0	505	601	179	509	38	0	
13	0	0	0	0	516	598	179	505	38	0	
14	0	0	0	0	512	596	178	504	38	0	
15	0	0	0	0	520	595	179	504	38	0	
0	0	0	0	0	517	596	178	503	38	0	
1	0	0	0	0	518	600	178	505	38	0	
2	0	0	0	0	520	604	177	507	38	0	
3	0	0	0	0	508	609	178	509	38	0	
4	0	0	0	0	508	614	179	511	38	0	
5	0	0	0	0	513	617	178	513	38	0	
6	0	0	0	0	499	619	178	515	38	0	
7	0	0	0	0	500	619	178	515	38	0	
8	0	0	0	0	503	618	177	514	38	0	
9	0	0	0	0	497	617	177	513	38	0	
10	0	0	0	0	495	614	178	511	38	0	
11	0	0	0	0	506	611	178	509	38	0	
12	0	0	0	0	513	607	179	510	38	0	
13	0	0	0	0	509	604	179	507	38	0	
14	0	0	0	0	508	603	179	506	38	0	
15	0	0	0	0	510	603	178	505	38	0	
0	0	0	0	0	520	604	178	504	38	0	
1	0	0	0	0	525	608	177	504	38	0	
2	0	0	0	0	524	612	178	507	38	0	
3	0	0	0	0	511	617	179	510	38	0	
4	0	0	0	0	515	622	179	514	38	0	
5	0	0	0	0	504	626	178	518	38	0	
6	0	0	0	0	503	629	178	519	38	0	
7	0	0	0	0	500	631	178	520	38	0	
8	0	0	0	0	497	631	177	520	38	0	
9	0	0	0	0	496	628	177	517	38	0	
10	0	0	0	0	498	626	177	515	38	0	
11	0	0	0	0	498	621	178	512	38	0	
12	0	0	0	0	504	616	178	508	38	0	
13	0	0	0	0	510	611	179	506	38	0	
14	0	0	0	0	508	608	178	516	38	0	
15	0	0	0	0	515	606	178	503	38	0	
0	0	0	0	0	515	603	178	502	38	0	
1	0	0	0	0	524	603	177	504	38	0	
2	0	0	0	0	523	606	177	504	38	0	
3	0	0	0	0	526	611	178	506	38	0	
4	0	0	0	0	511	615	178	508	38	0	
5	0	0	0	0	507	619	178	513	38	0	
6	0	0	0	0	512	621	178	515	38	0	
7	0	0	0	0	503	624	178	516	38	0	
8	0	0	0	0	502	624	178	518	38	0	
9	0	0	0	0	494	623	178	525	38	0	
10	0	0	0	0	487	620	178	518	38	0	
11	0	0	0	0	503	615	177	516	38	0	
12	0	0	0	0	498	609	177	514	38	0	
13	0	0	0	0	513	604	177	511	38	0	
14	0	0	0	0	512	599	178	510	38	0	
15	0	0	0	0	507	595	179	507	38	0	
0	0	0	0	0	512	591	179	506	38	0	
1	0	0	0	0	513	590	179	505	38	0	
2	0	0	0	0	525	590	178	503	38	0	
3	0	0	0	0	515	592	178	505	38	0	
4	0	0	0	0	523	597	177	506	38	0	
5	0	0	0	0	507	600	177	510	38	0	
6	0	0	0	0	510	604	177	513	38	0	
7	0	0	0	0	502	606	177	516	38	0	
8	0	0	0	0	508	608	178	519	38	0	
9	0	0	0	0	506	609	178	519	38	0	
10	0	0	0	0	498	608	179	519	38	0	
11	0	0	0	0	503	606	179	517	38	0	
12	0	0	0	0	502	602	179	515	38	0	
13	0	0	0	0	499	598	178	513	38	0	
14	0	0	0	0	499	595	178	512	38	0	
15	0	0	0	0	509	591	178	510	38	0	
0	0	0	0	0	515	590	178	519	38	0	
1	0	0	0	0	515	588	178	508	38	0	
2	0	0	0	0	527	587	178	507	38	0	
3	0	0	0	0	524	590	178	507	38	0	
4	0	0	0	0	519	594	177	509	38	0	
5	0	0	0	0	513	598	177	511	38	0	
6	0	0	0	0	517	601	177	515	38	0	
7	0	0	0	0	501	604	178	519	38	0	
8	0	0	0	0	503	607	178	519	38	0	
9	0	0	0	0	503	609	178	520	38	0	
10	0	0	0	0	488	610	179	519	38	0	
11	0	0	0	0	491	608	178	516	38	0	
12	0	0	0	0	497	605	178	512	38	0	
13	0	0	0	0	507	600	178	509	38	0	
14	0	0	0	0	514	594	178	508	38	0	
15	0	0	0	0	505	590	178	506	38	0	
0	0	0	0	0	504	584	177	505	38	0	
1	0	0	0	0	514	581	179	506	38	0	
2	0	0	0	0	520	578	179	504	38	0	
3	0	0	0	0	519	579	179	505	38	0	
4	0	0	0	0	523	581	179	505	38	0	
5	0	0	0	0	522	585	178	508	38	0	
6	0	0	0	0	505	591	177	512	38	0	
7	0	0	0	0	508	595	178	514	38	0	
8	0	0	0	0	507	599	178	518	38	0	
9	0	0	0	0	509	601	179	521	38	0	
10	0	0	0	0	502	604	179	522	38	0	
11	0	0	0	0	496	604	178	522	38	0	
12	0	0	0	0	492	602	178	520	38	0	
13	0	0	0	0	502	598	178	516	38	0	
14	0	0	0	0	502	594	179	515	38	0	
15	0	0	0	0	499	590	178	512	38	0	
0	0	0	0	0	513	587	178	510	38	0	
1	0	0	0	0	514	584	178	508	38	0	
2	0	0	0	0	512	583	179	507	38	0	
3	0	0	0	0	517	582	179	507	38	0	
4	0	0	0	0	521	583	179	507	38	0	
5	0	0	0	0	515	585	179	511	38	0	
6	0	0	0	0	519	590	178	518	38	0	
7	0	0	0	0	515	594	178	518	38	0	
8	0	0	0	0	505	599	178	521	38	0	
9	0	0	0	0	505	601	178	524	38	0	
10	0	0	0	0	505	604	178	524	38	0	
11	0	0	0	0	501	606	177	525	38	0	
12	0	0	0	0	494	607	177	521	38	0	
13	0	0	0	0	499	604	177	521	38	0	
14	0	0	0	0	502	600	178	519	38	0	
15	0	0	0	0	502	596	178	515	38	0	
0	0	0	0	0	506	592	179	513	38	0	
1	0	0	0	0	518	589	179	510	38	0	
2	0	0	0	0	506	588	179	505	38	0	
3	0	0	0	0	517	587	178	504	38	0	
4	0	0	0	0	525	588	179	501	38	0	
5	0	0	0	0	517	590	178	503	38	0	
6	0	0	0	0	516	593	178	505	38	0	
7	0	0	0	0	512	599	177	508	38	0	
8	0	0	0	0	507	603	178	508	38	0	
9	0	0	0	0	516	607	179	513	38	0	
10	0	0	0	0	500	610	179	517	38	0	
11	0	0	0	0	496	611	178	517	38	0	
12	0	0	0	0	498	611	178	518	38	0	
13	0	0	0	0	497	609	178	515	38	0	
14	0	0	0	0	499	606	178	514	38	0	
15	0	0	0	0	503	600	178	511	38	0	
0	0	0	0	0	500	595	178	508	38	0	
1	0	0	0	0	504	591	179	504	38	0	
2	0	0	0	0	515	587	179	503	38	0	
3	0	0	0	0	512	585	179	501	38	0	
4	0	0	0	0	516	584	179	501	38	0	
5	0	0	0	0	521	586	179	502	38	0	
6	0	0	0	0	514	589	179	507	38	0	
7	0	0	0	0	520	592	178	512	38	0	
8	0	0	0	0	510	597	178	514	38	0	
9	0	0	0	0	508	602	178	519	38	0	
10	0	0	0	0	512	605	177	521	38	0	
11	0	0	0	0	499	608	177	521	38	0	
12	0	0	0	0	504	611	177	522	38	0	
13	0	0	0	0	493	610	178	520	38	0	
14	0	0	0	0	502	608	179	519	38	0	
15	0	0	0	0	494	603	179	516	38	0	
0	0	0	0	0	499	599	179	511	38	0	
1	0	0	0	0	505	594	179	507	38	0	
2	0	0	0	0	513	591	179	505	38	0	
3	0	0	0	0	507	588	179	505	38	0	
4	0	0	0	0	513	586	178	506	38	0	
5	0	0	0	0	509	585	178	506	38	0	
6	0	0	0	0	524	586	178	505	38	0	
7	0	0	0	0	523	589	179	508	38	0	
8	0	0	0	0	516	593	179	508	38	0	
9	0	0	0	0	510	597	179	512	38	0	
10	0	0	0	0	510	601	179	515	38	0	
11	0	0	0	0	506	604	179	517	38	0	
12	0	0	0	0	512	605	178	518	38	0	
13	0	0	0	0	502	606	178	518	38	0	
14	0	0	0	0	501	604	178	516	38	0	
15	0	0	0	0	489	601	178	515	38	0	
0	0	0	0	0	502	596	177	513	38	0	
1	0	0	0	0	504	592	178	511	38	0	
2	0	0	0	0	507	588	179	509	38	0	
3	0	0	0	0	509	584	179	507	38	0	
4	0	0	0	0	513	582	179	505	38	0	
5	0	0	0	0	512	580	179	505	38	0	
6	0	0	0	0	520	581	179	504	38	0	
7	0	0	0	0	522	583	178	503	38	0	
8	0	0	0	0	525	587	178	507	38	0	
9	0	0	0	0	515	591	178	511	38	0	
10	0	0	0	0	508	595	179	515	38	0	
11	0	0	0	0	504	599	179	515	38	0	
12	0	0	0	0	504	603	179	517	38	0	
13	0	0	0	0	510	606	178	519	38	0	
14	0	0	0	0	495	608	179	520	38	0	
15	0	0	0	0	504	607	178	518	38	0	
0	0	0	0	0	490	606	178	516	38	0	
1	0	0	0	0	496	602	178	514	38	0	
2	0	0	0	0	508	600	177	511	38	0	
3	0	0	0	0	510	597	178	508	38	0	
4	0	0	0	0	509	595	178	507	38	0	
5	0	0	0	0	504	594	178	506	38	0	
6	0	0	0	0	524	593	179	507	38	0	
7	0	0	0	0	524	594	178	509	38	0	
8	0	0	0	0	522	598	179	508	38	0	
9	0	0	0	0	519	603	178	509	38	0	
10	0	0	0	0	519	608	178	513	38	0	
11	0	0	0	0	511	614	177	514	38	0	
12	0	0	0	0	507	619	177	521	38	0	
13	0	0	0	0	503	622	178	515	38	0	
14	0	0	0	0	504	624	179	516	38	0	
15	0	0	0	0	502	625	178	516	38	0	
0	0	0	0	0	500	624	178	515	38	0	
1	0	0	0	0	492	621	178	515	38	0	
2	0	0	0	0	505	618	178	512	38	0	
3	0	0	0	0	508	614	178	512	38	0	
4	0	0	0	0	502	611	177	510	38	0	
5	0	0	0	0	512	609	178	508	38	0	
6	0	0	0	0	510	611	179	507	38	0	
7	0	0	0	0	516	614	179	507	38	0	
8	0	0	0	0	520	617	179	509	38	0	
9	0	0	0	0	523	622	178	512	38	0	
10	0	0	0	0	526	628	178	524	38	0	
11	0	0	0	0	513	634	177	521	38	0	
12	0	0	0	0	510	639	179	531	38	0	
13	0	0	0	0	504	642	179	536	38	0	
14	0	0	0	0	495	644	178	537	38	0	
15	0	0	0	0	498	644	178	535	38	0	
0	0	0	0	0	494	639	178	530	38	0	
1	0	0	0	0	497	632	178	526	38	0	
2	0	0	0	0	495	622	177	523	38	0	
3	0	0	0	0	503	612	177	518	38	0	
4	0	0	0	0	508	604	178	514	38	0	
5	0	0	0	0	511	594	178	510	38	0	
6	0	0	0	0	514	587	179	507	38	0	
7	0	0	0	0	508	582	179	504	38	0	
8	0	0	0	0	524	579	179	504	38	0	
9	0	0	0	0	520	579	179	504	38	0	
10	0	0	0	0	518	579	179	505	38	0	
11	0	0	0	0	514	579	178	515	38	0	
12	0	0	0	0	497	578	178	510	38	0	
13	0	0	0	0	509	576	178	514	38	0	
14	0	0	0	0	510	572	179	517	38	0	
15	0	0	0	0	508	569	179	518	38	0	
0	0	0	0	0	498	566	179	519	38	0	
1	0	0	0	0	493	560	179	516	38	0	
2	0	0	0	0	495	554	179	516	38	0	
3	0	0	0	0	506	545	179	512	38	0	
4	0	0	0	0	502	536	179	509	38	0	
5	0	0	0	0	511	528	179	504	38	0	
6	0	0	0	0	506	521	179	504	38	0	
7	0	0	0	0	508	516	178	503	38	0	
8	0	0	0	0	522	511	178	503	38	0	
9	0	0	0	0	517	510	178	513	38	0	
10	0	0	0	0	518	511	179	505	38	0	
11	0	0	0	0	526	515	179	512	38	0	
12	0	0	0	0	508	521	179	515	38	0	
13	0	0	0	0	517	527	179	519	38	0	
14	0	0	0	0	507	533	179	519	38	0	
15	0	0	0	0	503	540	179	520	38	0	
0	0	0	0	0	501	546	178	519	38	0	
1	0	0	0	0	495	551	178	518	38	0	
2	0	0	0	0	497	552	178	517	38	0	
3	0	0	0	0	493	553	178	513	38	0	
4	0	0	0	0	497	553	178	510	38	0	
5	0	0	0	0	507	552	178	508	38	0	
6	0	0	0	0	508	552	179	506	38	0	
7	0	0	0	0	513	553	179	505	38	0	
8	0	0	0	0	519	555	179	504	38	0	
9	0	0	0	0	518	559	179	503	38	0	
10	0	0	0	0	521	564	179	502	38	0	
11	0	0	0	0	524	572	179	504	38	0	
12	0	0	0	0	516	580	178	504	38	0	
13	0	0	0	0	506	587	178	505	38	0	
14	0	0	0	0	509	595	178	510	38	0	
15	0	0	0	0	513	599	177	512	38	0	
0	0	0	0	0	499	603	178	517	38	0	
1	0	0	0	0	496	606	178	519	38	0	
2	0	0	0	0	495	606	178	520	38	0	
3	0	0	0	0	492	605	179	518	38	0	
4	0	0	0	0	497	603	179	516	38	0	
5	0	0	0	0	508	600	179	512	38	0	
6	0	0	0	0	507	596	179	510	38	0	
7	0	0	0	0	514	594	179	508	38	0	
8	0	0	0	0	513	592	178	507	38	0	
9	0	0	0	0	513	591	178	510	38	0	
10	0	0	0	0	523	592	179	503	38	0	
11	0	0	0	0	520	595	179	504	38	0	
12	0	0	0	0	525	599	179	505	38	0	
13	0	0	0	0	514	604	179	508	38	0	
14	0	0	0	0	508	609	179	510	38	0	
15	0	0	0	0	502	612	179	513	38	0	
0	0	0	0	0	498	614	179	514	38	0	
1	0	0	0	0	508	615	178	514	38	0	
2	0	0	0	0	496	615	178	518	38	0	
3	0	0	0	0	495	612	177	515	38	0	
4	0	0	0	0	499	608	178	514	38	0	
5	0	0	0	0	502	604	179	512	38	0	
6	0	0	0	0	504	597	179	521	38	0	
7	0	0	0	0	508	593	179	508	38	0	
8	0	0	0	0	513	589	179	506	38	0	
9	0	0	0	0	512	585	179	505	38	0	
10	0	0	0	0	510	583	179	503	38	0	
11	0	0	0	0	529	584	179	502	38	0	
12	0	0	0	0	519	587	179	502	38	0	
13	0	0	0	0	521	590	179	504	38	0	
14	0	0	0	0	510	594	178	509	38	0	
15	0	0	0	0	504	596	177	512	38	0	
0	0	0	0	0	507	599	177	515	38	0	
1	0	0	0	0	504	601	177	517	38	0	
2	0	0	0	0	505	602	177	517	38	0	
3	0	0	0	0	494	601	178	515	38	0	
4	0	0	0	0	495	599	178	515	38	0	
5	0	0	0	0	502	593	179	513	38	0	
6	0	0	0	0	504	586	179	511	38	0	
7	0	0	0	0	505	579	179	509	38	0	
8	0	0	0	0	506	574	179	518	38	0	
9	0	0	0	0	510	571	179	506	38	0	
10	0	0	0	0	514	568	179	505	38	0	
11	0	0	0	0	517	567	179	507	38	0	
12	0	0	0	0	521	568	179	508	38	0	
13	0	0	0	0	516	571	178	509	38	0	
14	0	0	0	0	523	575	178	512	38	0	
15	0	0	0	0	515	579	178	515	38	0	
0	0	0	0	0	509	583	178	518	38	0	
1	0	0	0	0	508	584	178	520	38	0	
2	0	0	0	0	498	586	178	520	38	0	
3	0	0	0	0	499	587	178	520	38	0	
4	0	0	0	0	499	585	178	519	38	0	
5	0	0	0	0	495	582	179	517	38	0	
6	0	0	0	0	499	575	179	514	38	0	
7	0	0	0	0	502	571	179	512	38	0	
8	0	0	0	0	504	566	179	511	38	0	
9	0	0	0	0	516	561	179	507	38	0	
10	0	0	0	0	505	557	179	507	38	0	
11	0	0	0	0	514	553	179	504	38	0	
12	0	0	0	0	513	552	179	504	38	0	
13	0	0	0	0	523	554	179	505	38	0	
14	0	0	0	0	521	556	179	508	38	0	
15	0	0	0	0	515	561	179	511	38	0	
0	0	0	0	0	506	564	179	514	38	0	
1	0	0	0	0	505	567	178	516	38	0	
2	0	0	0	0	503	570	178	516	38	0	
3	0	0	0	0	505	572	178	515	38	0	
4	0	0	0	0	499	573	178	514	38	0	
5	0	0	0	0	499	571	178	511	38	0	
6	0	0	0	0	501	568	178	509	38	0	
7	0	0	0	0	503	564	178	507	38	0	
8	0	0	0	0	504	559	178	505	38	0	
9	0	0	0	0	510	553	178	503	38	0	
10	0	0	0	0	499	550	178	503	38	0	
11	0	0	0	0	505	547	178	502	38	0	
12	0	0	0	0	520	546	178	500	38	0	
13	0	0	0	0	524	546	178	503	38	0	
14	0	0	0	0	525	549	178	505	38	0	
15	0	0	0	0	526	553	178	508	38	0	
0	0	0	0	0	508	557	179	511	38	0	
1	0	0	0	0	511	561	179	513	38	0	
2	0	0	0	0	505	564	179	516	38	0	
3	0	0	0	0	502	566	179	519	38	0	
4	0	0	0	0	506	567	179	519	38	0	
5	0	0	0	0	493	567	179	517	38	0	
6	0	0	0	0	492	564	179	516	38	0	
7	0	0	0	0	500	561	179	515	38	0	
8	0	0	0	0	505	556	179	512	38	0	
9	0	0	0	0	508	553	178	515	38	0	
10	0	0	0	0	506	550	178	505	38	0	
11	0	0	0	0	518	547	179	502	38	0	
12	0	0	0	0	507	545	179	500	38	0	
13	0	0	0	0	515	543	179	504	38	0	
14	0	0	0	0	518	545	179	500	38	0	
15	0	0	0	0	520	547	179	504	38	0	
0	0	0	0	0	520	552	178	507	38	0	
1	0	0	0	0	505	556	178	512	38	0	
2	0	0	0	0	504	560	178	514	38	0	
3	0	0	0	0	501	564	178	515	38	0	
4	0	0	0	0	510	566	178	517	38	0	
5	0	0	0	0	497	567	178	521	38	0	
6	0	0	0	0	499	565	179	514	38	0	
7	0	0	0	0	499	563	179	511	38	0	
8	0	0	0	0	501	559	179	510	38	0	
9	0	0	0	0	502	555	179	512	38	0	
10	0	0	0	0	505	552	179	507	38	0	
11	0	0	0	0	513	548	179	505	38	0	
12	0	0	0	0	520	545	179	506	38	0	
13	0	0	0	0	515	544	178	508	38	0	
14	0	0	0	0	516	546	178	508	38	0	
15	0	0	0	0	520	548	178	510	38	0	
0	0	0	0	0	520	552	178	510	38	0	
1	0	0	0	0	510	556	178	510	38	0	
2	0	0	0	0	503	559	178	512	38	0	
3	0	0	0	0	512	562	179	513	38	0	
4	0	0	0	0	509	563	179	516	38	0	
5	0	0	0	0	500	564	179	518	38	0	
6	0	0	0	0	496	565	179	519	38	0	
7	0	0	0	0	502	563	179	518	38	0	
8	0	0	0	0	498	560	179	516	38	0	
9	0	0	0	0	501	556	178	514	38	0	
10	0	0	0	0	500	552	178	511	38	0	
11	0	0	0	0	513	549	178	509	38	0	
12	0	0	0	0	510	545	178	508	38	0	
13	0	0	0	0	512	544	178	509	38	0	
14	0	0	0	0	516	544	178	504	38	0	
15	0	0	0	0	522	547	179	503	38	0	
0	0	0	0	0	519	550	179	503	38	0	
1	0	0	0	0	517	556	179	505	38	0	
2	0	0	0	0	502	562	179	508	38	0	
3	0	0	0	0	509	567	179	509	38	0	
4	0	0	0	0	510	571	178	515	38	0	
5	0	0	0	0	505	574	178	521	38	0	
6	0	0	0	0	505	575	178	526	38	0	
7	0	0	0	0	495	576	178	527	38	0	
8	0	0	0	0	494	575	178	525	38	0	
9	0	0	0	0	499	572	179	521	38	0	
10	0	0	0	0	499	568	179	518	38	0	
11	0	0	0	0	513	563	179	513	38	0	
12	0	0	0	0	508	560	179	509	38	0	
13	0	0	0	0	508	558	179	506	38	0	
14	0	0	0	0	511	556	179	504	38	0	
15	0	0	0	0	518	556	179	504	38	0	
0	0	0	0	0	519	559	178	505	38	0	
1	0	0	0	0	512	563	178	506	38	0	
2	0	0	0	0	522	568	178	505	38	0	
3	0	0	0	0	522	572	178	508	38	0	
4	0	0	0	0	507	577	178	510	38	0	
5	0	0	0	0	509	581	179	511	38	0	
6	0	0	0	0	508	583	179	514	38	0	
7	0	0	0	0	497	584	179	515	38	0	
8	0	0	0	0	495	583	179	515	38	0	
9	0	0	0	0	493	582	179	514	38	0	
10	0	0	0	0	501	579	178	512	38	0	
11	0	0	0	0	500	575	178	509	38	0	
12	0	0	0	0	511	571	178	507	38	0	
13	0	0	0	0	513	567	178	504	38	0	
14	0	0	0	0	514	565	178	502	38	0	
15	0	0	0	0	512	563	178	502	38	0	
0	0	0	0	0	520	563	179	499	38	0	
1	0	0	0	0	519	564	179	499	38	0	
2	0	0	0	0	516	567	179	501	38	0	
3	0	0	0	0	513	572	179	507	38	0	
4	0	0	0	0	512	576	179	506	38	0	
5	0	0	0	0	511	580	179	509	38	0	
6	0	0	0	0	504	583	179	510	38	0	
7	0	0	0	0	502	583	179	512	38	0	
8	0	0	0	0	490	584	179	509	38	0	
9	0	0	0	0	496	582	178	508	38	0	
10	0	0	0	0	491	579	178	506	38	0	
11	0	0	0	0	500	576	178	504	38	0	
12	0	0	0	0	509	572	178	504	38	0	
13	0	0	0	0	508	568	178	503	38	0	
14	0	0	0	0	515	565	178	501	38	0	
15	0	0	0	0	512	562	179	500	38	0	
0	0	0	0	0	515	560	179	502	38	0	
1	0	0	0	0	521	561	179	505	38	0	
2	0	0	0	0	519	564	179	505	38	0	
3	0	0	0	0	524	568	179	511	38	0	
4	0	0	0	0	512	572	179	520	38	0	
5	0	0	0	0	507	576	179	531	38	0	
6	0	0	0	0	510	578	179	525	38	0	
7	0	0	0	0	501	580	179	528	38	0	
8	0	0	0	0	501	580	179	528	38	0	
9	0	0	0	0	494	579	179	527	38	0	
10	0	0	0	0	497	577	178	524	38	0	
11	0	0	0	0	500	571	178	520	38	0	
12	0	0	0	0	506	568	178	516	38	0	
13	0	0	0	0	504	563	179	512	38	0	
14	0	0	0	0	512	559	179	507	38	0	
15	0	0	0	0	516	556	179	506	38	0	
0	0	0	0	0	518	553	179	505	38	0	
1	0	0	0	0	512	552	179	507	38	0	
2	0	0	0	0	523	553	179	508	38	0	
3	0	0	0	0	525	556	179	509	38	0	
4	0	0	0	0	511	561	178	511	38	0	
5	0	0	0	0	506	566	178	513	38	0	
6	0	0	0	0	513	569	178	515	38	0	
7	0	0	0	0	508	570	179	516	38	0	
8	0	0	0	0	504	572	179	517	38	0	
9	0	0	0	0	499	574	179	519	38	0	
10	0	0	0	0	496	572	179	525	38	0	
11	0	0	0	0	496	569	179	514	38	0	
12	0	0	0	0	502	564	179	510	38	0	
13	0	0	0	0	496	559	179	505	38	0	
14	0	0	0	0	507	554	179	503	38	0	
15	0	0	0	0	518	551	179	503	38	0	
0	0	0	0	0	510	550	179	501	38	0	
1	0	0	0	0	519	549	178	501	38	0	
2	0	0	0	0	517	550	178	502	38	0	
3	0	0	0	0	513	551	178	503	38	0	
4	0	0	0	0	524	553	178	505	38	0	
5	0	0	0	0	509	557	178	510	38	0	
6	0	0	0	0	508	560	178	513	38	0	
7	0	0	0	0	502	562	178	515	38	0	
8	0	0	0	0	509	563	179	516	38	0	
9	0	0	0	0	506	563	179	516	38	0	
10	0	0	0	0	501	563	179	515	38	0	
11	0	0	0	0	494	561	179	513	38	0	
12	0	0	0	0	503	557	179	515	38	0	
13	0	0	0	0	505	552	178	511	38	0	
14	0	0	0	0	505	547	178	508	38	0	
15	0	0	0	0	510	544	178	507	38	0	
0	0	0	0	0	511	542	178	504	38	0	
1	0	0	0	0	506	540	178	504	38	0	
2	0	0	0	0	515	537	179	505	38	0	
3	0	0	0	0	527	539	179	508	38	0	
4	0	0	0	0	513	542	179	511	38	0	
5	0	0	0	0	524	546	179	513	38	0	
6	0	0	0	0	519	551	179	517	38	0	
7	0	0	0	0	509	555	179	520	38	0	
8	0	0	0	0	499	558	179	524	38	0	
9	0	0	0	0	504	560	179	523	38	0	
10	0	0	0	0	507	563	178	521	38	0	
11	0	0	0	0	496	561	178	520	38	0	
12	0	0	0	0	491	558	178	523	38	0	
13	0	0	0	0	494	553	178	516	38	0	
14	0	0	0	0	502	547	178	515	38	0	
15	0	0	0	0	506	543	178	512	38	0	
0	0	0	0	0	514	539	178	510	38	0	
1	0	0	0	0	507	536	179	509	38	0	
2	0	0	0	0	512	535	179	507	38	0	
3	0	0	0	0	515	534	179	504	38	0	
4	0	0	0	0	521	536	179	514	38	0	
5	0	0	0	0	518	539	179	505	38	0	
6	0	0	0	0	521	543	179	510	38	0	
7	0	0	0	0	511	547	179	513	38	0	
8	0	0	0	0	504	550	179	515	38	0	
9	0	0	0	0	504	553	179	517	38	0	
10	0	0	0	0	506	554	179	515	38	0	
11	0	0	0	0	504	554	179	515	38	0	
12	0	0	0	0	497	552	178	516	38	0	
13	0	0	0	0	498	550	178	516	38	0	
14	0	0	0	0	503	545	178	512	38	0	
15	0	0	0	0	506	541	178	510	38	0	
0	0	0	0	0	497	537	178	509	38	0	
1	0	0	0	0	518	534	179	508	38	0	
2	0	0	0	0	514	531	179	506	38	0	
3	0	0	0	0	511	529	179	507	38	0	
4	0	0	0	0	516	529	179	507	38	0	
5	0	0	0	0	518	531	179	509	38	0	
6	0	0	0	0	518	536	179	512	38	0	
7	0	0	0	0	509	540	179	514	38	0	
8	0	0	0	0	508	544	179	516	38	0	
9	0	0	0	0	515	548	179	516	38	0	
10	0	0	0	0	506	552	179	517	38	0	
11	0	0	0	0	504	554	179	518	38	0	
12	0	0	0	0	502	556	179	519	38	0	
13	0	0	0	0	496	553	178	518	38	0	
14	0	0	0	0	497	550	178	515	38	0	
15	0	0	0	0	501	545	178	510	38	0	
0	0	0	0	0	496	541	179	509	38	0	
1	0	0	0	0	506	537	179	507	38	0	
2	0	0	0	0	515	534	179	507	38	0	
3	0	0	0	0	513	532	179	506	38	0	
4	0	0	0	0	518	531	179	505	38	0	
5	0	0	0	0	524	532	179	506	38	0	
6	0	0	0	0	523	536	179	506	38	0	
7	0	0	0	0	522	541	179	508	38	0	
8	0	0	0	0	509	545	179	510	38	0	
9	0	0	0	0	508	548	178	512	38	0	
10	0	0	0	0	504	550	178	514	38	0	
11	0	0	0	0	500	551	178	515	38	0	
12	0	0	0	0	496	553	178	513	38	0	
13	0	0	0	0	497	554	179	513	38	0	
14	0	0	0	0	503	553	179	512	38	0	
15	0	0	0	0	497	550	179	515	38	0	
0	0	0	0	0	502	546	179	509	38	0	
1	0	0	0	0	507	543	179	508	38	0	
2	0	0	0	0	509	541	179	507	38	0	
3	0	0	0	0	510	540	179	505	38	0	
4	0	0	0	0	513	539	179	504	38	0	
5	0	0	0	0	516	540	179	504	38	0	
6	0	0	0	0	525	543	178	506	38	0	
7	0	0	0	0	511	546	179	510	38	0	
8	0	0	0	0	515	551	179	514	38	0	
9	0	0	0	0	509	556	179	515	38	0	
10	0	0	0	0	506	560	179	517	38	0	
11	0	0	0	0	503	564	179	517	38	0	
12	0	0	0	0	505	566	179	519	38	0	
13	0	0	0	0	503	569	179	518	38	0	
14	0	0	0	0	498	568	179	517	38	0	
15	0	0	0	0	499	566	179	516	38	0	
0	0	0	0	0	496	561	178	513	38	0	
1	0	0	0	0	508	557	178	510	38	0	
2	0	0	0	0	506	552	178	509	38	0	
3	0	0	0	0	516	549	178	507	38	0	
4	0	0	0	0	519	548	179	505	38	0	
5	0	0	0	0	513	548	179	504	38	0	
6	0	0	0	0	511	551	179	505	38	0	
7	0	0	0	0	516	554	179	509	38	0	
8	0	0	0	0	515	558	179	511	38	0	
9	0	0	0	0	514	563	179	513	38	0	
10	0	0	0	0	500	567	179	518	38	0	
11	0	0	0	0	503	571	178	519	38	0	
12	0	0	0	0	499	574	178	521	38	0	
13	0	0	0	0	509	576	178	520	38	0	
14	0	0	0	0	498	576	178	521	38	0	
15	0	0	0	0	500	572	178	519	38	0	
0	0	0	0	0	499	568	179	517	38	0	
1	0	0	0	0	496	562	179	515	38	0	
2	0	0	0	0	504	558	179	512	38	0	
3	0	0	0	0	512	554	179	510	38	0	
4	0	0	0	0	512	551	179	508	38	0	
5	0	0	0	0	516	548	179	507	38	0	
6	0	0	0	0	513	546	179	505	38	0	
7	0	0	0	0	519	546	178	505	38	0	
8	0	0	0	0	518	549	178	507	38	0	
9	0	0	0	0	519	555	178	509	38	0	
10	0	0	0	0	510	559	178	511	38	0	
11	0	0	0	0	515	562	178	514	38	0	
12	0	0	0	0	504	565	178	520	38	0	
13	0	0	0	0	509	568	179	524	38	0	
14	0	0	0	0	497	571	179	525	38	0	
15	0	0	0	0	496	571	179	524	38	0	
0	0	0	0	0	500	569	179	528	38	0	
1	0	0	0	0	499	564	179	518	38	0	
2	0	0	0	0	505	560	179	516	38	0	
3	0	0	0	0	502	555	179	512	38	0	
4	0	0	0	0	503	551	179	511	38	0	
5	0	0	0	0	510	548	179	507	38	0	
6	0	0	0	0	511	546	179	507	38	0	
7	0	0	0	0	518	545	179	507	38	0	
8	0	0	0	0	521	545	179	508	38	0	
9	0	0	0	0	515	548	179	507	38	0	
10	0	0	0	0	515	552	179	508	38	0	
11	0	0	0	0	513	556	178	510	38	0	
12	0	0	0	0	509	560	178	511	38	0	
13	0	0	0	0	509	564	178	510	38	0	
14	0	0	0	0	505	566	179	511	38	0	
15	0	0	0	0	492	567	179	512	38	0	
0	0	0	0	0	498	567	179	510	38	0	
1	0	0	0	0	497	563	179	508	38	0	
2	0	0	0	0	499	558	179	509	38	0	
3	0	0	0	0	504	553	179	508	38	0	
4	0	0	0	0	509	550	179	512	38	0	
5	0	0	0	0	508	546	179	503	38	0	
6	0	0	0	0	516	544	178	501	38	0	
7	0	0	0	0	515	542	178	500	38	0	
8	0	0	0	0	522	542	178	500	38	0	
9	0	0	0	0	524	545	179	503	38	0	
10	0	0	0	0	514	549	179	506	38	0	
11	0	0	0	0	518	554	179	511	38	0	
12	0	0	0	0	503	558	179	515	38	0	
13	0	0	0	0	502	563	179	527	38	0	
14	0	0	0	0	504	566	179	520	38	0	
15	0	0	0	0	504	568	179	522	38	0	
0	0	0	0	0	500	570	179	523	38	0	
1	0	0	0	0	495	568	179	523	38	0	
2	0	0	0	0	502	564	179	521	38	0	
3	0	0	0	0	513	560	178	519	38	0	
4	0	0	0	0	500	557	178	514	38	0	
5	0	0	0	0	513	554	178	511	38	0	
6	0	0	0	0	511	551	178	509	38	0	
7	0	0	0	0	512	551	179	508	38	0	
8	0	0	0	0	514	551	179	508	38	0	
9	0	0	0	0	517	552	179	511	38	0	
10	0	0	0	0	517	556	179	512	38	0	
11	0	0	0	0	518	561	179	513	38	0	
12	0	0	0	0	506	567	178	515	38	0	
13	0	0	0	0	504	571	178	517	38	0	
14	0	0	0	0	501	574	178	518	38	0	
15	0	0	0	0	505	576	178	519	38	0	
0	0	0	0	0	507	579	179	518	38	0	
1	0	0	0	0	494	580	179	517	38	0	
2	0	0	0	0	505	578	179	513	38	0	
3	0	0	0	0	503	573	179	511	38	0	
4	0	0	0	0	502	568	179	509	38	0	
5	0	0	0	0	499	563	179	507	38	0	
6	0	0	0	0	510	559	179	504	38	0	
7	0	0	0	0	513	555	179	502	38	0	
8	0	0	0	0	517	551	178	502	38	0	
9	0	0	0	0	519	551	178	504	38	0	
10	0	0	0	0	519	553	178	504	38	0	
11	0	0	0	0	521	556	178	507	38	0	
12	0	0	0	0	524	561	178	509	38	0	
13	0	0	0	0	504	564	178	508	38	0	
14	0	0	0	0	511	569	178	508	38	0	
15	0	0	0	0	510	572	178	508	38	0	
0	0	0	0	0	504	575	178	512	38	0	
1	0	0	0	0	498	576	179	515	38	0	
2	0	0	0	0	500	575	179	517	38	0	
3	0	0	0	0	493	573	179	516	38	0	
4	0	0	0	0	500	569	179	515	38	0	
5	0	0	0	0	510	565	179	513	38	0	
6	0	0	0	0	508	560	179	509	38	0	
7	0	0	0	0	511	556	179	505	38	0	
8	0	0	0	0	516	554	179	504	38	0	
9	0	0	0	0	518	552	178	503	38	0	
10	0	0	0	0	516	552	178	503	38	0	
11	0	0	0	0	519	555	178	505	38	0	
12	0	0	0	0	519	559	178	508	38	0	
13	0	0	0	0	514	563	178	513	38	0	
14	0	0	0	0	502	568	179	516	38	0	
15	0	0	0	0	503	572	179	524	38	0	
0	0	0	0	0	504	575	179	522	38	0	
1	0	0	0	0	506	576	179	523	38	0	
2	0	0	0	0	502	578	179	522	38	0	
3	0	0	0	0	495	575	179	520	38	0	
4	0	0	0	0	491	571	179	518	38	0	
5	0	0	0	0	507	567	179	515	38	0	
6	0	0	0	0	504	562	179	513	38	0	
7	0	0	0	0	507	560	179	510	38	0	
8	0	0	0	0	507	556	179	508	38	0	
9	0	0	0	0	518	553	179	506	38	0	
10	0	0	0	0	522	553	179	505	38	0	
11	0	0	0	0	518	555	178	504	38	0	
12	0	0	0	0	519	558	178	504	38	0	
13	0	0	0	0	523	563	179	507	38	0	
14	0	0	0	0	512	566	179	510	38	0	
15	0	0	0	0	512	569	179	513	38	0	
0	0	0	0	0	507	572	179	528	38	0	
1	0	0	0	0	499	574	179	518	38	0	
2	0	0	0	0	504	573	179	518	38	0	
3	0	0	0	0	495	572	179	519	38	0	
4	0	0	0	0	495	569	179	519	38	0	
5	0	0	0	0	498	563	179	514	38	0	
6	0	0	0	0	501	559	179	511	38	0	
7	0	0	0	0	507	555	179	507	38	0	
8	0	0	0	0	510	551	179	504	38	0	
9	0	0	0	0	517	550	179	503	38	0	
10	0	0	0	0	515	547	179	501	38	0	
11	0	0	0	0	521	547	179	502	38	0	
12	0	0	0	0	517	547	179	503	38	0	
13	0	0	0	0	516	550	179	504	38	0	
14	0	0	0	0	514	555	179	507	38	0	
15	0	0	0	0	511	559	178	508	38	0	
0	0	0	0	0	506	562	178	512	38	0	
1	0	0	0	0	511	565	178	514	38	0	
2	0	0	0	0	505	567	178	516	38	0	
3	0	0	0	0	505	569	178	517	38	0	
4	0	0	0	0	490	567	178	518	38	0	
5	0	0	0	0	485	564	179	515	38	0	
6	0	0	0	0	495	559	179	513	38	0	
7	0	0	0	0	503	554	179	511	38	0	
8	0	0	0	0	512	550	179	510	38	0	
9	0	0	0	0	514	546	179	508	38	0	
10	0	0	0	0	511	543	179	507	38	0	
11	0	0	0	0	513	541	179	504	38	0	
12	0	0	0	0	527	542	179	505	38	0	
13	0	0	0	0	512	544	179	508	38	0	
14	0	0	0	0	524	547	178	510	38	0	
15	0	0	0	0	512	551	178	513	38	0	
0	0	0	0	0	512	553	179	515	38	0	
1	0	0	0	0	515	556	179	518	38	0	
2	0	0	0	0	504	557	179	520	38	0	
3	0	0	0	0	501	558	179	520	38	0	
4	0	0	0	0	493	558	179	521	38	0	
5	0	0	0	0	497	554	178	519	38	0	
6	0	0	0	0	496	550	178	516	38	0	
7	0	0	0	0	508	545	178	518	38	0	
8	0	0	0	0	504	541	178	511	38	0	
9	0	0	0	0	505	537	179	509	38	0	
10	0	0	0	0	503	532	179	506	38	0	
11	0	0	0	0	509	531	179	507	38	0	
12	0	0	0	0	520	529	179	504	38	0	
13	0	0	0	0	527	530	179	504	38	0	
14	0	0	0	0	517	532	179	507	38	0	
15	0	0	0	0	510	536	179	512	38	0	
0	0	0	0	0	508	540	178	512	38	0	
1	0	0	0	0	508	543	178	517	38	0	
2	0	0	0	0	505	544	179	519	38	0	
3	0	0	0	0	508	546	179	521	38	0	
4	0	0	0	0	505	548	179	519	38	0	
5	0	0	0	0	492	547	179	518	38	0	
6	0	0	0	0	497	546	179	515	38	0	
7	0	0	0	0	496	542	179	515	38	0	
8	0	0	0	0	501	539	179	511	38	0	
9	0	0	0	0	509	536	179	509	38	0	
10	0	0	0	0	507	531	179	507	38	0	
11	0	0	0	0	519	529	179	506	38	0	
12	0	0	0	0	515	528	179	505	38	0	
13	0	0	0	0	517	528	179	505	38	0	
14	0	0	0	0	524	531	178	504	38	0	
15	0	0	0	0	509	534	179	507	38	0	
0	0	0	0	0	523	539	179	508	38	0	
1	0	0	0	0	514	543	179	511	38	0	
2	0	0	0	0	509	547	179	525	38	0	
3	0	0	0	0	506	550	179	514	38	0	
4	0	0	0	0	512	553	179	513	38	0	
5	0	0	0	0	499	554	179	512	38	0	
6	0	0	0	0	499	551	179	511	38	0	
7	0	0	0	0	496	548	179	509	38	0	
8	0	0	0	0	494	542	179	508	38	0	
9	0	0	0	0	498	536	179	507	38	0	
10	0	0	0	0	508	532	179	504	38	0	
11	0	0	0	0	510	528	179	504	38	0	
12	0	0	0	0	507	527	179	505	38	0	
13	0	0	0	0	516	527	179	507	38	0	
14	0	0	0	0	515	527	179	508	38	0	
15	0	0	0	0	525	529	178	507	38	0	
0	0	0	0	0	517	532	179	509	38	0	
1	0	0	0	0	515	536	179	512	38	0	
2	0	0	0	0	508	540	179	514	38	0	
3	0	0	0	0	506	542	179	515	38	0	
4	0	0	0	0	512	544	179	517	38	0	
5	0	0	0	0	500	547	179	516	38	0	
6	0	0	0	0	501	547	179	516	38	0	
7	0	0	0	0	499	546	179	515	38	0	
8	0	0	0	0	499	543	179	514	38	0	
9	0	0	0	0	504	540	178	513	38	0	
10	0	0	0	0	502	535	178	511	38	0	
11	0	0	0	0	507	531	178	509	38	0	
12	0	0	0	0	512	528	178	508	38	0	
13	0	0	0	0	510	528	179	509	38	0	
14	0	0	0	0	515	528	179	510	38	0	
15	0	0	0	0	525	530	179	512	38	0	
0	0	0	0	0	520	534	179	512	38	0	
1	0	0	0	0	515	538	179	513	38	0	
2	0	0	0	0	509	542	179	516	38	0	
3	0	0	0	0	511	546	179	518	38	0	
4	0	0	0	0	515	549	179	518	38	0	
5	0	0	0	0	505	552	179	521	38	0	
6	0	0	0	0	498	555	178	522	38	0	
7	0	0	0	0	489	554	178	523	38	0	
8	0	0	0	0	496	553	178	530	38	0	
9	0	0	0	0	497	548	179	519	38	0	
10	0	0	0	0	504	543	179	517	38	0	
11	0	0	0	0	508	539	179	514	38	0	
12	0	0	0	0	507	535	179	510	38	0	
13	0	0	0	0	514	533	179	510	38	0	
14	0	0	0	0	514	533	179	508	38	0	
15	0	0	0	0	521	534	179	507	38	0	
0	0	0	0	0	525	536	179	507	38	0	
1	0	0	0	0	515	539	179	511	38	0	
2	0	0	0	0	519	544	179	508	38	0	
3	0	0	0	0	518	549	179	511	38	0	
4	0	0	0	0	512	553	179	513	38	0	
5	0	0	0	0	504	556	179	515	38	0	
6	0	0	0	0	504	560	179	516	38	0	
7	0	0	0	0	492	561	178	517	38	0	
8	0	0	0	0	500	560	178	515	38	0	
9	0	0	0	0	503	559	178	515	38	0	
10	0	0	0	0	499	553	178	517	38	0	
11	0	0	0	0	503	549	178	511	38	0	
12	0	0	0	0	504	545	178	509	38	0	
13	0	0	0	0	507	541	179	507	38	0	
14	0	0	0	0	516	540	179	507	38	0	
15	0	0	0	0	511	540	179	507	38	0	
0	0	0	0	0	517	540	179	506	38	0	
1	0	0	0	0	521	544	179	507	38	0	
2	0	0	0	0	523	548	179	509	38	0	
3	0	0	0	0	515	552	179	511	38	0	
4	0	0	0	0	505	556	179	514	38	0	
5	0	0	0	0	511	557	178	518	38	0	
6	0	0	0	0	511	559	178	518	38	0	
7	0	0	0	0	496	561	178	519	38	0	
8	0	0	0	0	494	561	178	515	38	0	
9	0	0	0	0	498	559	178	512	38	0	
10	0	0	0	0	493	558	179	511	38	0	
11	0	0	0	0	503	553	179	508	38	0	
12	0	0	0	0	512	549	179	505	38	0	
13	0	0	0	0	505	545	179	507	38	0	
14	0	0	0	0	515	541	179	504	38	0	
15	0	0	0	0	514	541	179	504	38	0	
0	0	0	0	0	517	539	179	504	38	0	
1	0	0	0	0	524	540	179	504	38	0	
2	0	0	0	0	518	544	179	505	38	0	
3	0	0	0	0	519	549	179	508	38	0	
4	0	0	0	0	521	555	179	512	38	0	
5	0	0	0	0	511	558	179	516	38	0	
6	0	0	0	0	507	561	178	519	38	0	
7	0	0	0	0	499	564	178	523	38	0	
8	0	0	0	0	499	567	178	524	38	0	
9	0	0	0	0	493	566	179	524	38	0	
10	0	0	0	0	497	564	179	523	38	0	
11	0	0	0	0	499	559	179	519	38	0	
12	0	0	0	0	504	556	179	516	38	0	
13	0	0	0	0	506	551	179	513	38	0	
14	0	0	0	0	511	547	179	511	38	0	
15	0	0	0	0	522	545	179	507	38	0	
0	0	0	0	0	508	543	179	507	38	0	
1	0	0	0	0	517	543	179	506	38	0	
2	0	0	0	0	528	543	179	510	38	0	
3	0	0	0	0	516	547	179	512	38	0	
4	0	0	0	0	516	551	179	515	38	0	
5	0	0	0	0	509	555	179	518	38	0	
6	0	0	0	0	508	558	179	519	38	0	
7	0	0	0	0	503	560	179	519	38	0	
8	0	0	0	0	501	563	179	519	38	0	
9	0	0	0	0	498	563	179	518	38	0	
10	0	0	0	0	496	562	179	527	38	0	
11	0	0	0	0	496	561	179	511	38	0	
12	0	0	0	0	499	556	178	508	38	0	
13	0	0	0	0	504	553	178	506	38	0	
14	0	0	0	0	508	550	178	503	38	0	
15	0	0	0	0	517	545	178	502	38	0	
0	0	0	0	0	521	543	179	504	38	0	
1	0	0	0	0	518	543	179	504	38	0	
2	0	0	0	0	519	543	179	506	38	0	
3	0	0	0	0	524	546	179	505	38	0	
4	0	0	0	0	517	549	179	507	38	0	
5	0	0	0	0	508	554	179	510	38	0	
6	0	0	0	0	510	558	179	519	38	0	
7	0	0	0	0	504	560	179	513	38	0	
8	0	0	0	0	512	563	179	515	38	0	
9	0	0	0	0	499	566	179	515	38	0	
10	0	0	0	0	496	566	179	513	38	0	
11	0	0	0	0	499	564	179	511	38	0	
12	0	0	0	0	486	560	179	509	38	0	
13	0	0	0	0	498	556	179	507	38	0	
14	0	0	0	0	505	551	179	505	38	0	
15	0	0	0	0	509	548	179	502	38	0	
0	0	0	0	0	513	545	179	504	38	0	
1	0	0	0	0	519	545	179	505	38	0	
2	0	0	0	0	516	544	179	506	38	0	
3	0	0	0	0	518	545	178	507	38	0	
4	0	0	0	0	524	550	178	513	38	0	
5	0	0	0	0	516	553	178	512	38	0	
6	0	0	0	0	508	557	178	514	38	0	
7	0	0	0	0	508	561	178	515	38	0	
8	0	0	0	0	507	564	179	521	38	0	
9	0	0	0	0	502	567	179	526	38	0	
10	0	0	0	0	499	568	179	530	38	0	
11	0	0	0	0	501	566	179	527	38	0	
12	0	0	0	0	499	563	179	527	38	0	
13	0	0	0	0	505	558	179	523	38	0	
14	0	0	0	0	504	555	179	531	38	0	
15	0	0	0	0	505	551	178	515	38	0	
0	0	0	0	0	513	548	179	513	38	0	
1	0	0	0	0	516	546	179	510	38	0	
2	0	0	0	0	514	547	179	508	38	0	
3	0	0	0	0	515	548	179	505	38	0	
4	0	0	0	0	521	550	179	506	38	0	
5	0	0	0	0	509	554	179	510	38	0	
6	0	0	0	0	521	559	179	514	38	0	
7	0	0	0	0	514	563	179	520	38	0	
8	0	0	0	0	510	568	179	519	38	0	
9	0	0	0	0	510	569	179	521	38	0	
10	0	0	0	0	500	572	179	520	38	0	
11	0	0	0	0	492	572	179	519	38	0	
12	0	0	0	0	498	571	179	516	38	0	
13	0	0	0	0	499	569	179	516	38	0	
14	0	0	0	0	499	565	178	513	38	0	
15	0	0	0	0	499	560	179	510	38	0	
0	0	0	0	0	511	554	179	509	38	0	
1	0	0	0	0	518	549	179	507	38	0	
2	0	0	0	0	508	548	179	507	38	0	
3	0	0	0	0	515	548	179	505	38	0	
4	0	0	0	0	523	548	179	507	38	0	
5	0	0	0	0	524	551	179	506	38	0	
6	0	0	0	0	524	555	179	507	38	0	
7	0	0	0	0	515	560	179	510	38	0	
8	0	0	0	0	505	563	178	517	38	0	
9	0	0	0	0	506	565	179	515	38	0	
10	0	0	0	0	503	567	179	517	38	0	
11	0	0	0	0	506	568	179	519	38	0	
12	0	0	0	0	491	567	179	529	38	0	
13	0	0	0	0	492	565	179	515	38	0	
14	0	0	0	0	496	562	179	513	38	0	
15	0	0	0	0	498	558	179	512	38	0	
0	0	0	0	0	508	553	179	518	38	0	
1	0	0	0	0	508	550	179	508	38	0	
2	0	0	0	0	511	544	179	507	38	0	
3	0	0	0	0	519	542	179	506	38	0	
4	0	0	0	0	515	539	178	505	38	0	
5	0	0	0	0	529	539	178	504	38	0	
6	0	0	0	0	523	541	179	505	38	0	
7	0	0	0	0	526	543	179	507	38	0	
8	0	0	0	0	514	545	179	511	38	0	
9	0	0	0	0	510	547	179	514	38	0	
10	0	0	0	0	502	548	179	516	38	0	
11	0	0	0	0	502	550	179	518	38	0	
12	0	0	0	0	492	551	179	518	38	0	
13	0	0	0	0	492	548	179	515	38	0	
14	0	0	0	0	505	545	179	512	38	0	
15	0	0	0	0	493	540	179	511	38	0	
0	0	0	0	0	506	535	179	510	38	0	
1	0	0	0	0	503	529	179	508	38	0	
2	0	0	0	0	507	526	179	507	38	0	
3	0	0	0	0	518	525	179	504	38	0	
4	0	0	0	0	509	524	179	504	38	0	
5	0	0	0	0	521	524	179	502	38	0	
6	0	0	0	0	526	526	179	503	38	0	
7	0	0	0	0	514	529	179	504	38	0	
8	0	0	0	0	513	533	179	506	38	0	
9	0	0	0	0	512	537	179	508	38	0	
10	0	0	0	0	510	539	179	513	38	0	
11	0	0	0	0	503	541	179	515	38	0	
12	0	0	0	0	501	545	179	516	38	0	
13	0	0	0	0	495	548	179	515	38	0	
14	0	0	0	0	499	547	179	512	38	0	
15	0	0	0	0	492	545	179	510	38	0	
0	0	0	0	0	497	540	179	514	38	0	
1	0	0	0	0	512	536	179	505	38	0	
2	0	0	0	0	505	533	179	506	38	0	
3	0	0	0	0	505	529	179	506	38	0	
4	0	0	0	0	520	528	179	515	38	0	
5	0	0	0	0	520	527	179	508	38	0	
6	0	0	0	0	518	528	179	508	38	0	
7	0	0	0	0	518	531	179	510	38	0	
8	0	0	0	0	516	535	179	511	38	0	
9	0	0	0	0	513	539	179	512	38	0	
10	0	0	0	0	511	543	179	514	38	0	
11	0	0	0	0	508	545	179	514	38	0	
12	0	0	0	0	515	547	179	515	38	0	
13	0	0	0	0	505	548	179	516	38	0	
14	0	0	0	0	490	548	179	517	38	0	
15	0	0	0	0	495	546	179	515	38	0	
0	0	0	0	0	493	543	179	512	38	0	
1	0	0	0	0	495	540	179	511	38	0	
2	0	0	0	0	503	537	179	509	38	0	
3	0	0	0	0	515	534	179	511	38	0	
4	0	0	0	0	513	532	179	505	38	0	
5	0	0	0	0	514	533	179	505	38	0	
6	0	0	0	0	512	534	179	505	38	0	
7	0	0	0	0	527	534	179	508	38	0	
8	0	0	0	0	515	537	179	509	38	0	
9	0	0	0	0	516	541	179	510	38	0	
10	0	0	0	0	514	545	179	513	38	0	
11	0	0	0	0	503	549	180	515	38	0	
12	0	0	0	0	505	551	179	515	38	0	
13	0	0	0	0	507	555	179	516	38	0	
14	0	0	0	0	494	557	179	517	38	0	
15	0	0	0	0	495	556	179	523	38	0	
0	0	0	0	0	500	554	179	513	38	0	
1	0	0	0	0	494	549	179	512	38	0	
2	0	0	0	0	505	544	179	510	38	0	
3	0	0	0	0	509	541	179	508	38	0	
4	0	0	0	0	514	537	179	506	38	0	
5	0	0	0	0	512	535	179	504	38	0	
6	0	0	0	0	512	534	180	505	38	0	
7	0	0	0	0	516	535	179	506	38	0	
8	0	0	0	0	521	537	179	508	38	0	
9	0	0	0	0	521	541	179	511	38	0	
10	0	0	0	0	515	544	179	513	38	0	
11	0	0	0	0	511	547	179	514	38	0	
12	0	0	0	0	515	550	179	515	38	0	
13	0	0	0	0	505	551	179	515	38	0	
14	0	0	0	0	510	553	179	515	38	0	
15	0	0	0	0	489	553	179	515	38	0	
0	0	0	0	0	499	550	179	512	38	0	
1	0	0	0	0	503	547	178	510	38	0	
2	0	0	0	0	497	541	179	508	38	0	
3	0	0	0	0	505	538	179	506	38	0	
4	0	0	0	0	506	535	179	506	38	0	
5	0	0	0	0	511	531	179	504	38	0	
6	0	0	0	0	518	530	179	504	38	0	
7	0	0	0	0	507	529	179	503	38	0	
8	0	0	0	0	519	529	179	502	38	0	
9	0	0	0	0	525	533	179	505	38	0	
10	0	0	0	0	518	537	179	506	38	0	
11	0	0	0	0	515	541	179	508	38	0	
12	0	0	0	0	508	544	179	511	38	0	
13	0	0	0	0	505	547	179	513	38	0	
14	0	0	0	0	510	548	179	517	38	0	
15	0	0	0	0	493	550	179	516	38	0	
0	0	0	0	0	487	551	179	519	38	0	
1	0	0	0	0	502	548	179	517	38	0	
2	0	0	0	0	494	545	179	516	38	0	
3	0	0	0	0	502	540	179	515	38	0	
4	0	0	0	0	512	536	179	514	38	0	
5	0	0	0	0	509	534	179	510	38	0	
6	0	0	0	0	515	531	179	510	38	0	
7	0	0	0	0	510	531	179	510	38	0	
8	0	0	0	0	517	531	179	508	38	0	
9	0	0	0	0	523	532	179	510	38	0	
10	0	0	0	0	523	537	179	511	38	0	
11	0	0	0	0	513	541	179	514	38	0	
12	0	0	0	0	515	546	179	517	38	0	
13	0	0	0	0	512	550	179	519	38	0	
14	0	0	0	0	502	552	179	519	38	0	
15	0	0	0	0	505	556	179	519	38	0	
0	0	0	0	0	495	558	179	520	38	0	
1	0	0	0	0	496	556	179	519	38	0	
2	0	0	0	0	497	553	179	518	38	0	
3	0	0	0	0	498	549	179	513	38	0	
4	0	0	0	0	512	544	179	511	38	0	
5	0	0	0	0	504	540	179	510	38	0	
6	0	0	0	0	509	536	180	508	38	0	
7	0	0	0	0	520	532	179	506	38	0	
8	0	0	0	0	516	530	179	505	38	0	
9	0	0	0	0	512	531	179	505	38	0	
10	0	0	0	0	527	532	179	505	38	0	
11	0	0	0	0	516	536	179	509	38	0	
12	0	0	0	0	511	539	179	509	38	0	
13	0	0	0	0	510	543	179	515	38	0	
14	0	0	0	0	504	547	179	519	38	0	
15	0	0	0	0	508	550	179	523	38	0	
0	0	0	0	0	510	553	179	519	38	0	
1	0	0	0	0	491	554	179	520	38	0	
2	0	0	0	0	504	552	179	517	38	0	
3	0	0	0	0	504	551	179	515	38	0	
4	0	0	0	0	489	545	179	513	38	0	
5	0	0	0	0	508	541	179	512	38	0	
6	0	0	0	0	509	537	180	510	38	0	
7	0	0	0	0	510	534	179	518	38	0	
8	0	0	0	0	523	533	179	507	38	0	
9	0	0	0	0	515	532	180	506	38	0	
10	0	0	0	0	524	535	179	508	38	0	
11	0	0	0	0	519	540	179	508	38	0	
12	0	0	0	0	510	545	179	508	38	0	
13	0	0	0	0	513	552	179	509	38	0	
14	0	0	0	0	499	558	179	508	38	0	
15	0	0	0	0	500	562	179	510	38	0	
0	0	0	0	0	511	565	179	524	38	0	
1	0	0	0	0	512	568	179	513	38	0	
2	0	0	0	0	489	568	179	515	38	0	
3	0	0	0	0	493	566	179	513	38	0	
4	0	0	0	0	496	561	179	516	38	0	
5	0	0	0	0	507	556	179	509	38	0	
6	0	0	0	0	509	551	179	507	38	0	
7	0	0	0	0	514	549	179	508	38	0	
8	0	0	0	0	511	546	179	505	38	0	
9	0	0	0	0	513	547	179	507	38	0	
10	0	0	0	0	511	549	179	508	38	0	
11	0	0	0	0	525	553	179	509	38	0	
12	0	0	0	0	517	559	179	510	38	0	
13	0	0	0	0	519	566	179	513	38	0	
14	0	0	0	0	516	573	179	518	38	0	
15	0	0	0	0	507	579	179	532	38	0	
0	0	0	0	0	506	584	179	524	38	0	
1	0	0	0	0	508	590	179	524	38	0	
2	0	0	0	0	502	595	179	521	38	0	
3	0	0	0	0	491	596	179	519	38	0	
4	0	0	0	0	495	597	179	515	38	0	
5	0	0	0	0	499	595	179	513	38	0	
6	0	0	0	0	504	593	179	511	38	0	
7	0	0	0	0	504	590	179	509	38	0	
8	0	0	0	0	508	585	179	508	38	0	
9	0	0	0	0	514	580	179	507	38	0	
10	0	0	0	0	510	576	179	507	38	0	
11	0	0	0	0	519	572	179	506	38	0	
12	0	0	0	0	521	568	179	507	38	0	
13	0	0	0	0	526	566	179	508	38	0	
14	0	0	0	0	513	565	179	513	38	0	
15	0	0	0	0	515	562	179	510	38	0	
0	0	0	0	0	507	559	180	512	38	0	
1	0	0	0	0	500	554	179	512	38	0	
2	0	0	0	0	500	551	179	513	38	0	
3	0	0	0	0	498	548	179	511	38	0	
4	0	0	0	0	497	542	179	510	38	0	
5	0	0	0	0	496	537	179	509	38	0	
6	0	0	0	0	502	528	179	507	38	0	
7	0	0	0	0	506	519	179	506	38	0	
8	0	0	0	0	513	509	179	504	38	0	
9	0	0	0	0	511	500	179	504	38	0	
10	0	0	0	0	513	496	179	504	38	0	
11	0	0	0	0	514	491	179	504	38	0	
12	0	0	0	0	520	489	179	506	38	0	
13	0	0	0	0	519	488	179	507	38	0	
14	0	0	0	0	516	489	179	511	38	0	
15	0	0	0	0	513	491	179	516	38	0	
0	0	0	0	0	508	491	179	521	38	0	
1	0	0	0	0	507	490	179	521	38	0	
2	0	0	0	0	512	489	180	523	38	0	
3	0	0	0	0	504	488	180	524	38	0	
4	0	0	0	0	494	484	180	521	38	0	
5	0	0	0	0	497	480	179	519	38	0	
6	0	0	0	0	496	475	179	517	38	0	
7	0	0	0	0	502	471	179	513	38	0	
8	0	0	0	0	505	468	180	511	38	0	
9	0	0	0	0	507	467	180	508	38	0	
10	0	0	0	0	515	469	180	505	38	0	
11	0	0	0	0	519	473	180	506	38	0	
12	0	0	0	0	516	478	180	506	38	0	
13	0	0	0	0	518	484	180	507	38	0	
14	0	0	0	0	519	493	180	508	38	0	
15	0	0	0	0	508	501	180	512	38	0	
0	0	0	0	0	508	509	180	514	38	0	
1	0	0	0	0	504	515	179	514	38	0	
2	0	0	0	0	510	520	179	515	38	0	
3	0	0	0	0	503	526	179	517	38	0	
4	0	0	0	0	505	533	179	517	38	0	
5	0	0	0	0	492	536	179	516	38	0	
6	0	0	0	0	500	537	179	515	38	0	
7	0	0	0	0	493	536	179	513	38	0	
8	0	0	0	0	507	535	179	510	38	0	
9	0	0	0	0	509	533	179	508	38	0	
10	0	0	0	0	510	531	179	504	38	0	
11	0	0	0	0	521	531	179	503	38	0	
12	0	0	0	0	515	532	179	503	38	0	
13	0	0	0	0	515	534	179	504	38	0	
14	0	0	0	0	522	539	179	515	38	0	
15	0	0	0	0	516	545	179	508	38	0	
0	0	0	0	0	518	550	179	510	38	0	
1	0	0	0	0	512	554	179	515	38	0	
2	0	0	0	0	507	558	179	519	38	0	
3	0	0	0	0	503	560	179	520	38	0	
4	0	0	0	0	504	563	179	522	38	0	
5	0	0	0	0	496	564	179	522	38	0	
6	0	0	0	0	493	561	179	521	38	0	
7	0	0	0	0	497	559	180	519	38	0	
8	0	0	0	0	490	553	179	517	38	0	
9	0	0	0	0	507	548	179	515	38	0	
10	0	0	0	0	512	543	179	512	38	0	
11	0	0	0	0	511	538	179	510	38	0	
12	0	0	0	0	512	537	179	508	38	0	
13	0	0	0	0	521	536	179	508	38	0	
14	0	0	0	0	519	537	179	507	38	0	
15	0	0	0	0	522	542	179	517	38	0	
0	0	0	0	0	513	546	179	510	38	0	
1	0	0	0	0	511	551	179	514	38	0	
2	0	0	0	0	501	554	179	516	38	0	
3	0	0	0	0	509	556	179	518	38	0	
4	0	0	0	0	499	557	179	519	38	0	
5	0	0	0	0	506	560	179	519	38	0	
6	0	0	0	0	500	561	179	518	38	0	
7	0	0	0	0	503	560	179	517	38	0	
8	0	0	0	0	496	559	179	516	38	0	
9	0	0	0	0	504	555	179	514	38	0	
10	0	0	0	0	504	552	179	513	38	0	
11	0	0	0	0	518	549	179	510	38	0	
12	0	0	0	0	520	546	179	507	38	0	
13	0	0	0	0	510	545	179	505	38	0	
14	0	0	0	0	514	546	179	505	38	0	
15	0	0	0	0	519	548	179	508	38	0	
0	0	0	0	0	519	551	179	511	38	0	
1	0	0	0	0	518	554	179	513	38	0	
2	0	0	0	0	508	558	179	514	38	0	
3	0	0	0	0	508	563	179	515	38	0	
4	0	0	0	0	505	566	179	518	38	0	
5	0	0	0	0	507	570	179	519	38	0	
6	0	0	0	0	498	573	179	520	38	0	
7	0	0	0	0	496	572	179	520	38	0	
8	0	0	0	0	501	569	179	519	38	0	
9	0	0	0	0	495	565	179	517	38	0	
10	0	0	0	0	506	561	179	514	38	0	
11	0	0	0	0	510	558	179	511	38	0	
12	0	0	0	0	505	554	179	508	38	0	
13	0	0	0	0	511	551	179	506	38	0	
14	0	0	0	0	513	551	179	507	38	0	
15	0	0	0	0	515	551	179	511	38	0	
0	0	0	0	0	528	554	179	510	38	0	
1	0	0	0	0	518	558	179	513	38	0	
2	0	0	0	0	511	562	179	519	38	0	
3	0	0	0	0	505	565	179	521	38	0	
4	0	0	0	0	508	568	179	521	38	0	
5	0	0	0	0	500	570	179	522	38	0	
6	0	0	0	0	500	572	179	521	38	0	
7	0	0	0	0	493	573	179	520	38	0	
8	0	0	0	0	496	570	179	515	38	0	
9	0	0	0	0	498	568	179	513	38	0	
10	0	0	0	0	508	562	179	511	38	0	
11	0	0	0	0	508	558	179	510	38	0	
12	0	0	0	0	515	555	179	508	38	0	
13	0	0	0	0	510	551	179	507	38	0	
14	0	0	0	0	509	551	180	507	38	0	
15	0	0	0	0	520	551	179	505	38	0	
0	0	0	0	0	525	553	179	506	38	0	
1	0	0	0	0	525	558	179	508	38	0	
2	0	0	0	0	512	564	179	509	38	0	
3	0	0	0	0	510	569	179	514	38	0	
4	0	0	0	0	507	574	179	518	38	0	
5	0	0	0	0	509	577	179	520	38	0	
6	0	0	0	0	507	580	179	521	38	0	
7	0	0	0	0	503	582	178	520	38	0	
8	0	0	0	0	498	581	178	517	38	0	
9	0	0	0	0	497	578	178	516	38	0	
10	0	0	0	0	495	574	179	514	38	0	
11	0	0	0	0	500	568	179	511	38	0	
12	0	0	0	0	502	563	179	508	38	0	
13	0	0	0	0	504	558	180	505	38	0	
14	0	0	0	0	513	553	180	503	38	0	
15	0	0	0	0	517	552	180	502	38	0	
0	0	0	0	0	519	551	179	512	38	0	
1	0	0	0	0	518	552	180	504	38	0	
2	0	0	0	0	520	556	180	507	38	0	
3	0	0	0	0	523	560	179	509	38	0	
4	0	0	0	0	515	563	179	511	38	0	
5	0	0	0	0	511	566	179	511	38	0	
6	0	0	0	0	497	567	179	513	38	0	
7	0	0	0	0	505	568	179	513	38	0	
8	0	0	0	0	494	568	179	514	38	0	
9	0	0	0	0	492	566	179	512	38	0	
10	0	0	0	0	500	563	180	512	38	0	
11	0	0	0	0	497	557	179	510	38	0	
12	0	0	0	0	511	551	180	508	38	0	
13	0	0	0	0	511	546	179	505	38	0	
14	0	0	0	0	507	541	179	504	38	0	
15	0	0	0	0	509	537	180	503	38	0	
0	0	0	0	0	507	535	179	501	38	0	
1	0	0	0	0	516	534	179	501	38	0	
2	0	0	0	0	523	535	179	502	38	0	
3	0	0	0	0	521	539	179	505	38	0	
4	0	0	0	0	510	542	179	508	38	0	
5	0	0	0	0	514	545	179	512	38	0	
6	0	0	0	0	508	549	179	515	38	0	
7	0	0	0	0	506	551	179	515	38	0	
8	0	0	0	0	508	552	179	515	38	0	
9	0	0	0	0	491	552	179	513	38	0	
10	0	0	0	0	496	550	179	513	38	0	
11	0	0	0	0	502	547	179	514	38	0	
12	0	0	0	0	499	541	179	512	38	0	
13	0	0	0	0	512	535	179	510	38	0	
14	0	0	0	0	511	529	179	508	38	0	
15	0	0	0	0	505	524	179	506	38	0	
0	0	0	0	0	516	522	179	506	38	0	
1	0	0	0	0	519	520	179	505	38	0	
2	0	0	0	0	520	521	179	505	38	0	
3	0	0	0	0	522	523	179	506	38	0	
4	0	0	0	0	513	527	179	508	38	0	
5	0	0	0	0	513	532	179	515	38	0	
6	0	0	0	0	502	536	179	514	38	0	
7	0	0	0	0	503	539	179	517	38	0	
8	0	0	0	0	504	539	179	519	38	0	
9	0	0	0	0	509	541	179	521	38	0	
10	0	0	0	0	496	542	179	520	38	0	
11	0	0	0	0	503	539	179	518	38	0	
12	0	0	0	0	499	535	179	514	38	0	
13	0	0	0	0	504	530	179	511	38	0	
14	0	0	0	0	510	525	180	514	38	0	
15	0	0	0	0	507	522	180	506	38	0	
0	0	0	0	0	510	518	180	504	38	0	
1	0	0	0	0	513	518	180	503	38	0	
2	0	0	0	0	520	517	180	503	38	0	
3	0	0	0	0	518	518	180	508	38	0	
4	0	0	0	0	524	521	180	505	38	0	
5	0	0	0	0	515	526	180	508	38	0	
6	0	0	0	0	511	529	180	511	38	0	
7	0	0	0	0	508	531	180	514	38	0	
8	0	0	0	0	496	533	180	514	38	0	
9	0	0	0	0	509	534	180	516	38	0	
10	0	0	0	0	503	536	180	517	38	0	
11	0	0	0	0	500	533	180	516	38	0	
12	0	0	0	0	488	529	179	515	38	0	
13	0	0	0	0	495	525	179	511	38	0	
14	0	0	0	0	505	520	180	509	38	0	
15	0	0	0	0	509	515	179	507	38	0	
0	0	0	0	0	512	512	180	506	38	0	
1	0	0	0	0	515	508	180	505	38	0	
2	0	0	0	0	520	507	180	505	38	0	
3	0	0	0	0	514	508	180	505	38	0	
4	0	0	0	0	524	511	180	507	38	0	
5	0	0	0	0	522	516	179	510	38	0	
6	0	0	0	0	513	519	179	511	38	0	
7	0	0	0	0	511	524	179	514	38	0	
8	0	0	0	0	504	527	179	520	38	0	
9	0	0	0	0	500	529	179	527	38	0	
10	0	0	0	0	502	531	179	528	38	0	
11	0	0	0	0	507	531	179	528	38	0	
12	0	0	0	0	497	529	179	527	38	0	
13	0	0	0	0	501	526	179	524	38	0	
14	0	0	0	0	495	520	179	524	38	0	
15	0	0	0	0	501	515	179	517	38	0	
0	0	0	0	0	507	511	179	513	38	0	
1	0	0	0	0	507	508	180	510	38	0	
2	0	0	0	0	514	505	180	510	38	0	
3	0	0	0	0	520	503	180	508	38	0	
4	0	0	0	0	520	504	180	507	38	0	
5	0	0	0	0	521	507	179	508	38	0	
6	0	0	0	0	525	512	180	511	38	0	
7	0	0	0	0	515	517	180	514	38	0	
8	0	0	0	0	501	522	179	515	38	0	
9	0	0	0	0	499	526	179	517	38	0	
10	0	0	0	0	497	527	179	517	38	0	
11	0	0	0	0	511	529	180	516	38	0	
12	0	0	0	0	497	529	180	515	38	0	
13	0	0	0	0	499	527	180	515	38	0	
14	0	0	0	0	498	524	180	513	38	0	
15	0	0	0	0	503	520	180	511	38	0	
0	0	0	0	0	510	515	180	507	38	0	
1	0	0	0	0	513	511	179	506	38	0	
2	0	0	0	0	511	508	179	504	38	0	
3	0	0	0	0	512	507	180	505	38	0	
4	0	0	0	0	519	506	180	504	38	0	
5	0	0	0	0	524	508	180	505	38	0	
6	0	0	0	0	514	511	180	508	38	0	
7	0	0	0	0	510	515	180	510	38	0	
8	0	0	0	0	515	518	180	515	38	0	
9	0	0	0	0	507	521	180	518	38	0	
10	0	0	0	0	507	523	180	519	38	0	
11	0	0	0	0	500	524	179	521	38	0	
12	0	0	0	0	499	525	179	522	38	0	
13	0	0	0	0	501	523	179	521	38	0	
14	0	0	0	0	494	521	179	517	38	0	
15	0	0	0	0	493	518	179	514	38	0	
0	0	0	0	0	502	515	180	509	38	0	
1	0	0	0	0	497	512	180	506	38	0	
2	0	0	0	0	511	510	180	504	38	0	
3	0	0	0	0	519	509	180	502	38	0	
4	0	0	0	0	518	508	179	502	38	0	
5	0	0	0	0	519	508	179	503	38	0	
6	0	0	0	0	523	510	179	504	38	0	
7	0	0	0	0	524	514	179	507	38	0	
8	0	0	0	0	518	518	180	509	38	0	
9	0	0	0	0	507	523	179	510	38	0	
10	0	0	0	0	502	526	179	512	38	0	
11	0	0	0	0	497	530	180	515	38	0	
12	0	0	0	0	502	532	180	513	38	0	
13	0	0	0	0	495	533	180	516	38	0	
14	0	0	0	0	500	531	180	513	38	0	
15	0	0	0	0	499	528	180	512	38	0	
0	0	0	0	0	506	523	180	509	38	0	
1	0	0	0	0	500	519	180	509	38	0	
2	0	0	0	0	515	516	179	507	38	0	
3	0	0	0	0	516	513	179	505	38	0	
4	0	0	0	0	516	512	179	505	38	0	
5	0	0	0	0	512	511	179	504	38	0	
6	0	0	0	0	517	512	179	506	38	0	
7	0	0	0	0	526	514	179	509	38	0	
8	0	0	0	0	522	518	179	511	38	0	
9	0	0	0	0	518	521	179	512	38	0	
10	0	0	0	0	505	524	179	515	38	0	
11	0	0	0	0	504	527	180	517	38	0	
12	0	0	0	0	507	529	180	519	38	0	
13	0	0	0	0	500	531	180	519	38	0	
14	0	0	0	0	490	532	180	517	38	0	
15	0	0	0	0	499	529	180	516	38	0	
0	0	0	0	0	493	525	180	513	38	0	
1	0	0	0	0	504	520	180	511	38	0	
2	0	0	0	0	506	516	180	507	38	0	
3	0	0	0	0	505	513	180	505	38	0	
4	0	0	0	0	515	510	180	503	38	0	
5	0	0	0	0	516	508	180	501	38	0	
6	0	0	0	0	519	508	180	507	38	0	
7	0	0	0	0	516	510	180	500	38	0	
8	0	0	0	0	521	514	180	503	38	0	
9	0	0	0	0	521	519	180	507	38	0	
10	0	0	0	0	515	521	180	512	38	0	
11	0	0	0	0	504	524	179	515	38	0	
12	0	0	0	0	507	526	179	518	38	0	
13	0	0	0	0	503	527	179	519	38	0	
14	0	0	0	0	497	529	179	519	38	0	
15	0	0	0	0	497	527	179	518	38	0	
0	0	0	0	0	492	523	179	518	38	0	
1	0	0	0	0	499	517	179	515	38	0	
2	0	0	0	0	512	511	179	514	38	0	
3	0	0	0	0	503	507	179	524	38	0	
4	0	0	0	0	512	504	179	511	38	0	
5	0	0	0	0	514	501	180	508	38	0	
6	0	0	0	0	516	500	180	509	38	0	
7	0	0	0	0	526	500	180	509	38	0	
8	0	0	0	0	511	504	180	509	38	0	
9	0	0	0	0	513	508	180	512	38	0	
10	0	0	0	0	516	513	180	515	38	0	
11	0	0	0	0	505	516	179	517	38	0	
12	0	0	0	0	512	519	180	518	38	0	
13	0	0	0	0	504	522	179	518	38	0	
14	0	0	0	0	502	523	179	520	38	0	
15	0	0	0	0	487	524	179	530	38	0	
0	0	0	0	0	494	522	179	516	38	0	
1	0	0	0	0	499	520	179	514	38	0	
2	0	0	0	0	500	515	179	511	38	0	
3	0	0	0	0	508	510	179	512	38	0	
4	0	0	0	0	508	505	179	505	38	0	
5	0	0	0	0	512	503	179	504	38	0	
6	0	0	0	0	515	501	179	504	38	0	
7	0	0	0	0	515	499	179	504	38	0	
8	0	0	0	0	529	499	179	503	38	0	
9	0	0	0	0	515	503	180	505	38	0	
10	0	0	0	0	523	509	180	506	38	0	
11	0	0	0	0	515	516	180	511	38	0	
12	0	0	0	0	504	520	180	514	38	0	
13	0	0	0	0	513	524	180	519	38	0	
14	0	0	0	0	505	526	180	519	38	0	
15	0	0	0	0	499	527	180	517	38	0	
0	0	0	0	0	497	527	180	515	38	0	
1	0	0	0	0	498	525	180	513	38	0	
2	0	0	0	0	493	521	179	509	38	0	
3	0	0	0	0	500	516	179	507	38	0	
4	0	0	0	0	507	512	179	504	38	0	
5	0	0	0	0	517	509	179	504	38	0	
6	0	0	0	0	504	505	179	504	38	0	
7	0	0	0	0	515	504	179	503	38	0	
8	0	0	0	0	522	503	179	502	38	0	
9	0	0	0	0	521	504	179	502	38	0	
10	0	0	0	0	515	507	179	504	38	0	
11	0	0	0	0	518	511	180	508	38	0	
12	0	0	0	0	511	515	180	510	38	0	
13	0	0	0	0	507	520	180	513	38	0	
14	0	0	0	0	505	524	180	516	38	0	
15	0	0	0	0	496	527	180	519	38	0	
0	0	0	0	0	499	528	180	519	38	0	
1	0	0	0	0	504	527	180	518	38	0	
2	0	0	0	0	493	523	180	516	38	0	
3	0	0	0	0	500	518	180	513	38	0	
4	0	0	0	0	500	513	180	511	38	0	
5	0	0	0	0	507	509	180	509	38	0	
6	0	0	0	0	513	505	180	508	38	0	
7	0	0	0	0	509	503	180	507	38	0	
8	0	0	0	0	513	500	180	507	38	0	
9	0	0	0	0	520	501	180	506	38	0	
10	0	0	0	0	525	504	180	506	38	0	
11	0	0	0	0	517	508	180	508	38	0	
12	0	0	0	0	513	513	180	511	38	0	
13	0	0	0	0	512	518	179	514	38	0	
14	0	0	0	0	513	522	179	514	38	0	
15	0	0	0	0	500	525	179	517	38	0	
0	0	0	0	0	504	527	179	517	38	0	
1	0	0	0	0	501	528	179	518	38	0	
2	0	0	0	0	497	526	179	514	38	0	
3	0	0	0	0	493	523	179	512	38	0	
4	0	0	0	0	500	518	180	510	38	0	
5	0	0	0	0	513	513	180	508	38	0	
6	0	0	0	0	512	509	180	504	38	0	
7	0	0	0	0	512	506	180	504	38	0	
8	0	0	0	0	508	504	180	503	38	0	
9	0	0	0	0	520	504	180	502	38	0	
10	0	0	0	0	519	505	180	504	38	0	
11	0	0	0	0	522	509	179	505	38	0	
12	0	0	0	0	518	514	179	506	38	0	
13	0	0	0	0	512	520	179	507	38	0	
14	0	0	0	0	502	524	179	509	38	0	
15	0	0	0	0	504	528	179	514	38	0	
0	0	0	0	0	504	530	179	518	38	0	
1	0	0	0	0	504	531	179	519	38	0	
2	0	0	0	0	497	531	179	520	38	0	
3	0	0	0	0	502	528	179	518	38	0	
4	0	0	0	0	495	523	179	515	38	0	
5	0	0	0	0	499	519	179	512	38	0	
6	0	0	0	0	506	514	179	508	38	0	
7	0	0	0	0	508	511	179	506	38	0	
8	0	0	0	0	507	510	179	508	38	0	
9	0	0	0	0	516	508	179	504	38	0	
10	0	0	0	0	525	508	179	507	38	0	
11	0	0	0	0	517	511	179	508	38	0	
12	0	0	0	0	521	516	180	512	38	0	
13	0	0	0	0	515	523	180	511	38	0	
14	0	0	0	0	512	527	180	515	38	0	
15	0	0	0	0	503	530	180	517	38	0	
0	0	0	0	0	513	531	180	519	38	0	
1	0	0	0	0	500	531	180	519	38	0	
2	0	0	0	0	500	531	180	520	38	0	
3	0	0	0	0	492	529	180	519	38	0	
4	0	0	0	0	499	526	180	518	38	0	
5	0	0	0	0	494	521	180	518	38	0	
6	0	0	0	0	501	517	180	511	38	0	
7	0	0	0	0	514	513	180	508	38	0	
8	0	0	0	0	514	511	180	506	38	0	
9	0	0	0	0	513	510	180	505	38	0	
10	0	0	0	0	512	508	180	502	38	0	
11	0	0	0	0	522	509	180	504	38	0	
12	0	0	0	0	516	512	180	504	38	0	
13	0	0	0	0	527	516	180	509	38	0	
14	0	0	0	0	508	521	180	508	38	0	
15	0	0	0	0	505	525	180	512	38	0	
0	0	0	0	0	510	529	180	516	38	0	
1	0	0	0	0	496	531	180	529	38	0	
2	0	0	0	0	505	532	180	519	38	0	
3	0	0	0	0	494	532	180	520	38	0	
4	0	0	0	0	498	529	180	519	38	0	
5	0	0	0	0	498	527	180	517	38	0	
6	0	0	0	0	498	523	180	513	38	0	
7	0	0	0	0	513	520	180	511	38	0	
8	0	0	0	0	506	519	180	508	38	0	
9	0	0	0	0	510	516	179	506	38	0	
10	0	0	0	0	515	515	179	504	38	0	
11	0	0	0	0	513	516	179	504	38	0	
12	0	0	0	0	530	518	179	504	38	0	
13	0	0	0	0	527	522	179	504	38	0	
14	0	0	0	0	523	526	179	507	38	0	
15	0	0	0	0	521	532	179	507	38	0	
0	0	0	0	0	504	536	179	509	38	0	
1	0	0	0	0	505	540	179	512	38	0	
2	0	0	0	0	504	543	179	515	38	0	
3	0	0	0	0	495	544	179	515	38	0	
4	0	0	0	0	495	544	179	515	38	0	
5	0	0	0	0	493	543	179	515	38	0	
6	0	0	0	0	492	539	179	513	38	0	
7	0	0	0	0	501	535	179	510	38	0	
8	0	0	0	0	510	532	179	508	38	0	
9	0	0	0	0	507	529	179	505	38	0	
10	0	0	0	0	508	527	179	504	38	0	
11	0	0	0	0	514	526	179	504	38	0	
12	0	0	0	0	524	526	179	506	38	0	
13	0	0	0	0	523	528	179	508	38	0	
14	0	0	0	0	524	532	179	510	38	0	
15	0	0	0	0	519	536	179	512	38	0	
0	0	0	0	0	516	540	179	514	38	0	
1	0	0	0	0	511	545	179	515	38	0	
2	0	0	0	0	502	548	180	518	38	0	
3	0	0	0	0	503	552	180	520	38	0	
4	0	0	0	0	496	555	180	519	38	0	
5	0	0	0	0	494	555	180	520	38	0	
6	0	0	0	0	488	553	180	518	38	0	
7	0	0	0	0	499	549	180	514	38	0	
8	0	0	0	0	504	545	180	512	38	0	
9	0	0	0	0	509	540	180	510	38	0	
10	0	0	0	0	512	537	180	510	38	0	
11	0	0	0	0	513	534	180	507	38	0	
12	0	0	0	0	516	531	180	508	38	0	
13	0	0	0	0	521	531	179	508	38	0	
14	0	0	0	0	518	532	179	510	38	0	
15	0	0	0	0	525	536	179	511	38	0	
0	0	0	0	0	515	542	179	512	38	0	
1	0	0	0	0	510	545	180	515	38	0	
2	0	0	0	0	501	551	180	518	38	0	
3	0	0	0	0	499	556	180	518	38	0	
4	0	0	0	0	508	559	180	519	38	0	
5	0	0	0	0	495	560	180	519	38	0	
6	0	0	0	0	502	558	180	517	38	0	
7	0	0	0	0	495	555	179	514	38	0	
8	0	0	0	0	502	551	179	511	38	0	
9	0	0	0	0	510	547	179	509	38	0	
10	0	0	0	0	513	543	179	506	38	0	
11	0	0	0	0	514	540	179	503	38	0	
12	0	0	0	0	510	537	180	502	38	0	
13	0	0	0	0	517	536	180	508	38	0	
14	0	0	0	0	517	536	180	502	38	0	
15	0	0	0	0	516	540	180	505	38	0	
0	0	0	0	0	529	544	180	507	38	0	
1	0	0	0	0	518	547	180	510	38	0	
2	0	0	0	0	509	551	180	511	38	0	
3	0	0	0	0	503	555	180	513	38	0	
4	0	0	0	0	508	556	179	515	38	0	
5	0	0	0	0	504	557	179	518	38	0	
6	0	0	0	0	492	556	179	519	38	0	
7	0	0	0	0	491	552	179	517	38	0	
8	0	0	0	0	492	547	179	515	38	0	
9	0	0	0	0	511	543	180	512	38	0	
10	0	0	0	0	507	537	180	512	38	0	
11	0	0	0	0	506	532	180	499	38	0	
12	0	0	0	0	514	529	180	496	38	0	
13	0	0	0	0	513	527	180	497	38	0	
14	0	0	0	0	522	526	180	499	38	0	
15	0	0	0	0	521	528	180	500	38	0	
0	0	0	0	0	515	532	180	504	38	0	
1	0	0	0	0	512	537	180	506	38	0	
2	0	0	0	0	512	541	180	508	38	0	
3	0	0	0	0	513	544	180	509	38	0	
4	0	0	0	0	502	547	180	513	38	0	
5	0	0	0	0	506	548	180	514	38	0	
6	0	0	0	0	493	550	180	515	38	0	
7	0	0	0	0	496	548	180	514	38	0	
8	0	0	0	0	492	545	180	513	38	0	
9	0	0	0	0	500	539	180	512	38	0	
10	0	0	0	0	508	533	180	510	38	0	
11	0	0	0	0	504	528	180	507	38	0	
12	0	0	0	0	509	526	180	505	38	0	
13	0	0	0	0	515	523	180	504	38	0	
14	0	0	0	0	522	522	179	505	38	0	
15	0	0	0	0	515	523	179	503	38	0	
0	0	0	0	0	517	525	179	504	38	0	
1	0	0	0	0	513	529	180	507	38	0	
2	0	0	0	0	512	534	180	511	38	0	
3	0	0	0	0	510	538	180	513	38	0	
4	0	0	0	0	511	542	180	516	38	0	
5	0	0	0	0	507	545	180	516	38	0	
6	0	0	0	0	501	548	180	516	38	0	
7	0	0	0	0	498	548	180	519	38	0	
8	0	0	0	0	491	547	180	516	38	0	
9	0	0	0	0	499	543	180	515	38	0	
10	0	0	0	0	497	540	180	511	38	0	
11	0	0	0	0	511	536	180	507	38	0	
12	0	0	0	0	505	531	180	503	38	0	
13	0	0	0	0	509	528	180	503	38	0	
14	0	0	0	0	509	527	180	503	38	0	
15	0	0	0	0	518	526	180	503	38	0	
0	0	0	0	0	528	527	180	502	38	0	
1	0	0	0	0	517	529	180	503	38	0	
2	0	0	0	0	521	535	180	505	38	0	
3	0	0	0	0	512	538	180	508	38	0	
4	0	0	0	0	512	542	180	510	38	0	
5	0	0	0	0	507	545	179	514	38	0	
6	0	0	0	0	505	547	179	519	38	0	
7	0	0	0	0	506	549	180	518	38	0	
8	0	0	0	0	496	549	180	520	38	0	
9	0	0	0	0	497	547	180	519	38	0	
10	0	0	0	0	495	542	180	518	38	0	
11	0	0	0	0	502	538	180	518	38	0	
12	0	0	0	0	505	532	180	513	38	0	
13	0	0	0	0	509	528	180	512	38	0	
14	0	0	0	0	514	526	180	511	38	0	
15	0	0	0	0	509	526	180	510	38	0	
0	0	0	0	0	521	526	180	511	38	0	
1	0	0	0	0	525	528	180	511	38	0	
2	0	0	0	0	523	532	180	514	38	0	
3	0	0	0	0	518	536	180	516	38	0	
4	0	0	0	0	515	540	180	517	38	0	
5	0	0	0	0	502	544	180	518	38	0	
6	0	0	0	0	507	547	180	519	38	0	
7	0	0	0	0	500	550	180	519	38	0	
8	0	0	0	0	505	552	180	518	38	0	
9	0	0	0	0	491	552	180	516	38	0	
10	0	0	0	0	496	549	180	514	38	0	
11	0	0	0	0	499	545	180	513	38	0	
12	0	0	0	0	510	542	179	511	38	0	
13	0	0	0	0	505	539	179	508	38	0	
14	0	0	0	0	507	536	180	507	38	0	
15	0	0	0	0	512	534	180	504	38	0	
0	0	0	0	0	519	532	180	505	38	0	
1	0	0	0	0	518	532	180	505	38	0	
2	0	0	0	0	519	535	180	506	38	0	
3	0	0	0	0	519	538	180	509	38	0	
4	0	0	0	0	517	542	180	512	38	0	
5	0	0	0	0	510	546	180	512	38	0	
6	0	0	0	0	510	551	180	515	38	0	
7	0	0	0	0	505	555	180	515	38	0	
8	0	0	0	0	506	557	180	517	38	0	
9	0	0	0	0	497	556	180	516	38	0	
10	0	0	0	0	488	554	180	515	38	0	
11	0	0	0	0	496	552	180	514	38	0	
12	0	0	0	0	508	548	180	511	38	0	
13	0	0	0	0	512	543	180	508	38	0	
14	0	0	0	0	506	539	180	507	38	0	
15	0	0	0	0	510	535	180	505	38	0	
0	0	0	0	0	509	532	179	507	38	0	
1	0	0	0	0	520	529	179	505	38	0	
2	0	0	0	0	527	529	179	507	38	0	
3	0	0	0	0	519	532	179	508	38	0	
4	0	0	0	0	521	536	179	512	38	0	
5	0	0	0	0	506	540	179	515	38	0	
6	0	0	0	0	504	543	179	515	38	0	
7	0	0	0	0	498	547	179	519	38	0	
8	0	0	0	0	508	550	179	522	38	0	
9	0	0	0	0	504	552	179	524	38	0	
10	0	0	0	0	499	552	180	523	38	0	
11	0	0	0	0	495	550	180	521	38	0	
12	0	0	0	0	498	546	180	517	38	0	
13	0	0	0	0	505	542	180	512	38	0	
14	0	0	0	0	508	538	180	509	38	0	
15	0	0	0	0	508	536	180	508	38	0	
0	0	0	0	0	515	534	180	507	38	0	
1	0	0	0	0	510	533	180	505	38	0	
2	0	0	0	0	524	535	180	507	38	0	
3	0	0	0	0	524	538	180	506	38	0	
4	0	0	0	0	521	543	180	509	38	0	
5	0	0	0	0	516	548	180	512	38	0	
6	0	0	0	0	509	553	180	518	38	0	
7	0	0	0	0	504	557	179	519	38	0	
8	0	0	0	0	508	559	179	521	38	0	
9	0	0	0	0	509	560	179	521	38	0	
10	0	0	0	0	495	560	180	521	38	0	
11	0	0	0	0	497	558	180	519	38	0	
12	0	0	0	0	496	555	180	516	38	0	
13	0	0	0	0	495	551	180	515	38	0	
14	0	0	0	0	509	546	180	513	38	0	
15	0	0	0	0	506	542	180	511	38	0	
0	0	0	0	0	507	539	180	511	38	0	
1	0	0	0	0	508	537	180	511	38	0	
2	0	0	0	0	529	535	180	513	38	0	
3	0	0	0	0	529	536	180	509	38	0	
4	0	0	0	0	523	539	180	509	38	0	
5	0	0	0	0	515	543	180	512	38	0	
6	0	0	0	0	510	547	180	519	38	0	
7	0	0	0	0	505	551	180	518	38	0	
8	0	0	0	0	510	554	180	519	38	0	
9	0	0	0	0	499	557	179	519	38	0	
10	0	0	0	0	499	559	179	519	38	0	
11	0	0	0	0	490	560	179	519	38	0	
12	0	0	0	0	496	558	179	519	38	0	
13	0	0	0	0	494	554	179	516	38	0	
14	0	0	0	0	504	550	179	512	38	0	
15	0	0	0	0	509	546	179	509	38	0	
0	0	0	0	0	509	543	179	506	38	0	
1	0	0	0	0	516	541	179	505	38	0	
2	0	0	0	0	515	539	179	503	38	0	
3	0	0	0	0	520	539	180	504	38	0	
4	0	0	0	0	515	540	180	506	38	0	
5	0	0	0	0	523	543	180	508	38	0	
6	0	0	0	0	519	547	180	509	38	0	
7	0	0	0	0	520	551	180	512	38	0	
8	0	0	0	0	502	556	180	512	38	0	
9	0	0	0	0	507	558	180	514	38	0	
10	0	0	0	0	504	559	180	516	38	0	
11	0	0	0	0	498	559	180	516	38	0	
12	0	0	0	0	494	558	180	516	38	0	
13	0	0	0	0	495	555	180	514	38	0	
14	0	0	0	0	496	550	180	512	38	0	
15	0	0	0	0	502	547	180	510	38	0	
0	0	0	0	0	507	542	180	508	38	0	
1	0	0	0	0	512	539	180	506	38	0	
2	0	0	0	0	510	536	179	506	38	0	
3	0	0	0	0	514	534	180	504	38	0	
4	0	0	0	0	525	534	179	505	38	0	
5	0	0	0	0	524	536	179	506	38	0	
6	0	0	0	0	524	541	179	509	38	0	
7	0	0	0	0	508	546	179	513	38	0	
8	0	0	0	0	515	550	179	515	38	0	
9	0	0	0	0	505	554	180	516	38	0	
10	0	0	0	0	495	556	180	519	38	0	
11	0	0	0	0	504	558	180	520	38	0	
12	0	0	0	0	499	559	180	521	38	0	
13	0	0	0	0	490	557	180	517	38	0	
14	0	0	0	0	503	554	180	516	38	0	
15	0	0	0	0	499	548	180	515	38	0	
0	0	0	0	0	508	544	180	512	38	0	
1	0	0	0	0	507	539	179	509	38	0	
2	0	0	0	0	509	535	179	507	38	0	
3	0	0	0	0	514	532	179	505	38	0	
4	0	0	0	0	515	531	179	504	38	0	
5	0	0	0	0	517	532	179	503	38	0	
6	0	0	0	0	518	535	179	503	38	0	
7	0	0	0	0	521	538	179	505	38	0	
8	0	0	0	0	514	541	180	509	38	0	
9	0	0	0	0	511	545	180	513	38	0	
10	0	0	0	0	509	548	180	518	38	0	
11	0	0	0	0	502	551	180	519	38	0	
12	0	0	0	0	502	552	180	520	38	0	
13	0	0	0	0	505	551	180	521	38	0	
14	0	0	0	0	496	550	180	520	38	0	
15	0	0	0	0	492	547	180	518	38	0	
0	0	0	0	0	503	542	180	515	38	0	
1	0	0	0	0	508	538	180	515	38	0	
2	0	0	0	0	516	534	180	509	38	0	
3	0	0	0	0	513	531	179	506	38	0	
4	0	0	0	0	515	530	179	504	38	0	
5	0	0	0	0	519	530	179	504	38	0	
6	0	0	0	0	518	532	179	505	38	0	
7	0	0	0	0	524	536	179	507	38	0	
8	0	0	0	0	517	540	179	510	38	0	
9	0	0	0	0	509	546	179	515	38	0	
10	0	0	0	0	508	551	180	519	38	0	
11	0	0	0	0	503	555	180	520	38	0	
12	0	0	0	0	504	558	180	520	38	0	
13	0	0	0	0	498	560	180	520	38	0	
14	0	0	0	0	492	560	180	518	38	0	
15	0	0	0	0	498	558	180	515	38	0	
0	0	0	0	0	491	555	180	512	38	0	
1	0	0	0	0	503	550	180	507	38	0	
2	0	0	0	0	504	544	180	503	38	0	
3	0	0	0	0	514	540	179	504	38	0	
4	0	0	0	0	516	539	180	503	38	0	
5	0	0	0	0	507	538	180	504	38	0	
6	0	0	0	0	520	539	180	503	38	0	
7	0	0	0	0	526	542	180	505	38	0	
8	0	0	0	0	515	545	180	509	38	0	
9	0	0	0	0	518	551	180	512	38	0	
10	0	0	0	0	509	555	180	511	38	0	
11	0	0	0	0	505	559	180	512	38	0	
12	0	0	0	0	504	561	180	515	38	0	
13	0	0	0	0	510	563	180	517	38	0	
14	0	0	0	0	501	563	180	518	38	0	
15	0	0	0	0	496	560	180	518	38	0	
0	0	0	0	0	491	557	180	517	38	0	
1	0	0	0	0	502	552	180	513	38	0	
2	0	0	0	0	507	548	180	512	38	0	
3	0	0	0	0	508	545	180	510	38	0	
4	0	0	0	0	508	543	179	508	38	0	
5	0	0	0	0	511	542	179	505	38	0	
6	0	0	0	0	524	540	179	506	38	0	
7	0	0	0	0	522	541	179	508	38	0	
8	0	0	0	0	523	543	179	509	38	0	
9	0	0	0	0	522	547	179	511	38	0	
10	0	0	0	0	516	550	179	512	38	0	
11	0	0	0	0	507	553	180	513	38	0	
12	0	0	0	0	505	556	180	526	38	0	
13	0	0	0	0	497	559	180	515	38	0	
14	0	0	0	0	499	561	180	518	38	0	
15	0	0	0	0	493	560	180	519	38	0	
0	0	0	0	0	495	558	180	518	38	0	
1	0	0	0	0	491	554	180	518	38	0	
2	0	0	0	0	500	548	180	514	38	0	
3	0	0	0	0	512	543	180	511	38	0	
4	0	0	0	0	513	540	180	509	38	0	
5	0	0	0	0	513	537	179	506	38	0	
6	0	0	0	0	509	536	180	505	38	0	
7	0	0	0	0	515	536	180	504	38	0	
8	0	0	0	0	522	540	180	506	38	0	
9	0	0	0	0	525	543	180	506	38	0	
10	0	0	0	0	521	547	180	508	38	0	
11	0	0	0	0	514	551	180	509	38	0	
12	0	0	0	0	504	554	180	509	38	0	
13	0	0	0	0	505	557	180	512	38	0	
14	0	0	0	0	507	558	180	513	38	0	
15	0	0	0	0	498	560	180	517	38	0	
0	0	0	0	0	493	560	180	516	38	0	
1	0	0	0	0	500	556	180	515	38	0	
2	0	0	0	0	495	550	180	513	38	0	
3	0	0	0	0	500	545	180	511	38	0	
4	0	0	0	0	512	540	180	509	38	0	
5	0	0	0	0	508	536	180	508	38	0	
6	0	0	0	0	518	533	179	510	38	0	
7	0	0	0	0	516	531	180	508	38	0	
8	0	0	0	0	521	530	180	509	38	0	
9	0	0	0	0	514	534	180	510	38	0	
10	0	0	0	0	517	538	180	511	38	0	
11	0	0	0	0	513	543	180	511	38	0	
12	0	0	0	0	511	547	180	513	38	0	
13	0	0	0	0	510	550	180	515	38	0	
14	0	0	0	0	503	554	180	518	38	0	
15	0	0	0	0	502	556	180	519	38	0	
0	0	0	0	0	500	556	179	519	38	0	
1	0	0	0	0	488	555	179	517	38	0	
2	0	0	0	0	503	551	180	515	38	0	
3	0	0	0	0	500	545	180	511	38	0	
4	0	0	0	0	505	542	180	509	38	0	
5	0	0	0	0	508	537	180	508	38	0	
6	0	0	0	0	510	532	180	507	38	0	
7	0	0	0	0	519	529	180	506	38	0	
8	0	0	0	0	515	527	180	508	38	0	
9	0	0	0	0	520	527	180	509	38	0	
10	0	0	0	0	519	529	180	511	38	0	
11	0	0	0	0	518	532	180	513	38	0	
12	0	0	0	0	511	536	180	516	38	0	
13	0	0	0	0	513	539	180	518	38	0	
14	0	0	0	0	508	543	180	521	38	0	
15	0	0	0	0	505	544	180	520	38	0	
0	0	0	0	0	502	544	179	520	38	0	
1	0	0	0	0	491	543	180	519	38	0	
2	0	0	0	0	492	540	179	518	38	0	
3	0	0	0	0	502	536	179	514	38	0	
4	0	0	0	0	505	531	180	510	38	0	
5	0	0	0	0	512	527	180	508	38	0	
6	0	0	0	0	507	524	180	505	38	0	
7	0	0	0	0	514	523	180	505	38	0	
8	0	0	0	0	514	523	181	506	38	0	
9	0	0	0	0	516	523	181	505	38	0	
10	0	0	0	0	519	525	180	507	38	0	
11	0	0	0	0	523	528	180	510	38	0	
12	0	0	0	0	516	532	180	513	38	0	
13	0	0	0	0	512	537	180	516	38	0	
14	0	0	0	0	501	542	180	519	38	0	
15	0	0	0	0	510	545	180	522	38	0	
0	0	0	0	0	504	547	180	523	38	0	
1	0	0	0	0	502	548	180	526	38	0	
2	0	0	0	0	497	548	180	524	38	0	
3	0	0	0	0	496	546	180	525	38	0	
4	0	0	0	0	500	542	180	518	38	0	
5	0	0	0	0	502	539	180	516	38	0	
6	0	0	0	0	512	536	180	514	38	0	
7	0	0	0	0	500	532	180	513	38	0	
8	0	0	0	0	512	530	180	509	38	0	
9	0	0	0	0	520	529	180	509	38	0	
10	0	0	0	0	518	529	179	509	38	0	
11	0	0	0	0	521	532	179	511	38	0	
12	0	0	0	0	516	535	179	511	38	0	
13	0	0	0	0	515	539	179	512	38	0	
14	0	0	0	0	509	541	179	514	38	0	
15	0	0	0	0	504	543	179	518	38	0	
0	0	0	0	0	503	544	180	518	38	0	
1	0	0	0	0	500	545	179	517	38	0	
2	0	0	0	0	497	546	180	517	38	0	
3	0	0	0	0	496	543	180	516	38	0	
4	0	0	0	0	501	540	180	515	38	0	
5	0	0	0	0	499	535	180	512	38	0	
6	0	0	0	0	508	531	181	510	38	0	
7	0	0	0	0	505	527	180	508	38	0	
8	0	0	0	0	515	525	180	505	38	0	
9	0	0	0	0	513	522	180	505	38	0	
10	0	0	0	0	514	520	180	505	38	0	
11	0	0	0	0	529	521	181	507	38	0	
12	0	0	0	0	521	523	180	506	38	0	
13	0	0	0	0	519	527	180	510	38	0	
14	0	0	0	0	507	532	180	510	38	0	
15	0	0	0	0	511	536	179	511	38	0	
0	0	0	0	0	508	540	180	515	38	0	
1	0	0	0	0	502	542	180	515	38	0	
2	0	0	0	0	502	543	180	516	38	0	
3	0	0	0	0	494	542	181	516	38	0	
4	0	0	0	0	496	538	180	514	38	0	
5	0	0	0	0	497	535	180	512	38	0	
6	0	0	0	0	498	530	180	508	38	0	
7	0	0	0	0	504	526	180	507	38	0	
8	0	0	0	0	507	523	180	505	38	0	
9	0	0	0	0	514	520	180	515	38	0	
10	0	0	0	0	514	519	180	504	38	0	
11	0	0	0	0	519	518	180	504	38	0	
12	0	0	0	0	518	519	180	507	38	0	
13	0	0	0	0	513	521	180	512	38	0	
14	0	0	0	0	521	526	180	512	38	0	
15	0	0	0	0	513	529	180	515	38	0	
0	0	0	0	0	509	531	180	515	38	0	
1	0	0	0	0	505	532	180	516	38	0	
2	0	0	0	0	505	533	180	515	38	0	
3	0	0	0	0	511	535	180	516	38	0	
4	0	0	0	0	490	535	180	515	38	0	
5	0	0	0	0	490	532	180	512	38	0	
6	0	0	0	0	497	527	180	511	38	0	
7	0	0	0	0	503	523	180	510	38	0	
8	0	0	0	0	503	519	180	509	38	0	
9	0	0	0	0	512	516	180	507	38	0	
10	0	0	0	0	520	513	180	506	38	0	
11	0	0	0	0	519	512	181	505	38	0	
12	0	0	0	0	514	513	181	505	38	0	
13	0	0	0	0	519	516	181	506	38	0	
14	0	0	0	0	517	521	181	508	38	0	
15	0	0	0	0	511	526	181	511	38	0	
0	0	0	0	0	512	529	180	515	38	0	
1	0	0	0	0	515	533	180	516	38	0	
2	0	0	0	0	504	534	180	517	38	0	
3	0	0	0	0	502	535	180	518	38	0	
4	0	0	0	0	505	536	179	519	38	0	
5	0	0	0	0	491	534	180	527	38	0	
6	0	0	0	0	495	531	180	516	38	0	
7	0	0	0	0	497	528	180	513	38	0	
8	0	0	0	0	509	524	180	511	38	0	
9	0	0	0	0	510	521	180	507	38	0	
10	0	0	0	0	507	519	181	505	38	0	
11	0	0	0	0	513	516	181	504	38	0	
12	0	0	0	0	518	516	181	503	38	0	
13	0	0	0	0	524	519	181	506	38	0	
14	0	0	0	0	524	521	181	507	38	0	
15	0	0	0	0	521	527	181	511	38	0	
0	0	0	0	0	510	532	181	513	38	0	
1	0	0	0	0	508	536	181	513	38	0	
2	0	0	0	0	503	540	181	515	38	0	
3	0	0	0	0	508	542	180	517	38	0	
4	0	0	0	0	503	543	180	518	38	0	
5	0	0	0	0	497	545	180	517	38	0	
6	0	0	0	0	492	544	180	515	38	0	
7	0	0	0	0	497	542	181	514	38	0	
8	0	0	0	0	501	538	181	511	38	0	
9	0	0	0	0	518	534	181	511	38	0	
10	0	0	0	0	504	530	181	505	38	0	
11	0	0	0	0	508	527	180	504	38	0	
12	0	0	0	0	511	524	181	505	38	0	
13	0	0	0	0	520	525	181	511	38	0	
14	0	0	0	0	518	525	181	505	38	0	
15	0	0	0	0	527	527	180	507	38	0	
0	0	0	0	0	524	531	180	511	38	0	
1	0	0	0	0	503	534	180	515	38	0	
2	0	0	0	0	508	537	180	515	38	0	
3	0	0	0	0	506	540	180	517	38	0	
4	0	0	0	0	503	542	181	518	38	0	
5	0	0	0	0	504	543	181	517	38	0	
6	0	0	0	0	493	543	181	515	38	0	
7	0	0	0	0	491	541	180	517	38	0	
8	0	0	0	0	497	538	181	517	38	0	
9	0	0	0	0	504	536	181	515	38	0	
10	0	0	0	0	504	532	180	511	38	0	
11	0	0	0	0	501	530	181	508	38	0	
12	0	0	0	0	512	528	181	507	38	0	
13	0	0	0	0	520	527	181	508	38	0	
14	0	0	0	0	521	529	180	507	38	0	
15	0	0	0	0	524	533	180	508	38	0	
0	0	0	0	0	524	539	180	510	38	0	
1	0	0	0	0	514	545	180	521	38	0	
2	0	0	0	0	505	549	180	513	38	0	
3	0	0	0	0	511	552	179	515	38	0	
4	0	0	0	0	504	555	180	519	38	0	
5	0	0	0	0	507	557	180	519	38	0	
6	0	0	0	0	503	560	180	518	38	0	
7	0	0	0	0	489	559	180	520	38	0	
8	0	0	0	0	506	557	180	518	38	0	
9	0	0	0	0	498	555	180	516	38	0	
10	0	0	0	0	502	554	180	513	38	0	
11	0	0	0	0	506	553	180	512	38	0	
12	0	0	0	0	509	552	181	512	38	0	
13	0	0	0	0	508	552	181	510	38	0	
14	0	0	0	0	521	554	181	509	38	0	
15	0	0	0	0	515	558	181	509	38	0	
0	0	0	0	0	515	563	181	510	38	0	
1	0	0	0	0	522	569	181	513	38	0	
2	0	0	0	0	512	575	180	515	38	0	
3	0	0	0	0	509	582	180	519	38	0	
4	0	0	0	0	503	587	180	520	38	0	
5	0	0	0	0	508	590	180	519	38	0	
6	0	0	0	0	506	591	180	519	38	0	
7	0	0	0	0	494	593	180	515	38	0	
8	0	0	0	0	496	591	180	514	38	0	
9	0	0	0	0	500	585	180	513	38	0	
10	0	0	0	0	507	577	180	510	38	0	
11	0	0	0	0	506	568	180	509	38	0	
12	0	0	0	0	513	559	180	507	38	0	
13	0	0	0	0	511	551	180	507	38	0	
14	0	0	0	0	517	545	180	507	38	0	
15	0	0	0	0	519	540	180	505	38	0	
0	0	0	0	0	512	536	180	504	38	0	
1	0	0	0	0	521	531	180	504	38	0	
2	0	0	0	0	515	530	180	517	38	0	
3	0	0	0	0	505	529	180	508	38	0	
4	0	0	0	0	511	528	180	510	38	0	
5	0	0	0	0	503	527	180	513	38	0	
6	0	0	0	0	503	523	180	513	38	0	
7	0	0	0	0	506	519	180	512	38	0	
8	0	0	0	0	488	512	180	512	38	0	
9	0	0	0	0	492	503	180	511	38	0	
10	0	0	0	0	503	494	180	511	38	0	
11	0	0	0	0	504	484	180	507	38	0	
12	0	0	0	0	511	476	180	506	38	0	
13	0	0	0	0	511	471	181	505	38	0	
14	0	0	0	0	506	467	180	504	38	0	
15	0	0	0	0	514	464	180	504	38	0	
0	0	0	0	0	525	463	180	506	38	0	
1	0	0	0	0	519	462	180	508	38	0	
2	0	0	0	0	518	463	180	509	38	0	
3	0	0	0	0	512	464	180	516	38	0	
4	0	0	0	0	508	463	180	512	38	0	
5	0	0	0	0	512	463	180	515	38	0	
6	0	0	0	0	499	465	180	516	38	0	
7	0	0	0	0	504	466	180	517	38	0	
8	0	0	0	0	504	471	181	518	38	0	
9	0	0	0	0	495	472	181	518	38	0	
10	0	0	0	0	496	472	181	516	38	0	
11	0	0	0	0	495	472	181	515	38	0	
12	0	0	0	0	509	472	181	512	38	0	
13	0	0	0	0	509	473	181	510	38	0	
14	0	0	0	0	517	475	181	508	38	0	
15	0	0	0	0	511	477	180	508	38	0	
0	0	0	0	0	521	481	181	507	38	0	
1	0	0	0	0	513	487	180	506	38	0	
2	0	0	0	0	514	492	180	508	38	0	
3	0	0	0	0	522	502	180	511	38	0	
4	0	0	0	0	507	511	180	513	38	0	
5	0	0	0	0	511	519	180	517	38	0	
6	0	0	0	0	509	526	180	520	38	0	
7	0	0	0	0	508	531	180	521	38	0	
8	0	0	0	0	505	536	180	521	38	0	
9	0	0	0	0	497	539	180	520	38	0	
10	0	0	0	0	494	539	180	518	38	0	
11	0	0	0	0	499	538	181	516	38	0	
12	0	0	0	0	495	536	181	512	38	0	
13	0	0	0	0	504	532	181	509	38	0	
14	0	0	0	0	508	530	181	506	38	0	
15	0	0	0	0	514	528	181	505	38	0	
0	0	0	0	0	514	526	181	504	38	0	
1	0	0	0	0	520	527	181	504	38	0	
2	0	0	0	0	513	529	181	504	38	0	
3	0	0	0	0	522	532	181	507	38	0	
4	0	0	0	0	522	536	181	509	38	0	
5	0	0	0	0	513	540	181	512	38	0	
6	0	0	0	0	504	543	181	514	38	0	
7	0	0	0	0	501	546	181	516	38	0	
8	0	0	0	0	503	547	181	519	38	0	
9	0	0	0	0	507	549	180	520	38	0	
10	0	0	0	0	498	550	181	519	38	0	
11	0	0	0	0	494	547	181	518	38	0	
12	0	0	0	0	494	544	181	517	38	0	
13	0	0	0	0	499	540	181	513	38	0	
14	0	0	0	0	510	535	180	509	38	0	
15	0	0	0	0	512	532	180	505	38	0	
0	0	0	0	0	513	529	180	504	38	0	
1	0	0	0	0	517	527	180	502	38	0	
2	0	0	0	0	523	528	180	504	38	0	
3	0	0	0	0	524	531	180	504	38	0	
4	0	0	0	0	518	535	180	504	38	0	
5	0	0	0	0	511	539	180	504	38	0	
6	0	0	0	0	505	542	180	505	38	0	
7	0	0	0	0	513	545	180	509	38	0	
8	0	0	0	0	510	547	180	511	38	0	
9	0	0	0	0	500	548	180	514	38	0	
10	0	0	0	0	492	550	180	515	38	0	
11	0	0	0	0	498	548	180	515	38	0	
12	0	0	0	0	502	545	181	512	38	0	
13	0	0	0	0	495	541	181	512	38	0	
14	0	0	0	0	500	537	181	511	38	0	
15	0	0	0	0	505	533	181	511	38	0	
0	0	0	0	0	513	530	181	510	38	0	
1	0	0	0	0	511	527	181	508	38	0	
2	0	0	0	0	519	526	181	508	38	0	
3	0	0	0	0	522	528	181	509	38	0	
4	0	0	0	0	518	530	181	511	38	0	
5	0	0	0	0	522	534	181	515	38	0	
6	0	0	0	0	512	538	181	519	38	0	
7	0	0	0	0	511	542	180	521	38	0	
8	0	0	0	0	504	545	180	521	38	0	
9	0	0	0	0	500	547	180	520	38	0	
10	0	0	0	0	508	548	180	521	38	0	
11	0	0	0	0	498	548	181	521	38	0	
12	0	0	0	0	495	545	181	519	38	0	
13	0	0	0	0	502	542	181	517	38	0	
14	0	0	0	0	497	537	181	512	38	0	
15	0	0	0	0	509	534	181	511	38	0	
0	0	0	0	0	509	532	181	508	38	0	
1	0	0	0	0	511	529	181	507	38	0	
2	0	0	0	0	518	526	181	504	38	0	
3	0	0	0	0	519	525	181	503	38	0	
4	0	0	0	0	511	526	181	504	38	0	
5	0	0	0	0	519	528	181	504	38	0	
6	0	0	0	0	520	533	180	508	38	0	
7	0	0	0	0	508	536	180	511	38	0	
8	0	0	0	0	502	540	180	514	38	0	
9	0	0	0	0	495	542	180	515	38	0	
10	0	0	0	0	500	543	180	516	38	0	
11	0	0	0	0	500	544	180	516	38	0	
12	0	0	0	0	499	543	180	516	38	0	
13	0	0	0	0	497	540	180	515	38	0	
14	0	0	0	0	508	536	181	514	38	0	
15	0	0	0	0	502	532	181	514	38	0	
0	0	0	0	0	511	527	181	511	38	0	
1	0	0	0	0	507	523	181	510	38	0	
2	0	0	0	0	514	520	181	507	38	0	
3	0	0	0	0	516	518	181	505	38	0	
4	0	0	0	0	520	519	181	504	38	0	
5	0	0	0	0	516	522	181	504	38	0	
6	0	0	0	0	526	527	181	505	38	0	
7	0	0	0	0	512	532	181	507	38	0	
8	0	0	0	0	517	536	181	509	38	0	
9	0	0	0	0	508	539	181	524	38	0	
10	0	0	0	0	505	541	181	518	38	0	
11	0	0	0	0	503	543	181	520	38	0	
12	0	0	0	0	499	544	181	520	38	0	
13	0	0	0	0	495	543	181	517	38	0	
14	0	0	0	0	495	540	181	515	38	0	
15	0	0	0	0	497	536	181	513	38	0	
0	0	0	0	0	496	531	181	511	38	0	
1	0	0	0	0	511	526	181	508	38	0	
2	0	0	0	0	510	523	181	506	38	0	
3	0	0	0	0	513	520	181	504	38	0	
4	0	0	0	0	518	519	181	505	38	0	
5	0	0	0	0	517	519	181	503	38	0	
6	0	0	0	0	512	520	181	504	38	0	
7	0	0	0	0	521	525	181	505	38	0	
8	0	0	0	0	506	528	180	509	38	0	
9	0	0	0	0	513	531	180	523	38	0	
10	0	0	0	0	504	534	180	512	38	0	
11	0	0	0	0	503	536	180	514	38	0	
12	0	0	0	0	505	536	180	515	38	0	
13	0	0	0	0	499	537	180	514	38	0	
14	0	0	0	0	499	535	180	512	38	0	
15	0	0	0	0	506	534	180	511	38	0	
0	0	0	0	0	498	529	180	509	38	0	
1	0	0	0	0	510	525	180	506	38	0	
2	0	0	0	0	516	521	180	505	38	0	
3	0	0	0	0	510	518	180	503	38	0	
4	0	0	0	0	509	516	180	504	38	0	
5	0	0	0	0	524	516	180	504	38	0	
6	0	0	0	0	512	519	180	504	38	0	
7	0	0	0	0	517	522	181	505	38	0	
8	0	0	0	0	517	527	181	509	38	0	
9	0	0	0	0	508	530	181	511	38	0	
10	0	0	0	0	502	532	181	511	38	0	
11	0	0	0	0	502	533	181	512	38	0	
12	0	0	0	0	507	534	181	513	38	0	
13	0	0	0	0	504	535	181	513	38	0	
14	0	0	0	0	492	534	181	512	38	0	
15	0	0	0	0	496	531	181	513	38	0	
0	0	0	0	0	502	528	181	513	38	0	
1	0	0	0	0	503	525	181	513	38	0	
2	0	0	0	0	512	522	180	511	38	0	
3	0	0	0	0	508	519	180	510	38	0	
4	0	0	0	0	514	515	180	504	38	0	
5	0	0	0	0	517	513	180	504	38	0	
6	0	0	0	0	526	514	181	502	38	0	
7	0	0	0	0	517	515	181	503	38	0	
8	0	0	0	0	524	520	181	505	38	0	
9	0	0	0	0	511	524	181	508	38	0	
10	0	0	0	0	505	527	181	510	38	0	
11	0	0	0	0	504	530	181	515	38	0	
12	0	0	0	0	504	531	180	519	38	0	
13	0	0	0	0	510	531	180	519	38	0	
14	0	0	0	0	497	531	180	520	38	0	
15	0	0	0	0	497	531	181	519	38	0	
0	0	0	0	0	500	527	181	517	38	0	
1	0	0	0	0	500	523	181	515	38	0	
2	0	0	0	0	508	520	181	511	38	0	
3	0	0	0	0	513	516	181	509	38	0	
4	0	0	0	0	507	514	180	507	38	0	
5	0	0	0	0	508	512	181	505	38	0	
6	0	0	0	0	521	511	181	506	38	0	
7	0	0	0	0	518	514	181	508	38	0	
8	0	0	0	0	514	516	181	509	38	0	
9	0	0	0	0	526	521	181	513	38	0	
10	0	0	0	0	506	526	180	517	38	0	
11	0	0	0	0	513	529	180	520	38	0	
12	0	0	0	0	510	532	181	522	38	0	
13	0	0	0	0	507	534	181	520	38	0	
14	0	0	0	0	506	535	181	521	38	0	
15	0	0	0	0	493	535	180	521	38	0	
0	0	0	0	0	492	532	180	519	38	0	
1	0	0	0	0	499	528	180	517	38	0	
2	0	0	0	0	500	524	181	517	38	0	
3	0	0	0	0	503	519	182	515	38	0	
4	0	0	0	0	506	515	181	513	38	0	
5	0	0	0	0	507	512	181	510	38	0	
6	0	0	0	0	514	509	181	505	38	0	
7	0	0	0	0	527	509	181	504	38	0	
8	0	0	0	0	519	512	181	504	38	0	
9	0	0	0	0	518	515	181	506	38	0	
10	0	0	0	0	520	521	181	506	38	0	
11	0	0	0	0	510	524	181	510	38	0	
12	0	0	0	0	514	526	181	512	38	0	
13	0	0	0	0	503	528	180	514	38	0	
14	0	0	0	0	507	530	180	515	38	0	
15	0	0	0	0	498	532	180	515	38	0	
0	0	0	0	0	492	531	181	516	38	0	
1	0	0	0	0	503	528	181	515	38	0	
2	0	0	0	0	500	526	181	514	38	0	
3	0	0	0	0	500	521	181	514	38	0	
4	0	0	0	0	510	517	181	511	38	0	
5	0	0	0	0	504	513	181	509	38	0	
6	0	0	0	0	516	510	182	506	38	0	
7	0	0	0	0	512	508	181	509	38	0	
8	0	0	0	0	519	509	181	508	38	0	
9	0	0	0	0	518	511	181	508	38	0	
10	0	0	0	0	526	516	181	509	38	0	
11	0	0	0	0	507	521	181	510	38	0	
12	0	0	0	0	510	525	181	512	38	0	
13	0	0	0	0	511	529	181	512	38	0	
14	0	0	0	0	507	531	181	515	38	0	
15	0	0	0	0	500	532	180	515	38	0	
0	0	0	0	0	496	533	180	517	38	0	
1	0	0	0	0	501	532	181	516	38	0	
2	0	0	0	0	505	529	181	517	38	0	
3	0	0	0	0	502	525	181	515	38	0	
4	0	0	0	0	503	520	181	514	38	0	
5	0	0	0	0	503	516	181	512	38	0	
6	0	0	0	0	510	513	181	513	38	0	
7	0	0	0	0	513	511	180	508	38	0	
8	0	0	0	0	522	510	180	508	38	0	
9	0	0	0	0	521	512	181	508	38	0	
10	0	0	0	0	512	514	181	509	38	0	
11	0	0	0	0	517	519	181	510	38	0	
12	0	0	0	0	505	524	181	512	38	0	
13	0	0	0	0	512	526	180	514	38	0	
14	0	0	0	0	506	528	181	518	38	0	
15	0	0	0	0	500	529	181	519	38	0	
0	0	0	0	0	505	532	181	520	38	0	
1	0	0	0	0	491	533	181	520	38	0	
2	0	0	0	0	495	530	181	519	38	0	
3	0	0	0	0	497	526	181	516	38	0	
4	0	0	0	0	501	520	180	512	38	0	
5	0	0	0	0	516	514	181	508	38	0	
6	0	0	0	0	515	509	181	506	38	0	
7	0	0	0	0	515	505	181	506	38	0	
8	0	0	0	0	516	504	181	507	38	0	
9	0	0	0	0	515	504	181	507	38	0	
10	0	0	0	0	519	505	181	508	38	0	
11	0	0	0	0	516	509	181	511	38	0	
12	0	0	0	0	512	515	181	520	38	0	
13	0	0	0	0	504	519	181	516	38	0	
14	0	0	0	0	512	522	181	518	38	0	
15	0	0	0	0	505	524	181	518	38	0	
0	0	0	0	0	508	524	180	520	38	0	
1	0	0	0	0	505	525	180	517	38	0	
2	0	0	0	0	496	525	181	516	38	0	
3	0	0	0	0	492	523	182	513	38	0	
4	0	0	0	0	498	518	181	511	38	0	
5	0	0	0	0	495	512	181	510	38	0	
6	0	0	0	0	514	506	181	506	38	0	
7	0	0	0	0	509	502	181	505	38	0	
8	0	0	0	0	513	499	181	503	38	0	
9	0	0	0	0	522	497	181	502	38	0	
10	0	0	0	0	527	498	181	503	38	0	
11	0	0	0	0	513	500	180	505	38	0	
12	0	0	0	0	524	505	181	509	38	0	
13	0	0	0	0	509	512	181	514	38	0	
14	0	0	0	0	504	516	181	516	38	0	
15	0	0	0	0	506	519	181	519	38	0	
0	0	0	0	0	504	520	181	520	38	0	
1	0	0	0	0	500	522	181	529	38	0	
2	0	0	0	0	502	523	181	520	38	0	
3	0	0	0	0	498	521	181	519	38	0	
4	0	0	0	0	499	519	180	517	38	0	
5	0	0	0	0	495	515	180	514	38	0	
6	0	0	0	0	500	510	181	510	38	0	
7	0	0	0	0	510	504	181	508	38	0	
8	0	0	0	0	507	500	181	506	38	0	
9	0	0	0	0	513	496	182	503	38	0	
10	0	0	0	0	513	493	182	501	38	0	
11	0	0	0	0	518	494	182	501	38	0	
12	0	0	0	0	516	496	182	504	38	0	
13	0	0	0	0	524	500	181	508	38	0	
14	0	0	0	0	509	505	181	512	38	0	
15	0	0	0	0	516	510	181	513	38	0	
0	0	0	0	0	500	513	181	516	38	0	
1	0	0	0	0	503	515	181	518	38	0	
2	0	0	0	0	505	516	181	522	38	0	
3	0	0	0	0	494	516	181	518	38	0	
4	0	0	0	0	491	514	180	517	38	0	
5	0	0	0	0	504	510	181	515	38	0	
6	0	0	0	0	497	505	181	524	38	0	
7	0	0	0	0	506	499	182	512	38	0	
8	0	0	0	0	509	494	181	509	38	0	
9	0	0	0	0	513	490	181	508	38	0	
10	0	0	0	0	517	489	182	508	38	0	
11	0	0	0	0	517	491	182	508	38	0	
12	0	0	0	0	516	494	182	505	38	0	
13	0	0	0	0	520	496	181	507	38	0	
14	0	0	0	0	522	502	181	508	38	0	
15	0	0	0	0	508	505	181	512	38	0	
0	0	0	0	0	509	509	180	515	38	0	
1	0	0	0	0	507	512	181	518	38	0	
2	0	0	0	0	504	513	180	516	38	0	
3	0	0	0	0	503	514	180	527	38	0	
4	0	0	0	0	495	513	181	516	38	0	
5	0	0	0	0	496	510	180	516	38	0	
6	0	0	0	0	492	505	181	514	38	0	
7	0	0	0	0	504	502	181	513	38	0	
8	0	0	0	0	515	498	182	510	38	0	
9	0	0	0	0	506	495	182	511	38	0	
10	0	0	0	0	507	492	182	508	38	0	
11	0	0	0	0	520	489	182	508	38	0	
12	0	0	0	0	522	491	182	507	38	0	
13	0	0	0	0	518	493	181	508	38	0	
14	0	0	0	0	514	499	182	509	38	0	
15	0	0	0	0	507	503	181	511	38	0	
0	0	0	0	0	505	506	181	515	38	0	
1	0	0	0	0	511	510	181	518	38	0	
2	0	0	0	0	505	513	181	524	38	0	
3	0	0	0	0	508	515	181	522	38	0	
4	0	0	0	0	494	516	181	522	38	0	
5	0	0	0	0	490	515	181	520	38	0	
6	0	0	0	0	495	511	181	519	38	0	
7	0	0	0	0	500	507	182	516	38	0	
8	0	0	0	0	499	504	182	515	38	0	
9	0	0	0	0	515	500	182	514	38	0	
10	0	0	0	0	516	499	182	511	38	0	
11	0	0	0	0	508	498	182	508	38	0	
12	0	0	0	0	522	495	182	508	38	0	
13	0	0	0	0	518	497	181	508	38	0	
14	0	0	0	0	519	501	181	509	38	0	
15	0	0	0	0	516	505	181	510	38	0	
0	0	0	0	0	508	510	182	513	38	0	
1	0	0	0	0	517	515	182	515	38	0	
2	0	0	0	0	504	519	181	517	38	0	
3	0	0	0	0	500	521	181	516	38	0	
4	0	0	0	0	507	522	181	516	38	0	
5	0	0	0	0	496	521	181	515	38	0	
6	0	0	0	0	493	519	180	512	38	0	
7	0	0	0	0	497	514	180	510	38	0	
8	0	0	0	0	503	509	181	507	38	0	
9	0	0	0	0	505	505	181	507	38	0	
10	0	0	0	0	504	503	182	507	38	0	
11	0	0	0	0	511	500	182	505	38	0	
12	0	0	0	0	514	499	182	506	38	0	
13	0	0	0	0	522	499	182	506	38	0	
14	0	0	0	0	523	502	182	514	38	0	
15	0	0	0	0	519	508	182	508	38	0	
0	0	0	0	0	516	512	181	511	38	0	
1	0	0	0	0	510	516	182	513	38	0	
2	0	0	0	0	507	520	181	516	38	0	
3	0	0	0	0	508	523	181	519	38	0	
4	0	0	0	0	503	525	180	522	38	0	
5	0	0	0	0	499	527	181	522	38	0	
6	0	0	0	0	496	526	181	521	38	0	
7	0	0	0	0	500	523	182	518	38	0	
8	0	0	0	0	496	518	182	515	38	0	
9	0	0	0	0	510	513	182	512	38	0	
10	0	0	0	0	518	508	181	511	38	0	
11	0	0	0	0	510	504	182	510	38	0	
12	0	0	0	0	508	503	182	507	38	0	
13	0	0	0	0	508	501	182	506	38	0	
14	0	0	0	0	519	502	182	508	38	0	
15	0	0	0	0	525	504	181	510	38	0	
0	0	0	0	0	519	510	181	511	38	0	
1	0	0	0	0	514	515	181	513	38	0	
2	0	0	0	0	506	521	181	515	38	0	
3	0	0	0	0	504	525	181	515	38	0	
4	0	0	0	0	503	527	181	519	38	0	
5	0	0	0	0	501	529	182	519	38	0	
6	0	0	0	0	497	531	181	518	38	0	
7	0	0	0	0	495	528	181	518	38	0	
8	0	0	0	0	499	524	181	513	38	0	
9	0	0	0	0	501	518	181	512	38	0	
10	0	0	0	0	511	513	181	511	38	0	
11	0	0	0	0	509	509	181	510	38	0	
12	0	0	0	0	509	505	181	508	38	0	
13	0	0	0	0	515	505	182	508	38	0	
14	0	0	0	0	518	506	182	508	38	0	
15	0	0	0	0	521	506	182	512	38	0	
0	0	0	0	0	516	508	182	511	38	0	
1	0	0	0	0	524	514	182	511	38	0	
2	0	0	0	0	507	521	182	514	38	0	
3	0	0	0	0	508	526	181	515	38	0	
4	0	0	0	0	501	531	181	517	38	0	
5	0	0	0	0	503	535	180	518	38	0	
6	0	0	0	0	496	537	181	519	38	0	
7	0	0	0	0	496	537	181	519	38	0	
8	0	0	0	0	496	534	182	516	38	0	
9	0	0	0	0	497	530	182	513	38	0	
10	0	0	0	0	505	526	182	510	38	0	
11	0	0	0	0	508	522	182	506	38	0	
12	0	0	0	0	509	518	182	504	38	0	
13	0	0	0	0	512	514	181	500	38	0	
14	0	0	0	0	518	511	182	500	38	0	
15	0	0	0	0	526	509	181	500	38	0	
0	0	0	0	0	519	512	181	512	38	0	
1	0	0	0	0	520	514	181	504	38	0	
2	0	0	0	0	518	518	180	508	38	0	
3	0	0	0	0	506	523	181	510	38	0	
4	0	0	0	0	505	527	182	512	38	0	
5	0	0	0	0	502	531	182	513	38	0	
6	0	0	0	0	501	532	181	515	38	0	
7	0	0	0	0	499	533	181	514	38	0	
8	0	0	0	0	498	533	181	514	38	0	
9	0	0	0	0	501	531	182	512	38	0	
10	0	0	0	0	502	527	181	510	38	0	
11	0	0	0	0	506	523	181	510	38	0	
12	0	0	0	0	509	519	181	509	38	0	
13	0	0	0	0	505	514	182	508	38	0	
14	0	0	0	0	515	511	182	508	38	0	
15	0	0	0	0	513	510	182	508	38	0	
0	0	0	0	0	521	511	182	508	38	0	
1	0	0	0	0	516	513	182	506	38	0	
2	0	0	0	0	526	518	182	510	38	0	
3	0	0	0	0	508	524	181	512	38	0	
4	0	0	0	0	502	530	182	516	38	0	
5	0	0	0	0	505	535	181	518	38	0	
6	0	0	0	0	502	538	181	524	38	0	
7	0	0	0	0	502	540	181	518	38	0	
8	0	0	0	0	498	541	181	516	38	0	
9	0	0	0	0	499	539	180	515	38	0	
10	0	0	0	0	496	535	180	514	38	0	
11	0	0	0	0	506	528	181	511	38	0	
12	0	0	0	0	507	522	181	509	38	0	
13	0	0	0	0	515	517	181	506	38	0	
14	0	0	0	0	517	513	182	504	38	0	
15	0	0	0	0	512	510	182	502	38	0	
0	0	0	0	0	519	506	182	502	38	0	
1	0	0	0	0	523	507	182	503	38	0	
2	0	0	0	0	515	510	182	504	38	0	
3	0	0	0	0	517	514	182	507	38	0	
4	0	0	0	0	510	519	182	509	38	0	
5	0	0	0	0	507	523	181	512	38	0	
6	0	0	0	0	504	527	181	514	38	0	
7	0	0	0	0	506	528	181	516	38	0	
8	0	0	0	0	510	530	181	518	38	0	
9	0	0	0	0	487	531	181	517	38	0	
10	0	0	0	0	500	530	182	517	38	0	
11	0	0	0	0	497	528	182	516	38	0	
12	0	0	0	0	509	525	182	513	38	0	
13	0	0	0	0	502	523	182	512	38	0	
14	0	0	0	0	513	521	181	510	38	0	
15	0	0	0	0	511	520	181	507	38	0	
0	0	0	0	0	511	519	181	504	38	0	
1	0	0	0	0	517	519	181	503	38	0	
2	0	0	0	0	514	521	182	504	38	0	
3	0	0	0	0	519	524	182	505	38	0	
4	0	0	0	0	517	527	182	505	38	0	
5	0	0	0	0	512	527	181	510	38	0	
6	0	0	0	0	512	529	181	513	38	0	
7	0	0	0	0	501	530	180	515	38	0	
8	0	0	0	0	506	530	182	528	38	0	
9	0	0	0	0	494	531	182	516	38	0	
10	0	0	0	0	496	531	182	516	38	0	
11	0	0	0	0	504	530	182	515	38	0	
12	0	0	0	0	494	528	182	512	38	0	
13	0	0	0	0	506	526	181	508	38	0	
14	0	0	0	0	508	521	181	507	38	0	
15	0	0	0	0	507	517	181	505	38	0	
0	0	0	0	0	504	515	181	504	38	0	
1	0	0	0	0	510	515	181	508	38	0	
2	0	0	0	0	522	514	182	506	38	0	
3	0	0	0	0	523	515	182	507	38	0	
4	0	0	0	0	521	519	182	508	38	0	
5	0	0	0	0	515	523	182	519	38	0	
6	0	0	0	0	503	526	181	513	38	0	
7	0	0	0	0	500	527	181	515	38	0	
8	0	0	0	0	501	528	181	515	38	0	
9	0	0	0	0	507	528	181	516	38	0	
10	0	0	0	0	503	528	181	515	38	0	
11	0	0	0	0	507	526	181	515	38	0	
12	0	0	0	0	498	523	182	515	38	0	
13	0	0	0	0	496	517	182	513	38	0	
14	0	0	0	0	507	510	182	512	38	0	
15	0	0	0	0	508	506	182	512	38	0	
0	0	0	0	0	505	504	182	510	38	0	
1	0	0	0	0	517	504	181	508	38	0	
2	0	0	0	0	522	503	181	508	38	0	
3	0	0	0	0	512	504	181	506	38	0	
4	0	0	0	0	520	507	181	509	38	0	
5	0	0	0	0	510	512	181	513	38	0	
6	0	0	0	0	514	517	182	515	38	0	
7	0	0	0	0	509	521	182	516	38	0	
8	0	0	0	0	507	524	182	516	38	0	
9	0	0	0	0	507	527	182	517	38	0	
10	0	0	0	0	508	527	182	518	38	0	
11	0	0	0	0	498	525	182	519	38	0	
12	0	0	0	0	496	521	181	518	38	0	
13	0	0	0	0	497	516	181	516	38	0	
14	0	0	0	0	504	510	181	513	38	0	
15	0	0	0	0	509	505	181	509	38	0	
0	0	0	0	0	506	501	181	505	38	0	
1	0	0	0	0	506	499	182	505	38	0	
2	0	0	0	0	514	499	182	506	38	0	
3	0	0	0	0	522	500	182	507	38	0	
4	0	0	0	0	520	502	182	510	38	0	
5	0	0	0	0	511	504	182	508	38	0	
6	0	0	0	0	516	510	182	510	38	0	
7	0	0	0	0	521	513	182	511	38	0	
8	0	0	0	0	509	518	182	524	38	0	
9	0	0	0	0	500	522	181	515	38	0	
10	0	0	0	0	499	525	180	515	38	0	
11	0	0	0	0	504	527	181	515	38	0	
12	0	0	0	0	496	524	182	513	38	0	
13	0	0	0	0	496	519	182	512	38	0	
14	0	0	0	0	492	512	182	511	38	0	
15	0	0	0	0	504	505	182	508	38	0	
0	0	0	0	0	508	499	181	507	38	0	
1	0	0	0	0	511	494	181	506	38	0	
2	0	0	0	0	515	490	181	506	38	0	
3	0	0	0	0	516	488	181	506	38	0	
4	0	0	0	0	522	490	182	506	38	0	
5	0	0	0	0	517	492	182	508	38	0	
6	0	0	0	0	521	498	182	508	38	0	
7	0	0	0	0	510	502	182	511	38	0	
8	0	0	0	0	505	507	182	517	38	0	
9	0	0	0	0	513	511	182	519	38	0	
10	0	0	0	0	499	514	181	518	38	0	
11	0	0	0	0	500	515	181	519	38	0	
12	0	0	0	0	504	515	182	519	38	0	
13	0	0	0	0	489	513	182	520	38	0	
14	0	0	0	0	495	510	182	519	38	0	
15	0	0	0	0	495	507	182	517	38	0	
0	0	0	0	0	507	505	182	515	38	0	
1	0	0	0	0	510	503	181	511	38	0	
2	0	0	0	0	521	500	181	519	38	0	
3	0	0	0	0	514	499	181	505	38	0	
4	0	0	0	0	513	500	181	504	38	0	
5	0	0	0	0	522	502	181	505	38	0	
6	0	0	0	0	523	504	182	506	38	0	
7	0	0	0	0	513	508	182	508	38	0	
8	0	0	0	0	512	513	182	513	38	0	
9	0	0	0	0	520	515	181	516	38	0	
10	0	0	0	0	501	517	182	519	38	0	
11	0	0	0	0	503	520	182	519	38	0	
12	0	0	0	0	497	521	181	517	38	0	
13	0	0	0	0	494	519	181	515	38	0	
14	0	0	0	0	501	514	181	515	38	0	
15	0	0	0	0	493	509	181	513	38	0	
0	0	0	0	0	499	505	181	511	38	0	
1	0	0	0	0	509	500	182	508	38	0	
2	0	0	0	0	511	496	182	506	38	0	
3	0	0	0	0	504	494	182	504	38	0	
4	0	0	0	0	515	493	182	504	38	0	
5	0	0	0	0	527	492	182	501	38	0	
6	0	0	0	0	520	493	182	504	38	0	
7	0	0	0	0	528	498	182	505	38	0	
8	0	0	0	0	519	505	181	507	38	0	
9	0	0	0	0	500	511	181	507	38	0	
10	0	0	0	0	509	514	181	511	38	0	
11	0	0	0	0	502	516	181	513	38	0	
12	0	0	0	0	500	518	181	514	38	0	
13	0	0	0	0	499	517	182	515	38	0	
14	0	0	0	0	495	515	182	514	38	0	
15	0	0	0	0	501	511	182	512	38	0	
0	0	0	0	0	506	505	182	510	38	0	
1	0	0	0	0	502	500	182	509	38	0	
2	0	0	0	0	510	495	182	515	38	0	
3	0	0	0	0	511	491	182	502	38	0	
4	0	0	0	0	506	488	182	501	38	0	
5	0	0	0	0	515	488	182	501	38	0	
6	0	0	0	0	515	490	182	503	38	0	
7	0	0	0	0	524	494	181	504	38	0	
8	0	0	0	0	520	499	181	504	38	0	
9	0	0	0	0	513	505	181	504	38	0	
10	0	0	0	0	506	511	181	505	38	0	
11	0	0	0	0	504	514	181	510	38	0	
12	0	0	0	0	504	516	181	512	38	0	
13	0	0	0	0	505	518	182	515	38	0	
14	0	0	0	0	501	518	181	517	38	0	
15	0	0	0	0	497	516	182	518	38	0	
0	0	0	0	0	502	513	182	515	38	0	
1	0	0	0	0	504	511	182	514	38	0	
2	0	0	0	0	504	509	182	512	38	0	
3	0	0	0	0	505	507	182	511	38	0	
4	0	0	0	0	515	506	182	509	38	0	
5	0	0	0	0	515	504	181	508	38	0	
6	0	0	0	0	518	503	181	507	38	0	
7	0	0	0	0	516	505	181	506	38	0	
8	0	0	0	0	520	510	181	509	38	0	
9	0	0	0	0	512	515	181	510	38	0	
10	0	0	0	0	509	522	181	512	38	0	
11	0	0	0	0	510	527	182	515	38	0	
12	0	0	0	0	510	531	182	519	38	0	
13	0	0	0	0	500	532	182	520	38	0	
14	0	0	0	0	502	534	182	522	38	0	
15	0	0	0	0	504	533	182	523	38	0	
0	0	0	0	0	496	529	182	527	38	0	
1	0	0	0	0	494	526	182	518	38	0	
2	0	0	0	0	506	522	182	514	38	0	
3	0	0	0	0	513	519	182	511	38	0	
4	0	0	0	0	507	517	182	510	38	0	
5	0	0	0	0	512	513	182	510	38	0	
6	0	0	0	0	508	513	182	510	38	0	
7	0	0	0	0	512	512	182	510	38	0	
8	0	0	0	0	518	513	182	512	38	0	
9	0	0	0	0	519	516	181	511	38	0	
10	0	0	0	0	523	522	181	513	38	0	
11	0	0	0	0	509	528	181	515	38	0	
12	0	0	0	0	510	533	181	518	38	0	
13	0	0	0	0	506	535	181	520	38	0	
14	0	0	0	0	509	537	181	523	38	0	
15	0	0	0	0	491	539	180	523	38	0	
0	0	0	0	0	491	539	181	522	38	0	
1	0	0	0	0	495	535	181	519	38	0	
2	0	0	0	0	496	528	182	516	38	0	
3	0	0	0	0	509	524	182	513	38	0	
4	0	0	0	0	514	519	182	513	38	0	
5	0	0	0	0	510	516	182	512	38	0	
6	0	0	0	0	512	515	182	510	38	0	
7	0	0	0	0	518	515	182	509	38	0	
8	0	0	0	0	520	517	181	509	38	0	
9	0	0	0	0	516	520	181	515	38	0	
10	0	0	0	0	527	524	181	512	38	0	
11	0	0	0	0	509	528	181	514	38	0	
12	0	0	0	0	506	531	182	520	38	0	
13	0	0	0	0	507	531	182	526	38	0	
14	0	0	0	0	511	529	182	526	38	0	
15	0	0	0	0	506	529	182	527	38	0	
0	0	0	0	0	507	531	182	527	38	0	
1	0	0	0	0	501	531	182	524	38	0	
2	0	0	0	0	497	528	182	523	38	0	
3	0	0	0	0	503	522	182	518	38	0	
4	0	0	0	0	499	518	182	515	38	0	
5	0	0	0	0	504	513	182	511	38	0	
6	0	0	0	0	513	510	182	509	38	0	
7	0	0	0	0	505	507	181	507	38	0	
8	0	0	0	0	510	507	181	507	38	0	
9	0	0	0	0	521	509	181	509	38	0	
10	0	0	0	0	512	515	181	512	38	0	
11	0	0	0	0	523	521	182	525	38	0	
12	0	0	0	0	514	525	182	515	38	0	
13	0	0	0	0	508	528	182	517	38	0	
14	0	0	0	0	506	532	182	519	38	0	
15	0	0	0	0	507	535	182	519	38	0	
0	0	0	0	0	509	536	182	517	38	0	
1	0	0	0	0	497	535	182	516	38	0	
2	0	0	0	0	494	532	182	514	38	0	
3	0	0	0	0	494	527	182	512	38	0	
4	0	0	0	0	498	522	182	512	38	0	
5	0	0	0	0	505	517	182	507	38	0	
6	0	0	0	0	510	514	182	505	38	0	
7	0	0	0	0	515	512	182	503	38	0	
8	0	0	0	0	509	510	182	502	38	0	
9	0	0	0	0	522	509	182	500	38	0	
10	0	0	0	0	521	510	181	502	38	0	
11	0	0	0	0	514	512	181	506	38	0	
12	0	0	0	0	508	516	181	509	38	0	
13	0	0	0	0	513	521	182	511	38	0	
14	0	0	0	0	508	524	182	514	38	0	
15	0	0	0	0	511	528	182	517	38	0	
0	0	0	0	0	509	530	182	516	38	0	
1	0	0	0	0	499	530	182	525	38	0	
2	0	0	0	0	497	527	182	513	38	0	
3	0	0	0	0	498	524	182	512	38	0	
4	0	0	0	0	495	520	182	510	38	0	
5	0	0	0	0	504	517	182	509	38	0	
6	0	0	0	0	512	513	182	508	38	0	
7	0	0	0	0	509	513	182	506	38	0	
8	0	0	0	0	512	513	181	506	38	0	
9	0	0	0	0	512	512	181	505	38	0	
10	0	0	0	0	516	514	181	505	38	0	
11	0	0	0	0	515	519	181	507	38	0	
12	0	0	0	0	516	525	181	510	38	0	
13	0	0	0	0	505	529	181	512	38	0	
14	0	0	0	0	516	533	182	515	38	0	
15	0	0	0	0	515	534	182	516	38	0	
0	0	0	0	0	511	536	182	517	38	0	
1	0	0	0	0	497	538	182	518	38	0	
2	0	0	0	0	493	539	182	521	38	0	
3	0	0	0	0	498	537	182	518	38	0	
4	0	0	0	0	508	536	181	516	38	0	
5	0	0	0	0	504	532	181	513	38	0	
6	0	0	0	0	508	526	181	519	38	0	
7	0	0	0	0	510	520	181	508	38	0	
8	0	0	0	0	511	516	181	505	38	0	
9	0	0	0	0	512	513	182	503	38	0	
10	0	0	0	0	516	510	182	503	38	0	
11	0	0	0	0	519	513	182	504	38	0	
12	0	0	0	0	520	518	182	505	38	0	
13	0	0	0	0	519	524	182	510	38	0	
14	0	0	0	0	511	530	181	512	38	0	
15	0	0	0	0	507	534	181	515	38	0	
0	0	0	0	0	503	537	181	519	38	0	
1	0	0	0	0	503	539	181	520	38	0	
2	0	0	0	0	502	541	182	520	38	0	
3	0	0	0	0	497	539	182	519	38	0	
4	0	0	0	0	494	535	182	516	38	0	
5	0	0	0	0	504	530	181	514	38	0	
6	0	0	0	0	508	523	181	512	38	0	
7	0	0	0	0	508	517	181	509	38	0	
8	0	0	0	0	505	513	182	507	38	0	
9	0	0	0	0	511	510	182	502	38	0	
10	0	0	0	0	509	510	182	502	38	0	
11	0	0	0	0	515	513	182	502	38	0	
12	0	0	0	0	522	518	182	503	38	0	
13	0	0	0	0	514	521	182	504	38	0	
14	0	0	0	0	519	525	182	511	38	0	
15	0	0	0	0	508	529	182	518	38	0	
0	0	0	0	0	516	531	182	521	38	0	
1	0	0	0	0	504	531	182	522	38	0	
2	0	0	0	0	505	532	181	519	38	0	
3	0	0	0	0	504	532	181	518	38	0	
4	0	0	0	0	498	529	181	516	38	0	
5	0	0	0	0	499	525	182	516	38	0	
6	0	0	0	0	495	521	182	514	38	0	
7	0	0	0	0	510	518	181	511	38	0	
8	0	0	0	0	513	515	182	508	38	0	
9	0	0	0	0	509	514	182	505	38	0	
10	0	0	0	0	505	512	182	502	38	0	
11	0	0	0	0	515	510	182	504	38	0	
12	0	0	0	0	513	512	182	506	38	0	
13	0	0	0	0	526	514	181	508	38	0	
14	0	0	0	0	520	518	181	512	38	0	
15	0	0	0	0	507	524	181	513	38	0	
0	0	0	0	0	504	529	181	515	38	0	
1	0	0	0	0	512	533	182	515	38	0	
2	0	0	0	0	504	537	182	515	38	0	
3	0	0	0	0	499	539	182	514	38	0	
4	0	0	0	0	493	539	182	514	38	0	
5	0	0	0	0	497	537	182	512	38	0	
6	0	0	0	0	499	533	182	510	38	0	
7	0	0	0	0	508	527	182	508	38	0	
8	0	0	0	0	510	522	182	508	38	0	
9	0	0	0	0	508	518	182	505	38	0	
10	0	0	0	0	508	515	182	505	38	0	
11	0	0	0	0	514	513	181	504	38	0	
12	0	0	0	0	514	513	181	504	38	0	
13	0	0	0	0	524	515	181	503	38	0	
14	0	0	0	0	521	517	181	507	38	0	
15	0	0	0	0	515	520	181	511	38	0	
0	0	0	0	0	509	524	182	513	38	0	
1	0	0	0	0	513	528	182	516	38	0	
2	0	0	0	0	505	531	182	517	38	0	
3	0	0	0	0	496	532	182	519	38	0	
4	0	0	0	0	499	534	182	520	38	0	
5	0	0	0	0	492	533	182	519	38	0	
6	0	0	0	0	493	530	182	517	38	0	
7	0	0	0	0	500	525	182	514	38	0	
8	0	0	0	0	507	520	181	511	38	0	
9	0	0	0	0	510	515	181	508	38	0	
10	0	0	0	0	511	511	182	506	38	0	
11	0	0	0	0	515	508	182	503	38	0	
12	0	0	0	0	517	506	182	502	38	0	
13	0	0	0	0	515	504	182	502	38	0	
14	0	0	0	0	522	505	182	504	38	0	
15	0	0	0	0	523	508	182	503	38	0	
0	0	0	0	0	516	511	182	505	38	0	
1	0	0	0	0	509	514	182	508	38	0	
2	0	0	0	0	507	517	182	511	38	0	
3	0	0	0	0	502	520	182	513	38	0	
4	0	0	0	0	501	521	182	515	38	0	
5	0	0	0	0	497	522	182	515	38	0	
6	0	0	0	0	491	519	182	515	38	0	
7	0	0	0	0	497	516	181	513	38	0	
8	0	0	0	0	503	512	181	511	38	0	
9	0	0	0	0	508	509	182	509	38	0	
10	0	0	0	0	510	505	182	508	38	0	
11	0	0	0	0	508	503	182	506	38	0	
12	0	0	0	0	517	499	182	506	38	0	
13	0	0	0	0	512	499	182	505	38	0	
14	0	0	0	0	518	502	182	505	38	0	
15	0	0	0	0	520	505	182	505	38	0	
0	0	0	0	0	517	510	182	508	38	0	
1	0	0	0	0	512	515	182	509	38	0	
2	0	0	0	0	510	520	182	511	38	0	
3	0	0	0	0	504	524	181	514	38	0	
4	0	0	0	0	504	526	181	516	38	0	
5	0	0	0	0	505	527	181	517	38	0	
6	0	0	0	0	499	527	182	517	38	0	
7	0	0	0	0	497	525	182	519	38	0	
8	0	0	0	0	491	521	182	514	38	0	
9	0	0	0	0	505	516	182	509	38	0	
10	0	0	0	0	508	514	182	508	38	0	
11	0	0	0	0	508	510	182	510	38	0	
12	0	0	0	0	516	507	182	508	38	0	
13	0	0	0	0	514	505	182	507	38	0	
14	0	0	0	0	519	505	181	508	38	0	
15	0	0	0	0	521	508	181	509	38	0	
0	0	0	0	0	527	511	181	511	38	0	
1	0	0	0	0	512	516	182	514	38	0	
2	0	0	0	0	504	520	182	519	38	0	
3	0	0	0	0	506	524	182	521	38	0	
4	0	0	0	0	510	528	182	524	38	0	
5	0	0	0	0	499	531	182	522	38	0	
6	0	0	0	0	502	532	182	521	38	0	
7	0	0	0	0	498	530	182	518	38	0	
8	0	0	0	0	494	526	182	516	38	0	
9	0	0	0	0	503	523	181	513	38	0	
10	0	0	0	0	509	519	181	512	38	0	
11	0	0	0	0	510	515	181	508	38	0	
12	0	0	0	0	512	512	181	506	38	0	
13	0	0	0	0	518	509	182	507	38	0	
14	0	0	0	0	512	508	182	505	38	0	
15	0	0	0	0	512	509	182	505	38	0	
0	0	0	0	0	515	513	182	508	38	0	
1	0	0	0	0	519	519	182	519	38	0	
2	0	0	0	0	513	525	182	511	38	0	
3	0	0	0	0	508	531	182	514	38	0	
4	0	0	0	0	512	537	181	515	38	0	
5	0	0	0	0	506	542	181	515	38	0	
6	0	0	0	0	499	544	181	514	38	0	
7	0	0	0	0	495	545	181	514	38	0	
8	0	0	0	0	498	544	182	514	38	0	
9	0	0	0	0	497	541	182	514	38	0	
10	0	0	0	0	504	538	182	513	38	0	
11	0	0	0	0	512	534	182	511	38	0	
12	0	0	0	0	506	529	182	510	38	0	
13	0	0	0	0	512	527	182	507	38	0	
14	0	0	0	0	517	524	182	505	38	0	
15	0	0	0	0	515	521	182	504	38	0	
0	0	0	0	0	516	521	182	504	38	0	
1	0	0	0	0	515	522	181	510	38	0	
2	0	0	0	0	519	526	181	518	38	0	
3	0	0	0	0	515	528	181	521	38	0	
4	0	0	0	0	499	533	182	525	38	0	
5	0	0	0	0	504	537	182	527	38	0	
6	0	0	0	0	504	540	182	529	38	0	
7	0	0	0	0	501	542	182	528	38	0	
8	0	0	0	0	498	543	182	533	38	0	
9	0	0	0	0	496	541	182	522	38	0	
10	0	0	0	0	495	538	182	519	38	0	
11	0	0	0	0	503	533	181	515	38	0	
12	0	0	0	0	516	529	181	510	38	0	
13	0	0	0	0	516	525	181	515	38	0	
14	0	0	0	0	511	521	182	502	38	0	
15	0	0	0	0	511	519	182	500	38	0	
0	0	0	0	0	526	518	182	499	38	0	
1	0	0	0	0	520	519	182	502	38	0	
2	0	0	0	0	516	523	182	504	38	0	
3	0	0	0	0	519	528	182	510	38	0	
4	0	0	0	0	514	530	182	515	38	0	
5	0	0	0	0	505	534	181	519	38	0	
6	0	0	0	0	502	537	181	520	38	0	
7	0	0	0	0	510	539	181	519	38	0	
8	0	0	0	0	501	541	182	518	38	0	
9	0	0	0	0	496	540	182	516	38	0	
10	0	0	0	0	494	538	182	513	38	0	
11	0	0	0	0	496	534	182	509	38	0	
12	0	0	0	0	503	529	181	506	38	0	
13	0	0	0	0	503	525	181	504	38	0	
14	0	0	0	0	513	521	182	502	38	0	
15	0	0	0	0	519	519	182	501	38	0	
0	0	0	0	0	515	517	182	504	38	0	
1	0	0	0	0	516	516	182	505	38	0	
2	0	0	0	0	523	519	182	506	38	0	
3	0	0	0	0	516	523	182	507	38	0	
4	0	0	0	0	517	527	181	511	38	0	
5	0	0	0	0	503	532	181	516	38	0	
6	0	0	0	0	511	536	182	519	38	0	
7	0	0	0	0	508	538	182	522	38	0	
8	0	0	0	0	503	540	182	521	38	0	
9	0	0	0	0	504	539	182	521	38	0	
10	0	0	0	0	503	538	181	520	38	0	
11	0	0	0	0	493	536	181	516	38	0	
12	0	0	0	0	494	532	181	512	38	0	
13	0	0	0	0	509	526	181	508	38	0	
14	0	0	0	0	507	522	181	506	38	0	
15	0	0	0	0	508	518	181	508	38	0	
0	0	0	0	0	508	515	181	507	38	0	
1	0	0	0	0	515	512	182	508	38	0	
2	0	0	0	0	528	513	182	509	38	0	
3	0	0	0	0	522	515	182	511	38	0	
4	0	0	0	0	521	520	182	512	38	0	
5	0	0	0	0	513	525	182	515	38	0	
6	0	0	0	0	500	531	182	516	38	0	
7	0	0	0	0	501	535	182	517	38	0	
8	0	0	0	0	504	538	182	516	38	0	
9	0	0	0	0	501	540	182	517	38	0	
10	0	0	0	0	496	540	182	518	38	0	
11	0	0	0	0	499	537	182	516	38	0	
12	0	0	0	0	502	534	181	514	38	0	
13	0	0	0	0	494	529	181	512	38	0	
14	0	0	0	0	506	525	181	509	38	0	
15	0	0	0	0	507	521	181	506	38	0	
0	0	0	0	0	508	519	181	505	38	0	
1	0	0	0	0	515	519	181	504	38	0	
2	0	0	0	0	521	520	181	504	38	0	
3	0	0	0	0	525	522	181	504	38	0	
4	0	0	0	0	523	527	182	505	38	0	
5	0	0	0	0	523	534	182	507	38	0	
6	0	0	0	0	511	539	182	509	38	0	
7	0	0	0	0	509	543	182	512	38	0	
8	0	0	0	0	503	547	182	514	38	0	
9	0	0	0	0	507	549	182	515	38	0	
10	0	0	0	0	495	551	182	517	38	0	
11	0	0	0	0	494	551	182	518	38	0	
12	0	0	0	0	497	550	181	517	38	0	
13	0	0	0	0	496	547	181	514	38	0	
14	0	0	0	0	512	544	181	510	38	0	
15	0	0	0	0	509	540	182	508	38	0	
0	0	0	0	0	510	537	182	505	38	0	
1	0	0	0	0	507	536	182	504	38	0	
2	0	0	0	0	515	535	182	504	38	0	
3	0	0	0	0	522	537	182	504	38	0	
4	0	0	0	0	520	543	182	505	38	0	
5	0	0	0	0	516	550	182	516	38	0	
6	0	0	0	0	512	557	182	508	38	0	
7	0	0	0	0	511	563	182	514	38	0	
8	0	0	0	0	511	571	182	516	38	0	
9	0	0	0	0	504	577	182	519	38	0	
10	0	0	0	0	511	582	182	519	38	0	
11	0	0	0	0	497	584	182	519	38	0	
12	0	0	0	0	501	583	182	517	38	0	
13	0	0	0	0	491	580	182	516	38	0	
14	0	0	0	0	500	576	181	513	38	0	
15	0	0	0	0	508	570	181	510	38	0	
0	0	0	0	0	507	564	181	509	38	0	
1	0	0	0	0	506	558	181	512	38	0	
2	0	0	0	0	511	552	182	506	38	0	
3	0	0	0	0	520	544	182	504	38	0	
4	0	0	0	0	523	537	182	505	38	0	
5	0	0	0	0	514	534	182	507	38	0	
6	0	0	0	0	516	532	182	509	38	0	
7	0	0	0	0	513	530	182	512	38	0	
8	0	0	0	0	511	528	181	515	38	0	
9	0	0	0	0	506	526	181	516	38	0	
10	0	0	0	0	505	524	181	516	38	0	
11	0	0	0	0	495	522	182	517	38	0	
12	0	0	0	0	492	518	182	516	38	0	
13	0	0	0	0	500	511	182	515	38	0	
14	0	0	0	0	498	501	182	513	38	0	
15	0	0	0	0	500	489	182	511	38	0	
0	0	0	0	0	499	479	183	509	38	0	
1	0	0	0	0	519	469	183	508	38	0	
2	0	0	0	0	514	461	183	507	38	0	
3	0	0	0	0	518	455	182	508	38	0	
4	0	0	0	0	516	451	182	507	38	0	
5	0	0	0	0	523	451	182	507	38	0	
6	0	0	0	0	512	452	182	508	38	0	
7	0	0	0	0	510	455	182	510	38	0	
8	0	0	0	0	517	458	182	512	38	0	
9	0	0	0	0	507	459	182	515	38	0	
10	0	0	0	0	507	460	183	518	38	0	
11	0	0	0	0	507	460	183	520	38	0	
12	0	0	0	0	502	460	183	522	38	0	
13	0	0	0	0	495	459	183	522	38	0	
14	0	0	0	0	498	458	182	520	38	0	
15	0	0	0	0	499	457	183	519	38	0	
0	0	0	0	0	506	456	182	515	38	0	
1	0	0	0	0	509	457	182	512	38	0	
2	0	0	0	0	503	460	183	508	38	0	
3	0	0	0	0	515	463	182	505	38	0	
4	0	0	0	0	515	467	183	504	38	0	
5	0	0	0	0	521	472	182	503	38	0	
6	0	0	0	0	521	480	182	506	38	0	
7	0	0	0	0	514	489	182	510	38	0	
8	0	0	0	0	517	499	181	516	38	0	
9	0	0	0	0	508	506	182	515	38	0	
10	0	0	0	0	509	513	182	516	38	0	
11	0	0	0	0	507	521	182	515	38	0	
12	0	0	0	0	497	527	182	514	38	0	
13	0	0	0	0	499	531	182	512	38	0	
14	0	0	0	0	491	532	182	512	38	0	
15	0	0	0	0	497	530	182	511	38	0	
0	0	0	0	0	495	527	182	508	38	0	
1	0	0	0	0	506	525	182	508	38	0	
2	0	0	0	0	509	522	182	507	38	0	
3	0	0	0	0	511	519	182	507	38	0	
4	0	0	0	0	515	518	182	504	38	0	
5	0	0	0	0	519	518	182	504	38	0	
6	0	0	0	0	525	520	181	505	38	0	
7	0	0	0	0	520	524	181	504	38	0	
8	0	0	0	0	518	529	181	506	38	0	
9	0	0	0	0	511	535	181	508	38	0	
10	0	0	0	0	508	540	181	511	38	0	
11	0	0	0	0	505	543	182	513	38	0	
12	0	0	0	0	499	546	182	514	38	0	
13	0	0	0	0	503	548	182	516	38	0	
14	0	0	0	0	496	548	182	516	38	0	
15	0	0	0	0	504	546	182	517	38	0	
0	0	0	0	0	496	543	182	513	38	0	
1	0	0	0	0	500	537	182	509	38	0	
2	0	0	0	0	502	534	182	507	38	0	
3	0	0	0	0	508	530	182	515	38	0	
4	0	0	0	0	512	527	182	501	38	0	
5	0	0	0	0	517	524	182	500	38	0	
6	0	0	0	0	514	523	181	501	38	0	
7	0	0	0	0	519	525	181	502	38	0	
8	0	0	0	0	515	529	181	503	38	0	
9	0	0	0	0	523	536	182	506	38	0	
10	0	0	0	0	517	541	182	509	38	0	
11	0	0	0	0	510	545	182	521	38	0	
12	0	0	0	0	506	547	182	513	38	0	
13	0	0	0	0	496	548	182	515	38	0	
14	0	0	0	0	502	550	182	516	38	0	
15	0	0	0	0	496	547	182	515	38	0	
0	0	0	0	0	496	545	182	515	38	0	
1	0	0	0	0	495	540	182	513	38	0	
2	0	0	0	0	500	536	182	512	38	0	
3	0	0	0	0	512	531	182	509	38	0	
4	0	0	0	0	514	528	182	509	38	0	
5	0	0	0	0	510	526	182	508	38	0	
6	0	0	0	0	511	526	182	507	38	0	
7	0	0	0	0	524	526	181	508	38	0	
8	0	0	0	0	520	528	181	510	38	0	
9	0	0	0	0	516	532	181	512	38	0	
10	0	0	0	0	515	536	181	513	38	0	
11	0	0	0	0	506	540	182	516	38	0	
12	0	0	0	0	505	545	182	519	38	0	
13	0	0	0	0	501	549	182	523	38	0	
14	0	0	0	0	501	552	182	524	38	0	
15	0	0	0	0	491	551	182	521	38	0	
0	0	0	0	0	500	548	182	519	38	0	
1	0	0	0	0	497	544	181	516	38	0	
2	0	0	0	0	503	539	181	512	38	0	
3	0	0	0	0	504	533	181	508	38	0	
4	0	0	0	0	505	529	181	506	38	0	
5	0	0	0	0	508	525	181	504	38	0	
6	0	0	0	0	517	523	181	503	38	0	
7	0	0	0	0	516	521	182	503	38	0	
8	0	0	0	0	523	524	181	504	38	0	
9	0	0	0	0	515	527	182	504	38	0	
10	0	0	0	0	519	532	182	504	38	0	
11	0	0	0	0	511	537	182	504	38	0	
12	0	0	0	0	510	540	182	507	38	0	
13	0	0	0	0	508	542	182	510	38	0	
14	0	0	0	0	510	543	182	511	38	0	
15	0	0	0	0	499	545	182	511	38	0	
0	0	0	0	0	500	545	182	511	38	0	
1	0	0	0	0	494	543	182	511	38	0	
2	0	0	0	0	499	540	182	510	38	0	
3	0	0	0	0	506	535	181	509	38	0	
4	0	0	0	0	507	531	182	511	38	0	
5	0	0	0	0	503	527	182	510	38	0	
6	0	0	0	0	506	525	182	509	38	0	
7	0	0	0	0	519	522	182	508	38	0	
8	0	0	0	0	520	520	182	510	38	0	
9	0	0	0	0	526	521	182	510	38	0	
10	0	0	0	0	524	524	182	511	38	0	
11	0	0	0	0	521	527	182	513	38	0	
12	0	0	0	0	504	531	182	516	38	0	
13	0	0	0	0	511	534	182	517	38	0	
14	0	0	0	0	499	537	182	518	38	0	
15	0	0	0	0	503	538	181	519	38	0	
0	0	0	0	0	496	539	181	516	38	0	
1	0	0	0	0	497	537	182	512	38	0	
2	0	0	0	0	494	536	182	510	38	0	
3	0	0	0	0	497	531	183	507	38	0	
4	0	0	0	0	513	526	182	506	38	0	
5	0	0	0	0	510	522	182	506	38	0	
6	0	0	0	0	510	519	182	505	38	0	
7	0	0	0	0	520	516	182	504	38	0	
8	0	0	0	0	512	515	182	503	38	0	
9	0	0	0	0	524	515	182	503	38	0	
10	0	0	0	0	523	518	182	502	38	0	
11	0	0	0	0	513	521	181	505	38	0	
12	0	0	0	0	520	526	182	510	38	0	
13	0	0	0	0	504	530	182	515	38	0	
14	0	0	0	0	505	534	182	518	38	0	
15	0	0	0	0	499	537	182	519	38	0	
0	0	0	0	0	501	540	182	519	38	0	
1	0	0	0	0	493	541	182	519	38	0	
2	0	0	0	0	494	540	182	519	38	0	
3	0	0	0	0	495	536	181	516	38	0	
4	0	0	0	0	498	532	181	522	38	0	
5	0	0	0	0	505	528	181	512	38	0	
6	0	0	0	0	513	524	182	510	38	0	
7	0	0	0	0	509	523	182	508	38	0	
8	0	0	0	0	510	522	182	507	38	0	
9	0	0	0	0	516	521	183	505	38	0	
10	0	0	0	0	520	523	183	504	38	0	
11	0	0	0	0	527	525	182	505	38	0	
12	0	0	0	0	519	529	182	509	38	0	
13	0	0	0	0	511	533	182	511	38	0	
14	0	0	0	0	508	536	182	515	38	0	
15	0	0	0	0	506	539	182	520	38	0	
0	0	0	0	0	495	540	182	522	38	0	
1	0	0	0	0	505	541	182	521	38	0	
2	0	0	0	0	502	539	182	519	38	0	
3	0	0	0	0	495	535	181	516	38	0	
4	0	0	0	0	494	531	181	513	38	0	
5	0	0	0	0	500	525	182	511	38	0	
6	0	0	0	0	504	520	183	510	38	0	
7	0	0	0	0	515	517	182	506	38	0	
8	0	0	0	0	519	515	182	505	38	0	
9	0	0	0	0	513	513	182	503	38	0	
10	0	0	0	0	523	512	182	503	38	0	
11	0	0	0	0	523	515	182	513	38	0	
12	0	0	0	0	519	519	182	507	38	0	
13	0	0	0	0	510	525	182	513	38	0	
14	0	0	0	0	510	531	182	517	38	0	
15	0	0	0	0	511	535	182	520	38	0	
0	0	0	0	0	499	537	182	521	38	0	
1	0	0	0	0	501	540	182	523	38	0	
2	0	0	0	0	500	542	182	523	38	0	
3	0	0	0	0	495	542	182	521	38	0	
4	0	0	0	0	496	540	182	518	38	0	
5	0	0	0	0	494	535	182	514	38	0	
6	0	0	0	0	506	530	182	512	38	0	
7	0	0	0	0	505	525	182	509	38	0	
8	0	0	0	0	512	521	182	507	38	0	
9	0	0	0	0	515	519	182	505	38	0	
10	0	0	0	0	512	517	182	505	38	0	
11	0	0	0	0	525	518	182	506	38	0	
12	0	0	0	0	524	519	182	507	38	0	
13	0	0	0	0	513	523	182	508	38	0	
14	0	0	0	0	517	528	182	510	38	0	
15	0	0	0	0	504	535	182	511	38	0	
0	0	0	0	0	511	539	182	513	38	0	
1	0	0	0	0	506	542	182	515	38	0	
2	0	0	0	0	508	543	182	515	38	0	
3	0	0	0	0	500	545	182	514	38	0	
4	0	0	0	0	498	543	182	515	38	0	
5	0	0	0	0	492	541	182	513	38	0	
6	0	0	0	0	492	537	182	512	38	0	
7	0	0	0	0	508	533	182	509	38	0	
8	0	0	0	0	503	531	182	507	38	0	
9	0	0	0	0	505	528	182	504	38	0	
10	0	0	0	0	512	527	182	504	38	0	
11	0	0	0	0	519	524	182	504	38	0	
12	0	0	0	0	519	525	182	505	38	0	
13	0	0	0	0	521	527	181	505	38	0	
14	0	0	0	0	519	530	182	508	38	0	
15	0	0	0	0	511	532	181	509	38	0	
0	0	0	0	0	506	536	181	512	38	0	
1	0	0	0	0	509	540	182	515	38	0	
2	0	0	0	0	510	544	182	517	38	0	
3	0	0	0	0	504	547	182	518	38	0	
4	0	0	0	0	496	546	182	517	38	0	
5	0	0	0	0	497	543	182	515	38	0	
6	0	0	0	0	495	541	182	512	38	0	
7	0	0	0	0	501	537	182	508	38	0	
8	0	0	0	0	505	534	182	508	38	0	
9	0	0	0	0	511	530	182	505	38	0	
10	0	0	0	0	507	524	182	505	38	0	
11	0	0	0	0	508	519	182	505	38	0	
12	0	0	0	0	521	517	182	507	38	0	
13	0	0	0	0	526	519	183	509	38	0	
14	0	0	0	0	514	523	182	511	38	0	
15	0	0	0	0	521	527	182	515	38	0	
0	0	0	0	0	514	531	182	519	38	0	
1	0	0	0	0	504	534	182	522	38	0	
2	0	0	0	0	507	536	182	524	38	0	
3	0	0	0	0	505	538	181	524	38	0	
4	0	0	0	0	495	540	181	524	38	0	
5	0	0	0	0	496	539	182	532	38	0	
6	0	0	0	0	500	535	182	519	38	0	
7	0	0	0	0	497	530	183	516	38	0	
8	0	0	0	0	499	525	182	513	38	0	
9	0	0	0	0	505	519	182	514	38	0	
10	0	0	0	0	515	515	182	509	38	0	
11	0	0	0	0	518	513	182	508	38	0	
12	0	0	0	0	513	512	183	507	38	0	
13	0	0	0	0	522	512	182	507	38	0	
14	0	0	0	0	524	514	182	508	38	0	
15	0	0	0	0	521	518	182	510	38	0	
0	0	0	0	0	509	522	182	512	38	0	
1	0	0	0	0	508	526	182	516	38	0	
2	0	0	0	0	516	527	182	520	38	0	
3	0	0	0	0	506	531	182	520	38	0	
4	0	0	0	0	498	534	182	522	38	0	
5	0	0	0	0	502	534	182	524	38	0	
6	0	0	0	0	497	533	182	520	38	0	
7	0	0	0	0	492	530	182	516	38	0	
8	0	0	0	0	494	525	183	513	38	0	
9	0	0	0	0	510	519	183	509	38	0	
10	0	0	0	0	513	514	183	508	38	0	
11	0	0	0	0	508	511	183	507	38	0	
12	0	0	0	0	513	510	183	507	38	0	
13	0	0	0	0	516	510	182	507	38	0	
14	0	0	0	0	523	512	182	506	38	0	
15	0	0	0	0	512	515	182	507	38	0	
0	0	0	0	0	516	521	182	509	38	0	
1	0	0	0	0	518	527	182	511	38	0	
2	0	0	0	0	504	531	182	516	38	0	
3	0	0	0	0	508	534	181	518	38	0	
4	0	0	0	0	502	536	181	519	38	0	
5	0	0	0	0	506	538	181	520	38	0	
6	0	0	0	0	493	537	182	519	38	0	
7	0	0	0	0	495	534	182	518	38	0	
8	0	0	0	0	488	529	182	516	38	0	
9	0	0	0	0	502	523	182	513	38	0	
10	0	0	0	0	510	518	183	510	38	0	
11	0	0	0	0	503	513	183	508	38	0	
12	0	0	0	0	509	510	183	506	38	0	
13	0	0	0	0	516	508	182	503	38	0	
14	0	0	0	0	524	506	182	503	38	0	
15	0	0	0	0	521	507	182	504	38	0	
0	0	0	0	0	519	510	182	507	38	0	
1	0	0	0	0	510	514	182	508	38	0	
2	0	0	0	0	516	518	182	510	38	0	
3	0	0	0	0	507	521	182	513	38	0	
4	0	0	0	0	507	525	182	515	38	0	
5	0	0	0	0	498	527	182	517	38	0	
6	0	0	0	0	500	527	182	515	38	0	
7	0	0	0	0	494	527	183	517	38	0	
8	0	0	0	0	502	525	183	518	38	0	
9	0	0	0	0	503	520	183	518	38	0	
10	0	0	0	0	505	515	182	512	38	0	
11	0	0	0	0	502	510	183	510	38	0	
12	0	0	0	0	511	507	182	508	38	0	
13	0	0	0	0	518	504	182	506	38	0	
14	0	0	0	0	504	502	183	505	38	0	
15	0	0	0	0	522	501	182	506	38	0	
0	0	0	0	0	522	501	182	509	38	0	
1	0	0	0	0	524	502	182	510	38	0	
2	0	0	0	0	513	504	182	511	38	0	
3	0	0	0	0	514	508	182	515	38	0	
4	0	0	0	0	510	512	183	518	38	0	
5	0	0	0	0	505	516	183	519	38	0	
6	0	0	0	0	502	519	182	520	38	0	
7	0	0	0	0	497	519	182	522	38	0	
8	0	0	0	0	489	519	183	520	38	0	
9	0	0	0	0	497	516	182	518	38	0	
10	0	0	0	0	500	510	182	515	38	0	
11	0	0	0	0	504	504	182	512	38	0	
12	0	0	0	0	507	499	182	509	38	0	
13	0	0	0	0	507	497	183	510	38	0	
14	0	0	0	0	514	497	183	509	38	0	
15	0	0	0	0	513	497	183	509	38	0	
0	0	0	0	0	524	499	183	509	38	0	
1	0	0	0	0	521	501	182	510	38	0	
2	0	0	0	0	521	505	183	513	38	0	
3	0	0	0	0	510	508	182	513	38	0	
4	0	0	0	0	509	512	182	517	38	0	
5	0	0	0	0	509	516	182	521	38	0	
6	0	0	0	0	504	516	182	521	38	0	
7	0	0	0	0	502	517	182	524	38	0	
8	0	0	0	0	495	514	182	521	38	0	
9	0	0	0	0	497	511	183	519	38	0	
10	0	0	0	0	491	507	183	520	38	0	
11	0	0	0	0	504	499	183	512	38	0	
12	0	0	0	0	510	493	183	510	38	0	
13	0	0	0	0	508	487	183	508	38	0	
14	0	0	0	0	513	486	183	512	38	0	
15	0	0	0	0	515	484	183	502	38	0	
0	0	0	0	0	524	483	183	500	38	0	
1	0	0	0	0	519	486	183	504	38	0	
2	0	0	0	0	524	491	183	505	38	0	
3	0	0	0	0	512	496	182	506	38	0	
4	0	0	0	0	511	501	182	509	38	0	
5	0	0	0	0	503	505	182	511	38	0	
6	0	0	0	0	505	509	182	515	38	0	
7	0	0	0	0	499	512	182	513	38	0	
8	0	0	0	0	493	511	182	515	38	0	
9	0	0	0	0	493	510	182	513	38	0	
10	0	0	0	0	492	505	182	523	38	0	
11	0	0	0	0	493	499	183	510	38	0	
12	0	0	0	0	503	495	183	508	38	0	
13	0	0	0	0	514	491	183	505	38	0	
14	0	0	0	0	511	486	183	504	38	0	
15	0	0	0	0	518	485	182	504	38	0	
0	0	0	0	0	514	485	183	504	38	0	
1	0	0	0	0	522	486	182	505	38	0	
2	0	0	0	0	518	489	182	505	38	0	
3	0	0	0	0	522	494	182	509	38	0	
4	0	0	0	0	524	499	182	512	38	0	
5	0	0	0	0	508	502	182	519	38	0	
6	0	0	0	0	509	505	183	524	38	0	
7	0	0	0	0	505	508	183	526	38	0	
8	0	0	0	0	501	511	182	526	38	0	
9	0	0	0	0	497	512	182	525	38	0	
10	0	0	0	0	497	511	182	523	38	0	
11	0	0	0	0	489	507	183	519	38	0	
12	0	0	0	0	503	501	182	516	38	0	
13	0	0	0	0	508	497	182	513	38	0	
14	0	0	0	0	504	492	182	508	38	0	
15	0	0	0	0	513	490	182	507	38	0	
0	0	0	0	0	517	487	182	507	38	0	
1	0	0	0	0	518	485	182	506	38	0	
2	0	0	0	0	526	486	182	505	38	0	
3	0	0	0	0	521	489	183	507	38	0	
4	0	0	0	0	518	495	183	508	38	0	
5	0	0	0	0	506	499	182	511	38	0	
6	0	0	0	0	507	504	182	516	38	0	
7	0	0	0	0	508	508	182	519	38	0	
8	0	0	0	0	502	511	182	520	38	0	
9	0	0	0	0	503	512	182	519	38	0	
10	0	0	0	0	495	512	182	517	38	0	
11	0	0	0	0	496	511	182	516	38	0	
12	0	0	0	0	495	508	182	512	38	0	
13	0	0	0	0	514	505	182	510	38	0	
14	0	0	0	0	503	503	183	507	38	0	
15	0	0	0	0	511	499	183	504	38	0	
0	0	0	0	0	516	498	183	504	38	0	
1	0	0	0	0	513	498	183	504	38	0	
2	0	0	0	0	522	496	182	504	38	0	
3	0	0	0	0	525	496	183	507	38	0	
4	0	0	0	0	515	497	183	509	38	0	
5	0	0	0	0	519	501	182	513	38	0	
6	0	0	0	0	507	505	182	517	38	0	
7	0	0	0	0	501	510	182	519	38	0	
8	0	0	0	0	507	513	183	519	38	0	
9	0	0	0	0	506	514	183	520	38	0	
10	0	0	0	0	497	514	183	518	38	0	
11	0	0	0	0	494	511	183	519	38	0	
12	0	0	0	0	490	508	182	517	38	0	
13	0	0	0	0	502	505	182	515	38	0	
14	0	0	0	0	502	502	182	511	38	0	
15	0	0	0	0	518	498	182	507	38	0	
0	0	0	0	0	511	495	182	507	38	0	
1	0	0	0	0	512	494	182	505	38	0	
2	0	0	0	0	514	494	182	504	38	0	
3	0	0	0	0	520	496	182	504	38	0	
4	0	0	0	0	524	498	182	505	38	0	
5	0	0	0	0	520	503	183	508	38	0	
6	0	0	0	0	515	508	183	521	38	0	
7	0	0	0	0	512	512	183	518	38	0	
8	0	0	0	0	503	515	183	521	38	0	
9	0	0	0	0	495	517	182	523	38	0	
10	0	0	0	0	504	518	183	520	38	0	
11	0	0	0	0	497	518	182	519	38	0	
12	0	0	0	0	495	519	182	518	38	0	
13	0	0	0	0	502	517	182	515	38	0	
14	0	0	0	0	507	513	182	512	38	0	
15	0	0	0	0	507	508	182	511	38	0	
0	0	0	0	0	512	504	182	509	38	0	
1	0	0	0	0	508	500	182	510	38	0	
2	0	0	0	0	509	497	183	510	38	0	
3	0	0	0	0	514	495	183	511	38	0	
4	0	0	0	0	525	496	183	509	38	0	
5	0	0	0	0	522	499	183	511	38	0	
6	0	0	0	0	521	505	183	513	38	0	
7	0	0	0	0	503	512	183	515	38	0	
8	0	0	0	0	508	518	182	518	38	0	
9	0	0	0	0	509	521	182	519	38	0	
10	0	0	0	0	505	521	182	521	38	0	
11	0	0	0	0	496	523	182	522	38	0	
12	0	0	0	0	491	522	182	520	38	0	
13	0	0	0	0	500	519	182	518	38	0	
14	0	0	0	0	494	515	183	516	38	0	
15	0	0	0	0	507	510	182	513	38	0	
0	0	0	0	0	510	507	183	517	38	0	
1	0	0	0	0	509	504	183	508	38	0	
2	0	0	0	0	508	503	183	505	38	0	
3	0	0	0	0	509	503	182	504	38	0	
4	0	0	0	0	519	502	182	511	38	0	
5	0	0	0	0	521	504	182	504	38	0	
6	0	0	0	0	517	507	182	505	38	0	
7	0	0	0	0	515	513	183	510	38	0	
8	0	0	0	0	519	518	183	514	38	0	
9	0	0	0	0	503	522	182	516	38	0	
10	0	0	0	0	502	526	183	520	38	0	
11	0	0	0	0	501	528	182	523	38	0	
12	0	0	0	0	497	531	182	524	38	0	
13	0	0	0	0	492	530	183	523	38	0	
14	0	0	0	0	498	526	182	518	38	0	
15	0	0	0	0	496	522	183	515	38	0	
0	0	0	0	0	505	517	182	512	38	0	
1	0	0	0	0	515	514	182	516	38	0	
2	0	0	0	0	518	510	182	504	38	0	
3	0	0	0	0	515	508	182	502	38	0	
4	0	0	0	0	512	507	182	501	38	0	
5	0	0	0	0	514	508	183	500	38	0	
6	0	0	0	0	519	513	183	502	38	0	
7	0	0	0	0	516	519	183	506	38	0	
8	0	0	0	0	515	525	183	510	38	0	
9	0	0	0	0	510	530	182	512	38	0	
10	0	0	0	0	512	534	182	514	38	0	
11	0	0	0	0	504	536	182	516	38	0	
12	0	0	0	0	500	539	182	515	38	0	
13	0	0	0	0	498	540	182	518	38	0	
14	0	0	0	0	500	538	182	514	38	0	
15	0	0	0	0	491	534	182	512	38	0	
0	0	0	0	0	496	529	182	510	38	0	
1	0	0	0	0	509	524	182	507	38	0	
2	0	0	0	0	511	520	182	505	38	0	
3	0	0	0	0	512	516	183	504	38	0	
4	0	0	0	0	508	513	183	503	38	0	
5	0	0	0	0	513	512	183	502	38	0	
6	0	0	0	0	524	513	183	502	38	0	
7	0	0	0	0	521	516	182	505	38	0	
8	0	0	0	0	521	520	182	506	38	0	
9	0	0	0	0	508	525	182	507	38	0	
10	0	0	0	0	508	529	182	507	38	0	
11	0	0	0	0	505	532	182	510	38	0	
12	0	0	0	0	502	535	182	511	38	0	
13	0	0	0	0	503	537	183	512	38	0	
14	0	0	0	0	490	536	183	513	38	0	
15	0	0	0	0	498	534	182	514	38	0	
0	0	0	0	0	496	530	182	515	38	0	
1	0	0	0	0	505	526	182	513	38	0	
2	0	0	0	0	507	522	182	513	38	0	
3	0	0	0	0	518	518	182	507	38	0	
4	0	0	0	0	515	517	182	506	38	0	
5	0	0	0	0	509	516	182	505	38	0	
6	0	0	0	0	526	515	183	504	38	0	
7	0	0	0	0	515	517	183	505	38	0	
8	0	0	0	0	522	520	183	505	38	0	
9	0	0	0	0	516	526	183	506	38	0	
10	0	0	0	0	507	531	183	508	38	0	
11	0	0	0	0	512	536	182	511	38	0	
12	0	0	0	0	502	540	182	516	38	0	
13	0	0	0	0	498	540	182	518	38	0	
14	0	0	0	0	500	541	182	521	38	0	
15	0	0	0	0	504	539	182	521	38	0	
0	0	0	0	0	501	536	182	519	38	0	
1	0	0	0	0	495	531	182	516	38	0	
2	0	0	0	0	504	525	183	512	38	0	
3	0	0	0	0	515	520	183	508	38	0	
4	0	0	0	0	510	515	183	506	38	0	
5	0	0	0	0	517	512	183	504	38	0	
6	0	0	0	0	513	510	183	503	38	0	
7	0	0	0	0	519	510	182	502	38	0	
8	0	0	0	0	523	511	182	506	38	0	
9	0	0	0	0	523	516	182	509	38	0	
10	0	0	0	0	515	521	182	514	38	0	
11	0	0	0	0	502	526	182	518	38	0	
12	0	0	0	0	502	528	182	518	38	0	
13	0	0	0	0	503	532	183	521	38	0	
14	0	0	0	0	502	535	183	523	38	0	
15	0	0	0	0	493	536	183	521	38	0	
0	0	0	0	0	496	534	183	521	38	0	
1	0	0	0	0	499	530	183	516	38	0	
2	0	0	0	0	492	525	183	512	38	0	
3	0	0	0	0	508	520	182	509	38	0	
4	0	0	0	0	514	518	183	508	38	0	
5	0	0	0	0	511	516	183	507	38	0	
6	0	0	0	0	512	515	183	505	38	0	
7	0	0	0	0	511	514	182	503	38	0	
8	0	0	0	0	520	515	182	504	38	0	
9	0	0	0	0	523	519	182	505	38	0	
10	0	0	0	0	514	523	182	507	38	0	
11	0	0	0	0	510	527	182	508	38	0	
12	0	0	0	0	511	531	183	512	38	0	
13	0	0	0	0	504	534	183	515	38	0	
14	0	0	0	0	510	535	183	518	38	0	
15	0	0	0	0	499	537	183	519	38	0	
0	0	0	0	0	493	536	182	518	38	0	
1	0	0	0	0	496	532	182	518	38	0	
2	0	0	0	0	499	528	182	515	38	0	
3	0	0	0	0	504	522	183	511	38	0	
4	0	0	0	0	508	516	183	509	38	0	
5	0	0	0	0	508	512	183	508	38	0	
6	0	0	0	0	518	509	183	506	38	0	
7	0	0	0	0	513	507	182	504	38	0	
8	0	0	0	0	522	506	182	505	38	0	
9	0	0	0	0	526	508	182	507	38	0	
10	0	0	0	0	517	512	183	509	38	0	
11	0	0	0	0	513	517	183	520	38	0	
12	0	0	0	0	508	521	183	530	38	0	
13	0	0	0	0	510	526	183	536	38	0	
14	0	0	0	0	503	529	183	538	38	0	
15	0	0	0	0	502	530	182	537	38	0	
0	0	0	0	0	499	532	182	534	38	0	
1	0	0	0	0	497	531	183	531	38	0	
2	0	0	0	0	500	530	183	526	38	0	
3	0	0	0	0	494	526	183	521	38	0	
4	0	0	0	0	504	521	182	516	38	0	
5	0	0	0	0	509	517	182	512	38	0	
6	0	0	0	0	510	513	182	507	38	0	
7	0	0	0	0	516	510	182	505	38	0	
8	0	0	0	0	514	508	183	502	38	0	
9	0	0	0	0	520	510	183	501	38	0	
10	0	0	0	0	517	513	183	504	38	0	
11	0	0	0	0	520	518	183	507	38	0	
12	0	0	0	0	522	522	182	510	38	0	
13	0	0	0	0	512	527	182	515	38	0	
14	0	0	0	0	511	530	182	518	38	0	
15	0	0	0	0	504	532	182	517	38	0	
0	0	0	0	0	505	534	182	516	38	0	
1	0	0	0	0	499	534	183	515	38	0	
2	0	0	0	0	496	532	182	512	38	0	
3	0	0	0	0	498	529	183	510	38	0	
4	0	0	0	0	495	524	182	507	38	0	
5	0	0	0	0	504	519	182	507	38	0	
6	0	0	0	0	507	515	182	507	38	0	
7	0	0	0	0	509	513	182	507	38	0	
8	0	0	0	0	512	511	183	505	38	0	
9	0	0	0	0	517	509	183	505	38	0	
10	0	0	0	0	522	510	183	505	38	0	
11	0	0	0	0	520	513	183	510	38	0	
12	0	0	0	0	523	518	183	519	38	0	
13	0	0	0	0	509	521	182	526	38	0	
14	0	0	0	0	517	526	182	540	38	0	
15	0	0	0	0	504	530	182	530	38	0	
0	0	0	0	0	501	532	182	530	38	0	
1	0	0	0	0	504	533	182	527	38	0	
2	0	0	0	0	500	533	183	526	38	0	
3	0	0	0	0	499	531	182	519	38	0	
4	0	0	0	0	497	528	182	516	38	0	
5	0	0	0	0	504	525	183	512	38	0	
6	0	0	0	0	509	521	183	509	38	0	
7	0	0	0	0	507	517	182	504	38	0	
8	0	0	0	0	517	513	182	502	38	0	
9	0	0	0	0	514	511	183	503	38	0	
10	0	0	0	0	521	512	183	505	38	0	
11	0	0	0	0	523	516	183	504	38	0	
12	0	0	0	0	518	519	183	505	38	0	
13	0	0	0	0	516	522	182	505	38	0	
14	0	0	0	0	515	525	182	507	38	0	
15	0	0	0	0	509	527	182	507	38	0	
0	0	0	0	0	499	531	183	510	38	0	
1	0	0	0	0	501	534	182	513	38	0	
2	0	0	0	0	496	535	182	515	38	0	
3	0	0	0	0	493	534	182	516	38	0	
