# OpenSignals Text File Format. Version 1
# {"98:D3:B1:FD:3D:90": {"position": 0, "device": "bitalino_rev", "device name": "98:D3:B1:FD:3D:90", "device connection": "/dev/tty.BITalino-DevB", "sampling rate": 1000, "resolution": [4, 1, 1, 1, 1, 10, 10, 10, 10, 6, 6], "firmware version": 1281, "comments": "", "keywords": "", "mode": 0, "sync interval": 2, "date": "2022-4-6", "time": "22:26:9.35", "channels": [1, 2, 3, 4, 5, 6], "sensor": ["RAW", "ECGBIT", "EDABITREV", "RAW", "RAW", "RAW"], "label": ["A1", "A2", "A3", "A4", "A5", "A6"], "column": ["nSeq", "I1", "I2", "O1", "O2", "A1", "A2", "A3", "A4", "A5", "A6"], "special": [{}, {}, {}, {}, {}, {}], "digital IO": [0, 0, 1, 1]}}
# EndOfHeader
0	0	0	0	0	512	0	179	513	38	0	
1	0	0	0	0	510	0	179	513	38	0	
2	0	0	0	0	510	0	179	515	38	0	
3	0	0	0	0	506	0	179	514	38	0	
4	0	0	0	0	503	0	179	513	38	0	
5	0	0	0	0	511	0	179	518	38	0	
6	0	0	0	0	505	0	179	510	38	0	
7	0	0	0	0	507	0	179	511	38	0	
8	0	0	0	0	509	0	179	510	38	0	
9	0	0	0	0	508	0	179	509	38	0	
10	0	0	0	0	505	0	179	509	38	0	
11	0	0	0	0	504	0	179	510	38	0	
12	0	0	0	0	510	0	179	510	38	0	
13	0	0	0	0	515	0	179	512	38	0	
14	0	0	0	0	507	0	179	514	38	0	
15	0	0	0	0	507	0	179	516	38	0	
0	0	0	0	0	505	0	179	519	38	0	
1	0	0	0	0	516	0	179	518	38	0	
2	0	0	0	0	514	0	179	518	38	0	
3	0	0	0	0	507	0	179	517	38	0	
4	0	0	0	0	505	0	179	517	38	0	
5	0	0	0	0	505	0	179	516	38	0	
6	0	0	0	0	505	0	179	514	38	0	
7	0	0	0	0	513	0	179	512	38	0	
8	0	0	0	0	505	0	179	512	38	0	
9	0	0	0	0	501	0	179	511	38	0	
10	0	0	0	0	505	0	179	509	38	0	
11	0	0	0	0	504	0	179	510	38	0	
12	0	0	0	0	508	0	179	511	38	0	
13	0	0	0	0	514	0	179	511	38	0	
14	0	0	0	0	507	0	179	512	38	0	
15	0	0	0	0	513	0	179	513	38	0	
0	0	0	0	0	508	0	179	515	38	0	
1	0	0	0	0	510	0	179	518	38	0	
2	0	0	0	0	512	0	179	518	38	0	
3	0	0	0	0	514	0	179	518	38	0	
4	0	0	0	0	507	0	179	519	38	0	
5	0	0	0	0	510	0	179	518	38	0	
6	0	0	0	0	500	0	179	517	38	0	
7	0	0	0	0	509	0	179	515	38	0	
8	0	0	0	0	510	0	179	514	38	0	
9	0	0	0	0	502	0	179	511	38	0	
10	0	0	0	0	506	0	179	511	38	0	
11	0	0	0	0	507	0	179	510	38	0	
12	0	0	0	0	511	0	179	509	38	0	
13	0	0	0	0	512	0	179	508	38	0	
14	0	0	0	0	512	0	179	507	38	0	
15	0	0	0	0	511	0	179	507	38	0	
0	0	0	0	0	508	0	179	509	38	0	
1	0	0	0	0	504	0	179	509	38	0	
2	0	0	0	0	508	0	179	511	38	0	
3	0	0	0	0	515	0	179	511	38	0	
4	0	0	0	0	510	0	179	510	38	0	
5	0	0	0	0	505	0	179	511	38	0	
6	0	0	0	0	504	0	179	510	38	0	
7	0	0	0	0	503	0	179	511	38	0	
8	0	0	0	0	498	0	179	510	38	0	
9	0	0	0	0	510	0	179	509	38	0	
10	0	0	0	0	508	0	179	508	38	0	
11	0	0	0	0	510	0	179	508	38	0	
12	0	0	0	0	513	0	179	507	38	0	
13	0	0	0	0	510	0	179	507	38	0	
14	0	0	0	0	509	0	179	508	38	0	
15	0	0	0	0	513	0	179	507	38	0	
0	0	0	0	0	503	0	179	510	38	0	
1	0	0	0	0	511	0	179	513	38	0	
2	0	0	0	0	512	0	179	515	38	0	
3	0	0	0	0	508	0	179	515	38	0	
4	0	0	0	0	510	0	179	524	38	0	
5	0	0	0	0	509	0	179	516	38	0	
6	0	0	0	0	505	0	179	514	38	0	
7	0	0	0	0	502	0	179	511	38	0	
8	0	0	0	0	512	0	179	510	38	0	
9	0	0	0	0	508	0	179	512	38	0	
10	0	0	0	0	504	0	179	506	38	0	
11	0	0	0	0	507	0	179	507	38	0	
12	0	0	0	0	509	0	179	506	38	0	
13	0	0	0	0	507	0	179	508	38	0	
14	0	0	0	0	507	0	179	516	38	0	
15	0	0	0	0	516	0	179	512	38	0	
0	0	0	0	0	508	0	179	515	38	0	
1	0	0	0	0	501	0	179	515	38	0	
2	0	0	0	0	508	0	179	516	38	0	
3	0	0	0	0	511	0	179	518	38	0	
4	0	0	0	0	506	0	179	516	38	0	
5	0	0	0	0	513	0	180	516	38	0	
6	0	0	0	0	503	0	179	515	38	0	
7	0	0	0	0	504	0	179	513	38	0	
8	0	0	0	0	514	0	179	510	38	0	
9	0	0	0	0	505	0	179	508	38	0	
10	0	0	0	0	510	0	180	507	38	0	
11	0	0	0	0	502	0	179	506	38	0	
12	0	0	0	0	509	0	179	504	38	0	
13	0	0	0	0	504	0	179	506	38	0	
14	0	0	0	0	505	0	179	508	38	0	
15	0	0	0	0	511	0	179	509	38	0	
0	0	0	0	0	510	0	179	511	38	0	
1	0	0	0	0	511	0	179	512	38	0	
2	0	0	0	0	515	0	179	515	38	0	
3	0	0	0	0	502	0	179	517	38	0	
4	0	0	0	0	507	0	179	519	38	0	
5	0	0	0	0	514	0	179	519	38	0	
6	0	0	0	0	506	0	179	519	38	0	
7	0	0	0	0	511	0	179	519	38	0	
8	0	0	0	0	505	0	179	516	38	0	
9	0	0	0	0	506	0	179	515	38	0	
10	0	0	0	0	510	0	179	513	38	0	
11	0	0	0	0	504	0	179	510	38	0	
12	0	0	0	0	510	0	179	507	38	0	
13	0	0	0	0	504	0	179	507	38	0	
14	0	0	0	0	509	0	179	506	38	0	
15	0	0	0	0	503	0	179	506	38	0	
0	0	0	0	0	512	0	179	510	38	0	
1	0	0	0	0	510	0	179	513	38	0	
2	0	0	0	0	508	0	179	515	38	0	
3	0	0	0	0	511	0	179	517	38	0	
4	0	0	0	0	518	0	179	517	38	0	
5	0	0	0	0	518	0	179	515	38	0	
6	0	0	0	0	506	0	179	515	38	0	
7	0	0	0	0	507	0	179	514	38	0	
8	0	0	0	0	506	0	180	513	38	0	
9	0	0	0	0	504	0	179	511	38	0	
10	0	0	0	0	507	0	179	510	38	0	
11	0	0	0	0	503	0	179	509	38	0	
12	0	0	0	0	506	0	179	508	38	0	
13	0	0	0	0	497	0	180	509	38	0	
14	0	0	0	0	513	0	179	507	38	0	
15	0	0	0	0	513	0	180	508	38	0	
0	0	0	0	0	511	0	179	509	38	0	
1	0	0	0	0	515	0	180	512	38	0	
2	0	0	0	0	512	0	180	516	38	0	
3	0	0	0	0	502	0	179	519	38	0	
4	0	0	0	0	508	0	179	522	38	0	
5	0	0	0	0	513	0	180	522	38	0	
6	0	0	0	0	510	0	179	521	38	0	
7	0	0	0	0	514	0	179	520	38	0	
8	0	0	0	0	504	0	179	520	38	0	
9	0	0	0	0	503	0	180	523	38	0	
10	0	0	0	0	510	499	178	517	38	0	
11	0	0	0	0	517	991	177	514	38	0	
12	0	0	0	0	512	1022	177	512	38	0	
13	0	0	0	0	507	1022	176	508	38	0	
14	0	0	0	0	503	1023	177	503	38	0	
15	0	0	0	0	502	1022	177	501	38	0	
0	0	0	0	0	498	1022	177	502	38	0	
1	0	0	0	0	511	1022	176	505	38	0	
2	0	0	0	0	515	1022	177	507	38	0	
3	0	0	0	0	509	1022	177	511	38	0	
4	0	0	0	0	508	1022	176	515	38	0	
5	0	0	0	0	513	1022	176	515	38	0	
6	0	0	0	0	508	1022	177	516	38	0	
7	0	0	0	0	516	1022	177	521	38	0	
8	0	0	0	0	508	1022	176	515	38	0	
9	0	0	0	0	498	1022	176	515	38	0	
10	0	0	0	0	512	1022	177	511	38	0	
11	0	0	0	0	503	1022	177	507	38	0	
12	0	0	0	0	511	1022	177	504	38	0	
13	0	0	0	0	504	1022	176	504	38	0	
14	0	0	0	0	500	1022	177	502	38	0	
15	0	0	0	0	510	1022	177	501	38	0	
0	0	0	0	0	504	1022	178	504	38	0	
1	0	0	0	0	512	1022	177	504	38	0	
2	0	0	0	0	515	1022	176	507	38	0	
3	0	0	0	0	515	1022	177	510	38	0	
4	0	0	0	0	504	1022	177	525	38	0	
5	0	0	0	0	511	1023	177	547	38	0	
6	0	0	0	0	516	1022	176	537	38	0	
7	0	0	0	0	506	1022	176	536	38	0	
8	0	0	0	0	500	1022	177	533	38	0	
9	0	0	0	0	512	1022	177	529	38	0	
10	0	0	0	0	508	1023	178	524	38	0	
11	0	0	0	0	511	1022	176	519	38	0	
12	0	0	0	0	511	1022	176	516	38	0	
13	0	0	0	0	504	1022	177	513	38	0	
14	0	0	0	0	503	1023	177	510	38	0	
15	0	0	0	0	504	1022	177	509	38	0	
0	0	0	0	0	508	1023	176	507	38	0	
1	0	0	0	0	509	1022	177	505	38	0	
2	0	0	0	0	514	1022	177	505	38	0	
3	0	0	0	0	512	1022	177	511	38	0	
4	0	0	0	0	508	1022	176	505	38	0	
5	0	0	0	0	505	1022	177	506	38	0	
6	0	0	0	0	512	1023	177	506	38	0	
7	0	0	0	0	519	1022	177	506	38	0	
8	0	0	0	0	506	1022	176	506	38	0	
9	0	0	0	0	509	1022	177	508	38	0	
10	0	0	0	0	504	1022	177	508	38	0	
11	0	0	0	0	507	1022	176	509	38	0	
12	0	0	0	0	507	1022	177	509	38	0	
13	0	0	0	0	509	1022	177	507	38	0	
14	0	0	0	0	507	1022	178	508	38	0	
15	0	0	0	0	510	1022	177	507	38	0	
0	0	0	0	0	509	1022	176	505	38	0	
1	0	0	0	0	510	1022	176	505	38	0	
2	0	0	0	0	504	1022	177	506	38	0	
3	0	0	0	0	506	1022	177	507	38	0	
4	0	0	0	0	512	1022	177	509	38	0	
5	0	0	0	0	511	1023	177	513	38	0	
6	0	0	0	0	502	1022	176	516	38	0	
7	0	0	0	0	507	1022	177	517	38	0	
8	0	0	0	0	512	1022	177	519	38	0	
9	0	0	0	0	510	1022	177	519	38	0	
10	0	0	0	0	515	1022	177	518	38	0	
11	0	0	0	0	506	1022	176	516	38	0	
12	0	0	0	0	505	1022	177	515	38	0	
13	0	0	0	0	519	1022	177	513	38	0	
14	0	0	0	0	506	1023	178	510	38	0	
15	0	0	0	0	500	1022	176	508	38	0	
0	0	0	0	0	508	1022	176	507	38	0	
1	0	0	0	0	507	1022	177	505	38	0	
2	0	0	0	0	508	1022	177	506	38	0	
3	0	0	0	0	511	1022	177	505	38	0	
4	0	0	0	0	512	1022	177	509	38	0	
5	0	0	0	0	511	1022	176	511	38	0	
6	0	0	0	0	508	1022	176	513	38	0	
7	0	0	0	0	508	1022	177	514	38	0	
8	0	0	0	0	508	1022	177	515	38	0	
9	0	0	0	0	505	1022	177	516	38	0	
10	0	0	0	0	517	1022	176	515	38	0	
11	0	0	0	0	507	1022	176	512	38	0	
12	0	0	0	0	506	1022	177	511	38	0	
13	0	0	0	0	496	1022	177	509	38	0	
14	0	0	0	0	504	1022	176	505	38	0	
15	0	0	0	0	502	1022	177	504	38	0	
0	0	0	0	0	505	1022	177	503	38	0	
1	0	0	0	0	507	1022	177	504	38	0	
2	0	0	0	0	499	1022	177	504	38	0	
3	0	0	0	0	508	1022	176	506	38	0	
4	0	0	0	0	516	1022	176	506	38	0	
5	0	0	0	0	514	1022	177	508	38	0	
6	0	0	0	0	511	1022	177	513	38	0	
7	0	0	0	0	515	1022	177	515	38	0	
8	0	0	0	0	514	1022	176	518	38	0	
9	0	0	0	0	513	1022	177	519	38	0	
10	0	0	0	0	513	1022	177	519	38	0	
11	0	0	0	0	506	1022	178	519	38	0	
12	0	0	0	0	502	1022	177	517	38	0	
13	0	0	0	0	508	1022	176	515	38	0	
14	0	0	0	0	505	1022	176	512	38	0	
15	0	0	0	0	511	1022	177	513	38	0	
0	0	0	0	0	500	1022	177	512	38	0	
1	0	0	0	0	500	1022	176	511	38	0	
2	0	0	0	0	507	1022	176	508	38	0	
3	0	0	0	0	511	1022	177	507	38	0	
4	0	0	0	0	510	1022	177	506	38	0	
5	0	0	0	0	513	1022	176	506	38	0	
6	0	0	0	0	511	1022	176	519	38	0	
7	0	0	0	0	506	1022	177	516	38	0	
8	0	0	0	0	509	1022	177	522	38	0	
9	0	0	0	0	511	1016	176	526	38	0	
10	0	0	0	0	509	994	176	527	38	0	
11	0	0	0	0	506	974	177	527	38	0	
12	0	0	0	0	508	955	178	526	38	0	
13	0	0	0	0	504	937	177	527	38	0	
14	0	0	0	0	503	919	176	519	38	0	
15	0	0	0	0	508	902	177	515	38	0	
0	0	0	0	0	503	886	178	512	38	0	
1	0	0	0	0	508	871	177	510	38	0	
2	0	0	0	0	504	856	177	507	38	0	
3	0	0	0	0	509	842	178	504	38	0	
4	0	0	0	0	499	829	178	505	38	0	
5	0	0	0	0	516	816	177	505	38	0	
6	0	0	0	0	510	803	177	507	38	0	
7	0	0	0	0	515	791	178	507	38	0	
8	0	0	0	0	517	779	178	511	38	0	
9	0	0	0	0	512	768	177	517	38	0	
10	0	0	0	0	510	758	177	515	38	0	
11	0	0	0	0	508	748	178	516	38	0	
12	0	0	0	0	515	738	178	516	38	0	
13	0	0	0	0	504	729	179	515	38	0	
14	0	0	0	0	506	720	178	514	38	0	
15	0	0	0	0	511	711	177	513	38	0	
0	0	0	0	0	504	703	178	515	38	0	
1	0	0	0	0	511	695	179	508	38	0	
2	0	0	0	0	504	687	178	507	38	0	
3	0	0	0	0	502	681	178	507	38	0	
4	0	0	0	0	504	673	178	507	38	0	
5	0	0	0	0	503	667	179	509	38	0	
6	0	0	0	0	513	661	178	509	38	0	
7	0	0	0	0	508	655	178	510	38	0	
8	0	0	0	0	507	649	179	511	38	0	
9	0	0	0	0	511	643	179	512	38	0	
10	0	0	0	0	516	638	179	513	38	0	
11	0	0	0	0	509	632	178	516	38	0	
12	0	0	0	0	504	627	178	516	38	0	
13	0	0	0	0	512	623	179	517	38	0	
14	0	0	0	0	506	618	179	515	38	0	
15	0	0	0	0	501	614	179	511	38	0	
0	0	0	0	0	504	610	178	510	38	0	
1	0	0	0	0	507	606	178	507	38	0	
2	0	0	0	0	504	602	179	507	38	0	
3	0	0	0	0	517	598	179	504	38	0	
4	0	0	0	0	501	594	179	502	38	0	
5	0	0	0	0	512	591	178	511	38	0	
6	0	0	0	0	512	588	179	503	38	0	
7	0	0	0	0	513	585	179	506	38	0	
8	0	0	0	0	507	583	179	507	38	0	
9	0	0	0	0	508	580	179	509	38	0	
10	0	0	0	0	512	577	178	510	38	0	
11	0	0	0	0	508	575	178	513	38	0	
12	0	0	0	0	510	572	179	523	38	0	
13	0	0	0	0	504	569	179	510	38	0	
14	0	0	0	0	508	567	178	508	38	0	
15	0	0	0	0	516	565	179	508	38	0	
0	0	0	0	0	507	563	179	507	38	0	
1	0	0	0	0	506	561	179	510	38	0	
2	0	0	0	0	513	558	178	504	38	0	
3	0	0	0	0	502	556	179	504	38	0	
4	0	0	0	0	504	555	179	503	38	0	
5	0	0	0	0	508	553	179	503	38	0	
6	0	0	0	0	507	552	178	505	38	0	
7	0	0	0	0	508	550	179	504	38	0	
8	0	0	0	0	511	548	179	505	38	0	
9	0	0	0	0	515	542	179	507	38	0	
10	0	0	0	0	507	529	178	511	38	0	
11	0	0	0	0	507	513	179	513	38	0	
12	0	0	0	0	509	494	179	515	38	0	
13	0	0	0	0	506	475	179	516	38	0	
14	0	0	0	0	505	459	179	515	38	0	
15	0	0	0	0	506	440	179	516	38	0	
0	0	0	0	0	505	419	179	515	38	0	
1	0	0	0	0	508	398	180	513	38	0	
2	0	0	0	0	508	378	179	511	38	0	
3	0	0	0	0	501	359	180	510	38	0	
4	0	0	0	0	504	338	180	508	38	0	
5	0	0	0	0	509	319	180	507	38	0	
6	0	0	0	0	509	300	180	507	38	0	
7	0	0	0	0	502	281	180	507	38	0	
8	0	0	0	0	508	262	180	507	38	0	
9	0	0	0	0	515	243	180	509	38	0	
10	0	0	0	0	511	227	180	511	38	0	
11	0	0	0	0	508	210	180	512	38	0	
12	0	0	0	0	510	192	180	515	38	0	
13	0	0	0	0	513	175	180	517	38	0	
14	0	0	0	0	515	156	180	518	38	0	
15	0	0	0	0	508	137	180	519	38	0	
0	0	0	0	0	500	120	180	515	38	0	
1	0	0	0	0	504	102	180	515	38	0	
2	0	0	0	0	513	83	180	512	38	0	
3	0	0	0	0	516	65	180	511	38	0	
4	0	0	0	0	498	49	180	509	38	0	
5	0	0	0	0	503	33	180	507	38	0	
6	0	0	0	0	504	16	180	505	38	0	
7	0	0	0	0	506	0	180	505	38	0	
8	0	0	0	0	500	0	180	504	38	0	
9	0	0	0	0	513	0	180	505	38	0	
10	0	0	0	0	513	0	180	509	38	0	
11	0	0	0	0	507	0	180	509	38	0	
12	0	0	0	0	508	0	180	512	38	0	
13	0	0	0	0	513	0	180	515	38	0	
14	0	0	0	0	515	0	180	516	38	0	
15	0	0	0	0	511	0	180	516	38	0	
0	0	0	0	0	505	0	180	517	38	0	
1	0	0	0	0	502	0	180	517	38	0	
2	0	0	0	0	509	0	180	515	38	0	
3	0	0	0	0	501	0	180	514	38	0	
4	0	0	0	0	505	0	180	512	38	0	
5	0	0	0	0	500	0	180	510	38	0	
6	0	0	0	0	513	0	180	508	38	0	
7	0	0	0	0	510	0	180	508	38	0	
8	0	0	0	0	505	0	180	506	38	0	
9	0	0	0	0	512	0	180	507	38	0	
10	0	0	0	0	512	0	180	506	38	0	
11	0	0	0	0	505	0	180	508	38	0	
12	0	0	0	0	507	0	180	511	38	0	
13	0	0	0	0	511	0	180	513	38	0	
14	0	0	0	0	510	0	180	516	38	0	
15	0	0	0	0	519	0	180	516	38	0	
0	0	0	0	0	509	0	180	515	38	0	
1	0	0	0	0	505	0	180	513	38	0	
2	0	0	0	0	506	0	180	511	38	0	
3	0	0	0	0	509	0	180	511	38	0	
4	0	0	0	0	508	0	180	507	38	0	
5	0	0	0	0	503	0	180	512	38	0	
6	0	0	0	0	497	0	180	504	38	0	
7	0	0	0	0	502	0	180	504	38	0	
8	0	0	0	0	507	0	180	503	38	0	
9	0	0	0	0	516	0	180	505	38	0	
10	0	0	0	0	511	0	180	507	38	0	
11	0	0	0	0	516	0	180	511	38	0	
12	0	0	0	0	510	0	180	514	38	0	
13	0	0	0	0	505	0	180	514	38	0	
14	0	0	0	0	503	0	180	516	38	0	
15	0	0	0	0	510	0	180	519	38	0	
0	0	0	0	0	510	0	180	519	38	0	
1	0	0	0	0	508	0	180	520	38	0	
2	0	0	0	0	508	0	180	519	38	0	
3	0	0	0	0	506	0	180	519	38	0	
4	0	0	0	0	505	0	180	515	38	0	
5	0	0	0	0	501	0	180	513	38	0	
6	0	0	0	0	513	0	180	512	38	0	
7	0	0	0	0	512	0	180	509	38	0	
8	0	0	0	0	507	0	180	507	38	0	
9	0	0	0	0	511	0	180	505	38	0	
10	0	0	0	0	512	0	180	505	38	0	
11	0	0	0	0	508	0	180	505	38	0	
12	0	0	0	0	508	0	180	516	38	0	
13	0	0	0	0	504	0	180	511	38	0	
14	0	0	0	0	507	0	180	514	38	0	
15	0	0	0	0	511	0	180	515	38	0	
0	0	0	0	0	504	0	180	516	38	0	
1	0	0	0	0	517	0	180	516	38	0	
2	0	0	0	0	512	0	180	517	38	0	
3	0	0	0	0	502	0	180	514	38	0	
4	0	0	0	0	503	0	180	514	38	0	
5	0	0	0	0	502	0	180	511	38	0	
6	0	0	0	0	516	0	180	510	38	0	
7	0	0	0	0	507	0	180	509	38	0	
8	0	0	0	0	503	0	180	507	38	0	
9	0	0	0	0	507	0	180	505	38	0	
10	0	0	0	0	511	0	180	504	38	0	
11	0	0	0	0	506	0	180	506	38	0	
12	0	0	0	0	511	0	180	507	38	0	
13	0	0	0	0	507	0	180	509	38	0	
14	0	0	0	0	507	0	180	510	38	0	
15	0	0	0	0	510	0	180	513	38	0	
0	0	0	0	0	506	0	180	513	38	0	
1	0	0	0	0	514	0	180	513	38	0	
2	0	0	0	0	511	0	180	514	38	0	
3	0	0	0	0	503	0	180	512	38	0	
4	0	0	0	0	500	0	180	512	38	0	
5	0	0	0	0	502	0	180	508	38	0	
6	0	0	0	0	512	0	180	508	38	0	
7	0	0	0	0	507	0	180	506	38	0	
8	0	0	0	0	505	0	180	505	38	0	
9	0	0	0	0	504	0	180	506	38	0	
10	0	0	0	0	507	0	180	505	38	0	
11	0	0	0	0	514	0	180	515	38	0	
12	0	0	0	0	510	0	180	508	38	0	
13	0	0	0	0	509	0	180	509	38	0	
14	0	0	0	0	514	0	180	511	38	0	
15	0	0	0	0	515	0	180	512	38	0	
0	0	0	0	0	507	0	180	511	38	0	
1	0	0	0	0	505	0	180	513	38	0	
2	0	0	0	0	508	0	180	513	38	0	
3	0	0	0	0	507	0	180	516	38	0	
4	0	0	0	0	497	0	180	516	38	0	
5	0	0	0	0	507	0	180	513	38	0	
6	0	0	0	0	509	0	180	510	38	0	
7	0	0	0	0	506	0	180	508	38	0	
8	0	0	0	0	507	0	180	508	38	0	
9	0	0	0	0	507	0	180	505	38	0	
10	0	0	0	0	508	0	180	504	38	0	
11	0	0	0	0	502	0	180	506	38	0	
12	0	0	0	0	510	0	180	504	38	0	
13	0	0	0	0	514	0	180	508	38	0	
14	0	0	0	0	515	0	180	512	38	0	
15	0	0	0	0	503	0	180	515	38	0	
0	0	0	0	0	505	0	180	516	38	0	
1	0	0	0	0	513	0	180	516	38	0	
2	0	0	0	0	511	0	180	516	38	0	
3	0	0	0	0	517	0	180	515	38	0	
4	0	0	0	0	510	0	180	514	38	0	
5	0	0	0	0	506	0	180	513	38	0	
6	0	0	0	0	502	0	180	512	38	0	
7	0	0	0	0	506	0	180	513	38	0	
8	0	0	0	0	515	0	180	517	38	0	
9	0	0	0	0	508	0	180	509	38	0	
10	0	0	0	0	505	0	180	508	38	0	
11	0	0	0	0	498	0	180	506	38	0	
12	0	0	0	0	508	0	180	505	38	0	
13	0	0	0	0	515	0	180	505	38	0	
14	0	0	0	0	512	0	180	508	38	0	
15	0	0	0	0	510	0	180	512	38	0	
0	0	0	0	0	513	0	180	511	38	0	
1	0	0	0	0	507	0	180	513	38	0	
2	0	0	0	0	504	0	180	514	38	0	
3	0	0	0	0	513	0	180	516	38	0	
4	0	0	0	0	508	0	180	517	38	0	
5	0	0	0	0	498	0	180	518	38	0	
6	0	0	0	0	510	0	180	519	38	0	
7	0	0	0	0	502	0	180	517	38	0	
8	0	0	0	0	513	0	180	513	38	0	
9	0	0	0	0	505	0	180	510	38	0	
10	0	0	0	0	504	0	180	508	38	0	
11	0	0	0	0	505	0	180	507	38	0	
12	0	0	0	0	506	0	180	506	38	0	
13	0	0	0	0	504	0	180	505	38	0	
14	0	0	0	0	513	0	180	508	38	0	
15	0	0	0	0	515	0	180	511	38	0	
0	0	0	0	0	511	0	180	513	38	0	
1	0	0	0	0	504	0	180	516	38	0	
2	0	0	0	0	512	0	180	517	38	0	
3	0	0	0	0	516	0	180	518	38	0	
4	0	0	0	0	519	0	180	518	38	0	
5	0	0	0	0	510	0	180	517	38	0	
6	0	0	0	0	506	0	180	515	38	0	
7	0	0	0	0	499	0	180	512	38	0	
8	0	0	0	0	504	0	180	510	38	0	
9	0	0	0	0	508	0	180	507	38	0	
10	0	0	0	0	502	0	180	507	38	0	
11	0	0	0	0	512	0	180	507	38	0	
12	0	0	0	0	509	0	180	505	38	0	
13	0	0	0	0	504	0	180	506	38	0	
14	0	0	0	0	502	0	180	507	38	0	
15	0	0	0	0	510	0	180	508	38	0	
0	0	0	0	0	509	0	180	511	38	0	
1	0	0	0	0	508	0	180	513	38	0	
2	0	0	0	0	509	0	180	517	38	0	
3	0	0	0	0	506	0	180	518	38	0	
4	0	0	0	0	517	0	180	519	38	0	
5	0	0	0	0	509	0	180	519	38	0	
6	0	0	0	0	522	0	180	519	38	0	
7	0	0	0	0	504	0	180	518	38	0	
8	0	0	0	0	507	0	180	517	38	0	
9	0	0	0	0	499	0	180	515	38	0	
10	0	0	0	0	507	0	180	512	38	0	
11	0	0	0	0	505	0	180	510	38	0	
12	0	0	0	0	508	0	180	510	38	0	
13	0	0	0	0	509	0	180	510	38	0	
14	0	0	0	0	512	0	180	512	38	0	
15	0	0	0	0	510	0	180	512	38	0	
0	0	0	0	0	511	0	180	512	38	0	
1	0	0	0	0	508	0	180	512	38	0	
2	0	0	0	0	511	0	180	514	38	0	
3	0	0	0	0	511	0	180	514	38	0	
4	0	0	0	0	512	0	180	515	38	0	
5	0	0	0	0	506	0	180	515	38	0	
6	0	0	0	0	507	0	180	517	38	0	
7	0	0	0	0	510	0	180	515	38	0	
8	0	0	0	0	511	0	180	513	38	0	
9	0	0	0	0	504	0	180	512	38	0	
10	0	0	0	0	504	0	180	508	38	0	
11	0	0	0	0	506	0	180	507	38	0	
12	0	0	0	0	506	0	180	504	38	0	
13	0	0	0	0	498	0	180	505	38	0	
14	0	0	0	0	506	0	180	505	38	0	
15	0	0	0	0	513	0	180	505	38	0	
0	0	0	0	0	512	0	180	507	38	0	
1	0	0	0	0	511	0	180	510	38	0	
2	0	0	0	0	508	0	180	522	38	0	
3	0	0	0	0	508	0	180	516	38	0	
4	0	0	0	0	514	0	180	517	38	0	
5	0	0	0	0	507	0	180	518	38	0	
6	0	0	0	0	504	0	180	518	38	0	
7	0	0	0	0	512	0	181	519	38	0	
8	0	0	0	0	508	0	180	518	38	0	
9	0	0	0	0	502	0	180	524	38	0	
10	0	0	0	0	511	0	180	510	38	0	
11	0	0	0	0	513	0	180	507	38	0	
12	0	0	0	0	505	0	181	504	38	0	
13	0	0	0	0	507	0	180	504	38	0	
14	0	0	0	0	499	0	180	503	38	0	
15	0	0	0	0	504	0	181	504	38	0	
0	0	0	0	0	511	0	180	509	38	0	
1	0	0	0	0	512	0	180	508	38	0	
2	0	0	0	0	513	0	180	510	38	0	
3	0	0	0	0	511	0	180	513	38	0	
4	0	0	0	0	512	0	180	513	38	0	
5	0	0	0	0	509	0	180	516	38	0	
6	0	0	0	0	509	0	180	519	38	0	
7	0	0	0	0	503	0	180	520	38	0	
8	0	0	0	0	512	0	180	518	38	0	
9	0	0	0	0	504	0	180	516	38	0	
10	0	0	0	0	505	0	180	515	38	0	
11	0	0	0	0	512	0	180	513	38	0	
12	0	0	0	0	511	0	180	512	38	0	
13	0	0	0	0	499	0	180	511	38	0	
14	0	0	0	0	503	0	180	509	38	0	
15	0	0	0	0	499	0	180	507	38	0	
0	0	0	0	0	505	0	181	507	38	0	
1	0	0	0	0	510	0	181	509	38	0	
2	0	0	0	0	511	0	180	511	38	0	
3	0	0	0	0	517	0	180	513	38	0	
4	0	0	0	0	513	0	180	518	38	0	
5	0	0	0	0	512	0	181	518	38	0	
6	0	0	0	0	508	0	181	518	38	0	
7	0	0	0	0	512	0	180	517	38	0	
8	0	0	0	0	512	0	180	518	38	0	
9	0	0	0	0	509	0	180	524	38	0	
10	0	0	0	0	508	0	181	514	38	0	
11	0	0	0	0	504	0	180	511	38	0	
12	0	0	0	0	501	0	180	508	38	0	
13	0	0	0	0	511	0	180	506	38	0	
14	0	0	0	0	502	0	180	504	38	0	
15	0	0	0	0	500	0	180	504	38	0	
0	0	0	0	0	508	0	181	504	38	0	
1	0	0	0	0	510	0	181	504	38	0	
2	0	0	0	0	507	0	180	507	38	0	
3	0	0	0	0	502	0	180	509	38	0	
4	0	0	0	0	514	0	180	523	38	0	
5	0	0	0	0	510	0	180	516	38	0	
6	0	0	0	0	515	0	180	518	38	0	
7	0	0	0	0	510	0	180	519	38	0	
8	0	0	0	0	517	0	180	520	38	0	
9	0	0	0	0	507	0	180	520	38	0	
10	0	0	0	0	504	0	180	518	38	0	
11	0	0	0	0	508	0	180	518	38	0	
12	0	0	0	0	504	0	180	514	38	0	
13	0	0	0	0	509	0	180	510	38	0	
14	0	0	0	0	504	0	180	510	38	0	
15	0	0	0	0	499	0	180	509	38	0	
0	0	0	0	0	505	0	180	508	38	0	
1	0	0	0	0	505	0	180	508	38	0	
2	0	0	0	0	506	0	180	507	38	0	
3	0	0	0	0	505	0	180	508	38	0	
4	0	0	0	0	515	0	180	508	38	0	
5	0	0	0	0	512	0	180	509	38	0	
6	0	0	0	0	513	0	180	511	38	0	
7	0	0	0	0	510	0	180	515	38	0	
8	0	0	0	0	518	0	180	516	38	0	
9	0	0	0	0	510	0	180	515	38	0	
10	0	0	0	0	513	0	180	516	38	0	
11	0	0	0	0	505	0	180	510	38	0	
12	0	0	0	0	497	0	180	509	38	0	
13	0	0	0	0	508	0	180	507	38	0	
14	0	0	0	0	512	0	180	505	38	0	
15	0	0	0	0	506	0	180	504	38	0	
0	0	0	0	0	510	0	180	503	38	0	
1	0	0	0	0	509	0	180	503	38	0	
2	0	0	0	0	503	0	180	504	38	0	
3	0	0	0	0	502	0	180	504	38	0	
4	0	0	0	0	514	0	180	507	38	0	
5	0	0	0	0	513	0	180	508	38	0	
6	0	0	0	0	507	0	180	511	38	0	
7	0	0	0	0	500	0	180	523	38	0	
8	0	0	0	0	512	0	180	513	38	0	
9	0	0	0	0	508	0	180	515	38	0	
10	0	0	0	0	514	0	180	515	38	0	
11	0	0	0	0	507	0	180	512	38	0	
12	0	0	0	0	511	0	180	510	38	0	
13	0	0	0	0	503	0	180	510	38	0	
14	0	0	0	0	507	0	181	511	38	0	
15	0	0	0	0	504	0	180	510	38	0	
0	0	0	0	0	510	4	180	509	38	0	
1	0	0	0	0	500	7	180	508	38	0	
2	0	0	0	0	497	7	180	507	38	0	
3	0	0	0	0	504	9	180	508	38	0	
4	0	0	0	0	510	14	181	509	38	0	
5	0	0	0	0	516	18	180	510	38	0	
6	0	0	0	0	510	22	180	511	38	0	
7	0	0	0	0	516	26	180	512	38	0	
8	0	0	0	0	521	30	180	514	38	0	
9	0	0	0	0	507	32	180	514	38	0	
10	0	0	0	0	510	35	180	515	38	0	
11	0	0	0	0	507	39	180	515	38	0	
12	0	0	0	0	505	44	180	512	38	0	
13	0	0	0	0	508	48	180	510	38	0	
14	0	0	0	0	504	53	181	510	38	0	
15	0	0	0	0	504	58	180	508	38	0	
0	0	0	0	0	510	61	181	508	38	0	
1	0	0	0	0	504	65	180	508	38	0	
2	0	0	0	0	504	68	181	508	38	0	
3	0	0	0	0	504	71	180	509	38	0	
4	0	0	0	0	506	73	181	509	38	0	
5	0	0	0	0	507	77	181	511	38	0	
6	0	0	0	0	518	82	180	512	38	0	
7	0	0	0	0	505	86	180	512	38	0	
8	0	0	0	0	510	92	181	512	38	0	
9	0	0	0	0	512	97	181	513	38	0	
10	0	0	0	0	507	101	181	514	38	0	
11	0	0	0	0	514	105	180	514	38	0	
12	0	0	0	0	512	111	181	513	38	0	
13	0	0	0	0	505	113	181	514	38	0	
14	0	0	0	0	510	115	180	513	38	0	
15	0	0	0	0	507	117	181	512	38	0	
0	0	0	0	0	504	120	180	510	38	0	
1	0	0	0	0	504	123	181	508	38	0	
2	0	0	0	0	513	125	181	507	38	0	
3	0	0	0	0	506	127	180	506	38	0	
4	0	0	0	0	504	129	181	508	38	0	
5	0	0	0	0	504	132	181	510	38	0	
6	0	0	0	0	513	135	180	511	38	0	
7	0	0	0	0	515	141	180	514	38	0	
8	0	0	0	0	504	145	180	514	38	0	
9	0	0	0	0	518	150	181	516	38	0	
10	0	0	0	0	513	157	180	517	38	0	
11	0	0	0	0	506	163	180	518	38	0	
12	0	0	0	0	515	167	180	519	38	0	
13	0	0	0	0	506	172	181	516	38	0	
14	0	0	0	0	507	176	181	514	38	0	
15	0	0	0	0	500	180	180	512	38	0	
0	0	0	0	0	502	183	181	509	38	0	
1	0	0	0	0	507	187	180	506	38	0	
2	0	0	0	0	506	190	180	505	38	0	
3	0	0	0	0	504	192	181	504	38	0	
4	0	0	0	0	508	193	180	505	38	0	
5	0	0	0	0	503	195	180	508	38	0	
6	0	0	0	0	505	198	180	505	38	0	
7	0	0	0	0	510	201	180	505	38	0	
8	0	0	0	0	506	206	181	508	38	0	
9	0	0	0	0	509	208	180	510	38	0	
10	0	0	0	0	512	211	180	514	38	0	
11	0	0	0	0	516	215	180	517	38	0	
12	0	0	0	0	511	220	180	518	38	0	
13	0	0	0	0	508	224	180	519	38	0	
14	0	0	0	0	507	227	180	518	38	0	
15	0	0	0	0	499	230	180	515	38	0	
0	0	0	0	0	509	229	180	512	38	0	
1	0	0	0	0	510	227	180	510	38	0	
2	0	0	0	0	508	230	180	508	38	0	
3	0	0	0	0	508	232	180	507	38	0	
4	0	0	0	0	508	236	181	509	38	0	
5	0	0	0	0	511	240	181	509	38	0	
6	0	0	0	0	504	244	180	509	38	0	
7	0	0	0	0	516	248	180	511	38	0	
8	0	0	0	0	507	253	180	513	38	0	
9	0	0	0	0	508	255	180	514	38	0	
10	0	0	0	0	506	255	180	515	38	0	
11	0	0	0	0	515	257	180	517	38	0	
12	0	0	0	0	513	261	180	516	38	0	
13	0	0	0	0	514	264	180	516	38	0	
14	0	0	0	0	508	267	180	515	38	0	
15	0	0	0	0	509	270	180	513	38	0	
0	0	0	0	0	496	272	180	512	38	0	
1	0	0	0	0	503	275	180	510	38	0	
2	0	0	0	0	510	278	181	512	38	0	
3	0	0	0	0	510	280	180	512	38	0	
4	0	0	0	0	506	283	180	510	38	0	
5	0	0	0	0	504	284	181	513	38	0	
6	0	0	0	0	510	287	180	510	38	0	
7	0	0	0	0	504	289	180	511	38	0	
8	0	0	0	0	507	292	181	510	38	0	
9	0	0	0	0	511	295	180	515	38	0	
10	0	0	0	0	507	298	180	513	38	0	
11	0	0	0	0	513	301	180	516	38	0	
12	0	0	0	0	510	304	181	516	38	0	
13	0	0	0	0	506	308	180	518	38	0	
14	0	0	0	0	507	312	181	518	38	0	
15	0	0	0	0	512	316	180	517	38	0	
0	0	0	0	0	511	317	180	516	38	0	
1	0	0	0	0	509	318	181	515	38	0	
2	0	0	0	0	508	323	181	514	38	0	
3	0	0	0	0	508	327	180	511	38	0	
4	0	0	0	0	507	332	181	510	38	0	
5	0	0	0	0	503	334	181	519	38	0	
6	0	0	0	0	499	337	181	508	38	0	
7	0	0	0	0	511	340	180	508	38	0	
8	0	0	0	0	506	344	181	508	38	0	
9	0	0	0	0	503	348	180	509	38	0	
10	0	0	0	0	509	353	181	510	38	0	
11	0	0	0	0	511	355	180	511	38	0	
12	0	0	0	0	515	359	180	513	38	0	
13	0	0	0	0	509	362	180	512	38	0	
14	0	0	0	0	511	364	180	512	38	0	
15	0	0	0	0	506	367	180	511	38	0	
0	0	0	0	0	511	369	180	512	38	0	
1	0	0	0	0	512	371	180	511	38	0	
2	0	0	0	0	505	374	181	510	38	0	
3	0	0	0	0	512	377	180	508	38	0	
4	0	0	0	0	502	381	181	507	38	0	
5	0	0	0	0	496	385	180	506	38	0	
6	0	0	0	0	503	388	180	506	38	0	
7	0	0	0	0	502	391	180	508	38	0	
8	0	0	0	0	511	393	180	508	38	0	
9	0	0	0	0	509	396	180	510	38	0	
10	0	0	0	0	509	398	180	511	38	0	
11	0	0	0	0	509	400	180	512	38	0	
12	0	0	0	0	505	404	180	514	38	0	
13	0	0	0	0	513	407	180	515	38	0	
14	0	0	0	0	515	411	180	513	38	0	
15	0	0	0	0	516	415	180	511	38	0	
0	0	0	0	0	512	418	180	510	38	0	
1	0	0	0	0	507	421	180	510	38	0	
2	0	0	0	0	503	422	180	510	38	0	
3	0	0	0	0	513	422	180	509	38	0	
4	0	0	0	0	511	425	180	508	38	0	
5	0	0	0	0	501	429	180	507	38	0	
6	0	0	0	0	509	432	180	507	38	0	
7	0	0	0	0	505	435	180	506	38	0	
8	0	0	0	0	504	436	180	507	38	0	
9	0	0	0	0	508	439	180	508	38	0	
10	0	0	0	0	510	441	180	508	38	0	
11	0	0	0	0	510	443	180	513	38	0	
12	0	0	0	0	500	444	180	519	38	0	
13	0	0	0	0	510	445	180	527	38	0	
14	0	0	0	0	507	446	180	533	38	0	
15	0	0	0	0	512	448	180	532	38	0	
0	0	0	0	0	518	452	180	530	38	0	
1	0	0	0	0	513	453	180	524	38	0	
2	0	0	0	0	504	455	180	523	38	0	
3	0	0	0	0	509	455	180	518	38	0	
4	0	0	0	0	511	456	180	514	38	0	
5	0	0	0	0	503	460	180	510	38	0	
6	0	0	0	0	508	463	180	508	38	0	
7	0	0	0	0	503	466	180	506	38	0	
8	0	0	0	0	509	467	180	505	38	0	
9	0	0	0	0	508	470	180	517	38	0	
10	0	0	0	0	505	473	180	508	38	0	
11	0	0	0	0	511	476	180	509	38	0	
12	0	0	0	0	511	480	180	511	38	0	
13	0	0	0	0	510	483	180	512	38	0	
14	0	0	0	0	511	485	180	512	38	0	
15	0	0	0	0	512	487	180	515	38	0	
0	0	0	0	0	514	487	180	515	38	0	
1	0	0	0	0	511	487	180	518	38	0	
2	0	0	0	0	512	490	180	527	38	0	
3	0	0	0	0	501	492	179	517	38	0	
4	0	0	0	0	500	493	180	516	38	0	
5	0	0	0	0	518	496	180	514	38	0	
6	0	0	0	0	511	498	180	512	38	0	
7	0	0	0	0	506	499	180	511	38	0	
8	0	0	0	0	506	503	180	512	38	0	
9	0	0	0	0	507	505	180	511	38	0	
10	0	0	0	0	502	505	180	511	38	0	
11	0	0	0	0	503	508	180	511	38	0	
12	0	0	0	0	511	510	179	512	38	0	
13	0	0	0	0	513	511	180	516	38	0	
14	0	0	0	0	507	512	180	517	38	0	
15	0	0	0	0	518	512	180	517	38	0	
0	0	0	0	0	516	514	180	518	38	0	
1	0	0	0	0	503	515	179	518	38	0	
2	0	0	0	0	513	516	180	518	38	0	
3	0	0	0	0	506	517	180	518	38	0	
4	0	0	0	0	505	518	180	516	38	0	
5	0	0	0	0	507	519	179	516	38	0	
6	0	0	0	0	513	521	180	512	38	0	
7	0	0	0	0	503	526	180	512	38	0	
8	0	0	0	0	511	529	180	516	38	0	
9	0	0	0	0	510	533	180	508	38	0	
10	0	0	0	0	497	536	180	507	38	0	
11	0	0	0	0	507	539	179	506	38	0	
12	0	0	0	0	512	544	179	508	38	0	
13	0	0	0	0	508	551	180	511	38	0	
14	0	0	0	0	510	556	180	514	38	0	
15	0	0	0	0	510	560	180	513	38	0	
0	0	0	0	0	505	564	180	515	38	0	
1	0	0	0	0	515	568	180	513	38	0	
2	0	0	0	0	508	573	179	515	38	0	
3	0	0	0	0	511	577	179	516	38	0	
4	0	0	0	0	500	583	180	513	38	0	
5	0	0	0	0	505	587	180	510	38	0	
6	0	0	0	0	515	592	180	509	38	0	
7	0	0	0	0	517	597	180	508	38	0	
8	0	0	0	0	501	600	179	508	38	0	
9	0	0	0	0	507	603	179	508	38	0	
10	0	0	0	0	507	604	180	507	38	0	
11	0	0	0	0	505	606	180	509	38	0	
12	0	0	0	0	511	609	180	511	38	0	
13	0	0	0	0	509	612	180	511	38	0	
14	0	0	0	0	508	615	179	511	38	0	
15	0	0	0	0	504	615	179	512	38	0	
0	0	0	0	0	508	617	179	513	38	0	
1	0	0	0	0	516	619	179	513	38	0	
2	0	0	0	0	506	622	179	514	38	0	
3	0	0	0	0	510	627	180	515	38	0	
4	0	0	0	0	510	631	180	514	38	0	
5	0	0	0	0	502	633	180	511	38	0	
6	0	0	0	0	502	636	179	510	38	0	
7	0	0	0	0	507	639	179	508	38	0	
8	0	0	0	0	505	642	179	506	38	0	
9	0	0	0	0	502	644	179	514	38	0	
10	0	0	0	0	502	646	180	506	38	0	
11	0	0	0	0	504	647	179	506	38	0	
12	0	0	0	0	511	649	179	508	38	0	
13	0	0	0	0	513	652	179	510	38	0	
14	0	0	0	0	519	656	179	511	38	0	
15	0	0	0	0	504	659	179	514	38	0	
0	0	0	0	0	510	660	179	515	38	0	
1	0	0	0	0	517	661	180	518	38	0	
2	0	0	0	0	505	664	179	519	38	0	
3	0	0	0	0	508	666	179	519	38	0	
4	0	0	0	0	511	669	179	519	38	0	
5	0	0	0	0	505	670	179	516	38	0	
6	0	0	0	0	507	669	179	513	38	0	
7	0	0	0	0	511	671	179	512	38	0	
8	0	0	0	0	507	674	179	509	38	0	
9	0	0	0	0	504	676	179	507	38	0	
10	0	0	0	0	508	678	180	505	38	0	
11	0	0	0	0	502	678	179	504	38	0	
12	0	0	0	0	508	679	179	504	38	0	
13	0	0	0	0	510	679	179	506	38	0	
14	0	0	0	0	508	680	179	506	38	0	
15	0	0	0	0	504	680	179	508	38	0	
0	0	0	0	0	503	681	179	509	38	0	
1	0	0	0	0	511	683	179	512	38	0	
2	0	0	0	0	511	684	179	511	38	0	
3	0	0	0	0	516	685	179	512	38	0	
4	0	0	0	0	515	687	179	511	38	0	
5	0	0	0	0	510	688	179	510	38	0	
6	0	0	0	0	508	692	179	519	38	0	
7	0	0	0	0	508	694	178	509	38	0	
8	0	0	0	0	508	696	179	508	38	0	
9	0	0	0	0	508	698	179	506	38	0	
10	0	0	0	0	505	700	179	505	38	0	
11	0	0	0	0	510	702	179	504	38	0	
12	0	0	0	0	507	702	179	507	38	0	
13	0	0	0	0	498	703	179	510	38	0	
14	0	0	0	0	508	704	180	508	38	0	
15	0	0	0	0	505	704	179	509	38	0	
0	0	0	0	0	504	707	179	512	38	0	
1	0	0	0	0	510	707	179	513	38	0	
2	0	0	0	0	515	709	179	514	38	0	
3	0	0	0	0	511	711	179	513	38	0	
4	0	0	0	0	511	715	179	514	38	0	
5	0	0	0	0	509	717	178	513	38	0	
6	0	0	0	0	509	717	179	512	38	0	
7	0	0	0	0	507	720	179	511	38	0	
8	0	0	0	0	512	722	179	511	38	0	
9	0	0	0	0	506	722	179	508	38	0	
10	0	0	0	0	509	722	179	507	38	0	
11	0	0	0	0	506	723	180	506	38	0	
12	0	0	0	0	501	724	179	506	38	0	
13	0	0	0	0	510	725	178	507	38	0	
14	0	0	0	0	506	728	178	508	38	0	
15	0	0	0	0	513	730	179	512	38	0	
0	0	0	0	0	505	733	179	513	38	0	
1	0	0	0	0	510	735	179	516	38	0	
2	0	0	0	0	512	735	179	517	38	0	
3	0	0	0	0	507	736	179	519	38	0	
4	0	0	0	0	514	738	178	518	38	0	
5	0	0	0	0	506	740	178	518	38	0	
6	0	0	0	0	517	741	179	516	38	0	
7	0	0	0	0	503	742	179	517	38	0	
8	0	0	0	0	506	741	179	519	38	0	
9	0	0	0	0	505	743	179	514	38	0	
10	0	0	0	0	505	745	179	513	38	0	
11	0	0	0	0	506	748	179	510	38	0	
12	0	0	0	0	513	750	179	509	38	0	
13	0	0	0	0	500	750	179	509	38	0	
14	0	0	0	0	501	751	179	510	38	0	
15	0	0	0	0	505	751	180	510	38	0	
0	0	0	0	0	512	751	179	511	38	0	
1	0	0	0	0	508	751	179	513	38	0	
2	0	0	0	0	506	752	178	515	38	0	
3	0	0	0	0	499	753	178	515	38	0	
4	0	0	0	0	508	754	179	518	38	0	
5	0	0	0	0	514	755	179	516	38	0	
6	0	0	0	0	514	755	179	515	38	0	
7	0	0	0	0	517	755	179	514	38	0	
8	0	0	0	0	511	755	179	514	38	0	
9	0	0	0	0	508	755	179	512	38	0	
10	0	0	0	0	507	755	180	510	38	0	
11	0	0	0	0	502	756	179	507	38	0	
12	0	0	0	0	502	758	178	505	38	0	
13	0	0	0	0	503	758	179	504	38	0	
14	0	0	0	0	510	758	179	504	38	0	
15	0	0	0	0	503	757	179	504	38	0	
0	0	0	0	0	505	757	179	504	38	0	
1	0	0	0	0	513	758	179	507	38	0	
2	0	0	0	0	510	760	178	518	38	0	
3	0	0	0	0	508	760	178	513	38	0	
4	0	0	0	0	508	760	178	516	38	0	
5	0	0	0	0	510	760	179	516	38	0	
6	0	0	0	0	514	761	179	517	38	0	
7	0	0	0	0	510	762	179	515	38	0	
8	0	0	0	0	508	762	180	513	38	0	
9	0	0	0	0	511	763	179	510	38	0	
10	0	0	0	0	509	765	179	510	38	0	
11	0	0	0	0	513	768	178	511	38	0	
12	0	0	0	0	510	771	179	507	38	0	
13	0	0	0	0	499	774	179	507	38	0	
14	0	0	0	0	504	777	179	507	38	0	
15	0	0	0	0	504	778	179	508	38	0	
0	0	0	0	0	508	778	179	510	38	0	
1	0	0	0	0	508	777	179	512	38	0	
2	0	0	0	0	504	778	178	514	38	0	
3	0	0	0	0	510	778	178	515	38	0	
4	0	0	0	0	513	779	179	516	38	0	
5	0	0	0	0	511	780	179	518	38	0	
6	0	0	0	0	511	781	179	519	38	0	
7	0	0	0	0	511	783	179	522	38	0	
8	0	0	0	0	512	784	178	521	38	0	
9	0	0	0	0	505	786	178	519	38	0	
10	0	0	0	0	508	788	179	517	38	0	
11	0	0	0	0	519	791	179	514	38	0	
12	0	0	0	0	510	792	179	510	38	0	
13	0	0	0	0	505	795	179	509	38	0	
14	0	0	0	0	502	795	178	509	38	0	
15	0	0	0	0	502	797	178	508	38	0	
0	0	0	0	0	507	798	179	509	38	0	
1	0	0	0	0	511	798	179	507	38	0	
2	0	0	0	0	508	798	179	507	38	0	
3	0	0	0	0	510	799	179	506	38	0	
4	0	0	0	0	504	799	178	508	38	0	
5	0	0	0	0	513	800	178	508	38	0	
6	0	0	0	0	518	800	179	509	38	0	
7	0	0	0	0	518	800	179	514	38	0	
8	0	0	0	0	510	802	179	512	38	0	
9	0	0	0	0	513	802	179	513	38	0	
10	0	0	0	0	499	804	179	512	38	0	
11	0	0	0	0	496	805	178	512	38	0	
12	0	0	0	0	510	805	178	509	38	0	
13	0	0	0	0	507	806	179	510	38	0	
14	0	0	0	0	506	805	179	508	38	0	
15	0	0	0	0	504	805	179	507	38	0	
0	0	0	0	0	516	804	178	507	38	0	
1	0	0	0	0	510	804	179	507	38	0	
2	0	0	0	0	505	805	179	508	38	0	
3	0	0	0	0	510	806	179	509	38	0	
4	0	0	0	0	510	807	178	512	38	0	
5	0	0	0	0	508	807	179	513	38	0	
6	0	0	0	0	510	806	179	514	38	0	
7	0	0	0	0	508	807	179	513	38	0	
8	0	0	0	0	512	807	178	512	38	0	
9	0	0	0	0	513	807	179	514	38	0	
10	0	0	0	0	512	806	179	508	38	0	
11	0	0	0	0	508	806	179	508	38	0	
12	0	0	0	0	502	807	178	509	38	0	
13	0	0	0	0	508	808	179	509	38	0	
14	0	0	0	0	510	811	179	508	38	0	
15	0	0	0	0	506	812	179	508	38	0	
0	0	0	0	0	508	814	178	509	38	0	
1	0	0	0	0	507	814	179	510	38	0	
2	0	0	0	0	500	814	179	511	38	0	
3	0	0	0	0	510	814	179	515	38	0	
4	0	0	0	0	513	814	178	521	38	0	
5	0	0	0	0	510	815	179	520	38	0	
6	0	0	0	0	511	812	179	521	38	0	
7	0	0	0	0	508	808	179	524	38	0	
8	0	0	0	0	505	805	178	521	38	0	
9	0	0	0	0	512	802	179	520	38	0	
10	0	0	0	0	512	801	179	519	38	0	
11	0	0	0	0	511	801	179	519	38	0	
12	0	0	0	0	505	800	178	516	38	0	
13	0	0	0	0	512	798	179	512	38	0	
14	0	0	0	0	510	798	179	509	38	0	
15	0	0	0	0	503	798	179	507	38	0	
0	0	0	0	0	506	798	178	507	38	0	
1	0	0	0	0	509	797	179	507	38	0	
2	0	0	0	0	504	794	179	507	38	0	
3	0	0	0	0	509	792	179	507	38	0	
4	0	0	0	0	510	791	179	507	38	0	
5	0	0	0	0	507	790	178	508	38	0	
6	0	0	0	0	497	787	179	510	38	0	
7	0	0	0	0	510	785	179	512	38	0	
8	0	0	0	0	515	782	179	515	38	0	
9	0	0	0	0	510	780	178	516	38	0	
10	0	0	0	0	513	778	179	517	38	0	
11	0	0	0	0	512	777	179	517	38	0	
12	0	0	0	0	508	776	179	518	38	0	
13	0	0	0	0	515	774	179	518	38	0	
14	0	0	0	0	513	772	179	516	38	0	
15	0	0	0	0	509	771	179	516	38	0	
0	0	0	0	0	505	769	180	513	38	0	
1	0	0	0	0	508	768	179	511	38	0	
2	0	0	0	0	499	765	179	511	38	0	
3	0	0	0	0	504	763	179	509	38	0	
4	0	0	0	0	513	761	179	510	38	0	
5	0	0	0	0	512	759	180	510	38	0	
6	0	0	0	0	510	759	179	512	38	0	
7	0	0	0	0	505	757	179	515	38	0	
8	0	0	0	0	513	756	179	517	38	0	
9	0	0	0	0	514	755	180	518	38	0	
10	0	0	0	0	521	753	179	517	38	0	
11	0	0	0	0	511	751	179	518	38	0	
12	0	0	0	0	505	750	179	519	38	0	
13	0	0	0	0	510	750	179	516	38	0	
14	0	0	0	0	503	751	180	514	38	0	
15	0	0	0	0	515	751	179	511	38	0	
0	0	0	0	0	500	752	179	511	38	0	
1	0	0	0	0	497	753	179	508	38	0	
2	0	0	0	0	494	755	179	508	38	0	
3	0	0	0	0	502	757	180	509	38	0	
4	0	0	0	0	519	758	179	507	38	0	
5	0	0	0	0	508	760	179	511	38	0	
6	0	0	0	0	517	761	179	508	38	0	
7	0	0	0	0	505	760	179	510	38	0	
8	0	0	0	0	511	760	180	512	38	0	
9	0	0	0	0	504	760	179	515	38	0	
10	0	0	0	0	509	759	179	515	38	0	
11	0	0	0	0	512	760	179	517	38	0	
12	0	0	0	0	512	760	179	515	38	0	
13	0	0	0	0	506	761	179	515	38	0	
14	0	0	0	0	518	761	178	512	38	0	
15	0	0	0	0	515	761	179	511	38	0	
0	0	0	0	0	514	762	179	510	38	0	
1	0	0	0	0	506	763	179	509	38	0	
2	0	0	0	0	508	764	180	509	38	0	
3	0	0	0	0	501	763	179	508	38	0	
4	0	0	0	0	507	763	179	508	38	0	
5	0	0	0	0	507	762	179	509	38	0	
6	0	0	0	0	503	763	180	511	38	0	
7	0	0	0	0	509	764	179	511	38	0	
8	0	0	0	0	509	763	179	513	38	0	
9	0	0	0	0	507	762	179	514	38	0	
10	0	0	0	0	510	761	179	515	38	0	
11	0	0	0	0	506	762	180	517	38	0	
12	0	0	0	0	505	763	179	516	38	0	
13	0	0	0	0	520	763	179	515	38	0	
14	0	0	0	0	510	764	179	514	38	0	
15	0	0	0	0	505	764	180	512	38	0	
0	0	0	0	0	508	765	180	509	38	0	
1	0	0	0	0	514	766	179	508	38	0	
2	0	0	0	0	496	766	179	507	38	0	
3	0	0	0	0	507	767	179	508	38	0	
4	0	0	0	0	510	766	180	508	38	0	
5	0	0	0	0	500	766	179	510	38	0	
6	0	0	0	0	511	767	179	512	38	0	
7	0	0	0	0	505	769	180	513	38	0	
8	0	0	0	0	503	771	180	515	38	0	
9	0	0	0	0	506	773	179	515	38	0	
10	0	0	0	0	512	773	179	518	38	0	
11	0	0	0	0	515	772	180	518	38	0	
12	0	0	0	0	517	772	179	518	38	0	
13	0	0	0	0	508	774	179	526	38	0	
14	0	0	0	0	513	775	179	515	38	0	
15	0	0	0	0	505	776	180	512	38	0	
0	0	0	0	0	506	776	179	510	38	0	
1	0	0	0	0	507	777	179	509	38	0	
2	0	0	0	0	510	779	179	506	38	0	
3	0	0	0	0	505	778	180	505	38	0	
4	0	0	0	0	500	777	179	512	38	0	
5	0	0	0	0	504	777	179	503	38	0	
6	0	0	0	0	513	777	179	504	38	0	
7	0	0	0	0	518	778	180	505	38	0	
8	0	0	0	0	511	779	180	508	38	0	
9	0	0	0	0	504	778	178	510	38	0	
10	0	0	0	0	501	776	179	512	38	0	
11	0	0	0	0	508	774	179	512	38	0	
12	0	0	0	0	510	774	180	513	38	0	
13	0	0	0	0	514	774	179	525	38	0	
14	0	0	0	0	513	774	179	513	38	0	
15	0	0	0	0	508	775	179	518	38	0	
0	0	0	0	0	505	775	179	510	38	0	
1	0	0	0	0	507	777	180	507	38	0	
2	0	0	0	0	506	778	180	506	38	0	
3	0	0	0	0	505	778	179	506	38	0	
4	0	0	0	0	502	778	179	507	38	0	
5	0	0	0	0	501	776	179	507	38	0	
6	0	0	0	0	502	775	180	507	38	0	
7	0	0	0	0	508	774	179	506	38	0	
8	0	0	0	0	508	774	179	507	38	0	
9	0	0	0	0	511	774	179	508	38	0	
10	0	0	0	0	513	772	180	509	38	0	
11	0	0	0	0	507	772	180	512	38	0	
12	0	0	0	0	510	771	180	510	38	0	
13	0	0	0	0	516	771	179	513	38	0	
14	0	0	0	0	515	771	179	513	38	0	
15	0	0	0	0	508	771	179	515	38	0	
0	0	0	0	0	509	770	179	515	38	0	
1	0	0	0	0	512	768	180	514	38	0	
2	0	0	0	0	506	765	180	511	38	0	
3	0	0	0	0	497	763	179	511	38	0	
4	0	0	0	0	513	760	179	508	38	0	
5	0	0	0	0	500	760	180	507	38	0	
6	0	0	0	0	500	759	180	513	38	0	
7	0	0	0	0	503	757	179	506	38	0	
8	0	0	0	0	510	755	179	509	38	0	
9	0	0	0	0	516	753	180	511	38	0	
10	0	0	0	0	507	752	180	511	38	0	
11	0	0	0	0	506	751	179	511	38	0	
12	0	0	0	0	506	749	179	513	38	0	
13	0	0	0	0	510	747	180	517	38	0	
14	0	0	0	0	506	745	179	515	38	0	
15	0	0	0	0	511	744	179	518	38	0	
0	0	0	0	0	511	743	179	519	38	0	
1	0	0	0	0	504	742	180	518	38	0	
2	0	0	0	0	505	741	180	516	38	0	
3	0	0	0	0	515	741	179	513	38	0	
4	0	0	0	0	505	742	179	511	38	0	
5	0	0	0	0	506	741	180	510	38	0	
6	0	0	0	0	511	739	180	508	38	0	
7	0	0	0	0	509	737	179	510	38	0	
8	0	0	0	0	509	735	179	512	38	0	
9	0	0	0	0	506	735	180	511	38	0	
10	0	0	0	0	506	735	180	512	38	0	
11	0	0	0	0	503	735	179	514	38	0	
12	0	0	0	0	507	736	180	516	38	0	
13	0	0	0	0	505	736	180	516	38	0	
14	0	0	0	0	511	738	180	518	38	0	
15	0	0	0	0	508	737	179	518	38	0	
0	0	0	0	0	516	737	180	518	38	0	
1	0	0	0	0	515	737	180	516	38	0	
2	0	0	0	0	508	736	180	515	38	0	
3	0	0	0	0	502	737	179	514	38	0	
4	0	0	0	0	510	737	179	511	38	0	
5	0	0	0	0	506	737	180	510	38	0	
6	0	0	0	0	501	738	180	510	38	0	
7	0	0	0	0	507	738	180	511	38	0	
8	0	0	0	0	505	738	179	510	38	0	
9	0	0	0	0	512	737	180	510	38	0	
10	0	0	0	0	506	736	180	512	38	0	
11	0	0	0	0	501	734	180	516	38	0	
12	0	0	0	0	507	732	179	519	38	0	
13	0	0	0	0	519	729	180	521	38	0	
14	0	0	0	0	508	727	180	519	38	0	
15	0	0	0	0	514	725	180	520	38	0	
0	0	0	0	0	515	725	179	520	38	0	
1	0	0	0	0	513	724	180	517	38	0	
2	0	0	0	0	505	724	180	515	38	0	
3	0	0	0	0	505	722	180	515	38	0	
4	0	0	0	0	503	723	179	512	38	0	
5	0	0	0	0	509	724	179	509	38	0	
6	0	0	0	0	511	725	180	510	38	0	
7	0	0	0	0	507	725	180	508	38	0	
8	0	0	0	0	501	723	180	508	38	0	
9	0	0	0	0	503	722	179	507	38	0	
10	0	0	0	0	501	721	180	505	38	0	
11	0	0	0	0	508	721	180	507	38	0	
12	0	0	0	0	510	721	179	509	38	0	
13	0	0	0	0	514	720	179	511	38	0	
14	0	0	0	0	513	719	179	514	38	0	
15	0	0	0	0	506	718	180	515	38	0	
0	0	0	0	0	513	717	180	514	38	0	
1	0	0	0	0	507	717	180	513	38	0	
2	0	0	0	0	510	716	180	514	38	0	
3	0	0	0	0	504	715	179	512	38	0	
4	0	0	0	0	510	713	180	512	38	0	
5	0	0	0	0	516	712	180	509	38	0	
6	0	0	0	0	507	713	180	509	38	0	
7	0	0	0	0	512	713	180	508	38	0	
8	0	0	0	0	504	712	179	508	38	0	
9	0	0	0	0	504	709	180	518	38	0	
10	0	0	0	0	499	707	180	507	38	0	
11	0	0	0	0	505	708	180	508	38	0	
12	0	0	0	0	507	708	180	508	38	0	
13	0	0	0	0	507	709	179	510	38	0	
14	0	0	0	0	511	707	180	509	38	0	
15	0	0	0	0	515	706	180	510	38	0	
0	0	0	0	0	512	705	180	508	38	0	
1	0	0	0	0	510	704	179	508	38	0	
2	0	0	0	0	518	703	179	511	38	0	
3	0	0	0	0	512	703	180	510	38	0	
4	0	0	0	0	507	703	180	509	38	0	
5	0	0	0	0	507	703	179	508	38	0	
6	0	0	0	0	512	704	179	507	38	0	
7	0	0	0	0	501	705	180	506	38	0	
8	0	0	0	0	503	706	180	505	38	0	
9	0	0	0	0	510	707	179	504	38	0	
10	0	0	0	0	511	708	180	504	38	0	
11	0	0	0	0	510	708	180	505	38	0	
12	0	0	0	0	510	708	180	507	38	0	
13	0	0	0	0	499	709	179	512	38	0	
14	0	0	0	0	508	708	179	517	38	0	
15	0	0	0	0	516	709	180	524	38	0	
0	0	0	0	0	514	708	180	524	38	0	
1	0	0	0	0	514	707	180	524	38	0	
2	0	0	0	0	512	709	179	521	38	0	
3	0	0	0	0	508	710	180	519	38	0	
4	0	0	0	0	507	711	180	517	38	0	
5	0	0	0	0	510	711	179	514	38	0	
6	0	0	0	0	505	711	179	513	38	0	
7	0	0	0	0	511	712	180	511	38	0	
8	0	0	0	0	500	713	180	510	38	0	
9	0	0	0	0	506	713	180	508	38	0	
10	0	0	0	0	504	713	179	508	38	0	
11	0	0	0	0	504	712	179	508	38	0	
12	0	0	0	0	504	711	179	508	38	0	
13	0	0	0	0	510	710	180	510	38	0	
14	0	0	0	0	509	709	180	514	38	0	
15	0	0	0	0	508	708	179	514	38	0	
0	0	0	0	0	511	707	179	517	38	0	
1	0	0	0	0	517	706	180	519	38	0	
2	0	0	0	0	515	706	180	519	38	0	
3	0	0	0	0	505	707	180	519	38	0	
4	0	0	0	0	510	709	179	515	38	0	
5	0	0	0	0	512	710	180	518	38	0	
6	0	0	0	0	504	710	180	511	38	0	
7	0	0	0	0	511	710	180	508	38	0	
8	0	0	0	0	505	711	179	508	38	0	
9	0	0	0	0	507	711	179	507	38	0	
10	0	0	0	0	509	712	180	507	38	0	
11	0	0	0	0	505	712	180	507	38	0	
12	0	0	0	0	501	712	180	505	38	0	
13	0	0	0	0	512	713	179	504	38	0	
14	0	0	0	0	511	713	180	503	38	0	
15	0	0	0	0	510	712	180	505	38	0	
0	0	0	0	0	508	712	180	507	38	0	
1	0	0	0	0	510	712	180	508	38	0	
2	0	0	0	0	508	713	179	509	38	0	
3	0	0	0	0	513	714	179	509	38	0	
4	0	0	0	0	516	714	180	508	38	0	
5	0	0	0	0	505	715	180	509	38	0	
6	0	0	0	0	509	714	179	508	38	0	
7	0	0	0	0	508	716	180	508	38	0	
8	0	0	0	0	502	718	180	508	38	0	
9	0	0	0	0	495	719	180	505	38	0	
10	0	0	0	0	508	721	179	504	38	0	
11	0	0	0	0	501	724	179	501	38	0	
12	0	0	0	0	499	726	179	501	38	0	
13	0	0	0	0	506	726	180	503	38	0	
14	0	0	0	0	510	728	180	504	38	0	
15	0	0	0	0	509	729	179	507	38	0	
0	0	0	0	0	512	730	179	508	38	0	
1	0	0	0	0	506	731	180	510	38	0	
2	0	0	0	0	511	732	180	512	38	0	
3	0	0	0	0	508	733	180	515	38	0	
4	0	0	0	0	510	734	179	517	38	0	
5	0	0	0	0	511	735	179	519	38	0	
6	0	0	0	0	511	737	180	521	38	0	
7	0	0	0	0	505	739	180	517	38	0	
8	0	0	0	0	519	739	180	514	38	0	
9	0	0	0	0	512	740	179	510	38	0	
10	0	0	0	0	499	740	180	509	38	0	
11	0	0	0	0	504	741	180	508	38	0	
12	0	0	0	0	496	742	180	508	38	0	
13	0	0	0	0	509	743	179	508	38	0	
14	0	0	0	0	513	745	179	510	38	0	
15	0	0	0	0	508	745	180	511	38	0	
0	0	0	0	0	506	748	180	514	38	0	
1	0	0	0	0	505	748	180	519	38	0	
2	0	0	0	0	513	750	179	516	38	0	
3	0	0	0	0	506	752	180	517	38	0	
4	0	0	0	0	508	752	180	516	38	0	
5	0	0	0	0	512	755	180	516	38	0	
6	0	0	0	0	513	757	179	515	38	0	
7	0	0	0	0	507	758	179	515	38	0	
8	0	0	0	0	508	760	180	515	38	0	
9	0	0	0	0	510	761	180	513	38	0	
10	0	0	0	0	508	762	180	513	38	0	
11	0	0	0	0	507	764	179	511	38	0	
12	0	0	0	0	504	765	179	511	38	0	
13	0	0	0	0	511	766	180	510	38	0	
14	0	0	0	0	503	767	180	511	38	0	
15	0	0	0	0	508	768	180	515	38	0	
0	0	0	0	0	507	769	179	512	38	0	
1	0	0	0	0	508	769	180	513	38	0	
2	0	0	0	0	513	769	180	513	38	0	
3	0	0	0	0	504	770	180	513	38	0	
4	0	0	0	0	515	771	179	514	38	0	
5	0	0	0	0	515	771	180	515	38	0	
6	0	0	0	0	514	771	180	515	38	0	
7	0	0	0	0	508	771	180	514	38	0	
8	0	0	0	0	507	770	179	513	38	0	
9	0	0	0	0	511	770	180	511	38	0	
10	0	0	0	0	508	770	180	510	38	0	
11	0	0	0	0	502	771	180	510	38	0	
12	0	0	0	0	504	772	179	510	38	0	
13	0	0	0	0	506	773	180	513	38	0	
14	0	0	0	0	501	774	180	514	38	0	
15	0	0	0	0	504	774	180	515	38	0	
0	0	0	0	0	507	774	179	515	38	0	
1	0	0	0	0	510	772	180	516	38	0	
2	0	0	0	0	503	771	180	517	38	0	
3	0	0	0	0	514	771	180	515	38	0	
4	0	0	0	0	516	768	179	515	38	0	
5	0	0	0	0	514	767	179	514	38	0	
6	0	0	0	0	513	767	180	514	38	0	
7	0	0	0	0	513	766	180	515	38	0	
8	0	0	0	0	504	764	180	516	38	0	
9	0	0	0	0	505	762	180	514	38	0	
10	0	0	0	0	509	760	179	514	38	0	
11	0	0	0	0	513	757	179	515	38	0	
12	0	0	0	0	513	754	180	512	38	0	
13	0	0	0	0	500	752	180	512	38	0	
14	0	0	0	0	505	748	179	510	38	0	
15	0	0	0	0	499	745	179	509	38	0	
0	0	0	0	0	504	743	180	507	38	0	
1	0	0	0	0	503	741	180	509	38	0	
2	0	0	0	0	508	739	179	509	38	0	
3	0	0	0	0	506	735	179	510	38	0	
4	0	0	0	0	508	732	180	511	38	0	
5	0	0	0	0	516	728	180	512	38	0	
6	0	0	0	0	510	726	180	513	38	0	
7	0	0	0	0	516	725	179	513	38	0	
8	0	0	0	0	509	722	180	512	38	0	
9	0	0	0	0	510	720	180	512	38	0	
10	0	0	0	0	508	717	180	512	38	0	
11	0	0	0	0	508	713	179	510	38	0	
12	0	0	0	0	510	713	180	511	38	0	
13	0	0	0	0	506	711	180	510	38	0	
14	0	0	0	0	499	708	180	508	38	0	
15	0	0	0	0	499	705	179	506	38	0	
0	0	0	0	0	506	703	179	506	38	0	
1	0	0	0	0	507	702	180	507	38	0	
2	0	0	0	0	511	700	180	508	38	0	
3	0	0	0	0	508	698	181	510	38	0	
4	0	0	0	0	510	696	180	510	38	0	
5	0	0	0	0	511	695	179	511	38	0	
6	0	0	0	0	510	695	180	513	38	0	
7	0	0	0	0	516	695	180	516	38	0	
8	0	0	0	0	515	695	180	518	38	0	
9	0	0	0	0	512	695	180	516	38	0	
10	0	0	0	0	504	695	179	516	38	0	
11	0	0	0	0	507	695	180	513	38	0	
12	0	0	0	0	516	694	180	512	38	0	
13	0	0	0	0	509	693	180	510	38	0	
14	0	0	0	0	504	692	179	509	38	0	
15	0	0	0	0	502	691	180	507	38	0	
0	0	0	0	0	504	692	180	508	38	0	
1	0	0	0	0	508	691	180	507	38	0	
2	0	0	0	0	511	690	181	510	38	0	
3	0	0	0	0	502	690	180	513	38	0	
4	0	0	0	0	500	688	180	514	38	0	
5	0	0	0	0	513	688	180	519	38	0	
6	0	0	0	0	514	687	180	516	38	0	
7	0	0	0	0	512	687	180	516	38	0	
8	0	0	0	0	511	687	179	514	38	0	
9	0	0	0	0	512	686	180	514	38	0	
10	0	0	0	0	509	686	181	512	38	0	
11	0	0	0	0	512	685	180	510	38	0	
12	0	0	0	0	515	684	180	507	38	0	
13	0	0	0	0	505	684	180	506	38	0	
14	0	0	0	0	503	685	180	508	38	0	
15	0	0	0	0	508	687	179	507	38	0	
0	0	0	0	0	504	686	180	506	38	0	
1	0	0	0	0	504	684	181	505	38	0	
2	0	0	0	0	504	683	181	506	38	0	
3	0	0	0	0	507	681	181	505	38	0	
4	0	0	0	0	501	681	179	508	38	0	
5	0	0	0	0	515	681	180	510	38	0	
6	0	0	0	0	505	680	180	512	38	0	
7	0	0	0	0	505	680	181	513	38	0	
8	0	0	0	0	523	680	181	514	38	0	
9	0	0	0	0	510	679	180	514	38	0	
10	0	0	0	0	513	678	179	515	38	0	
11	0	0	0	0	508	679	180	513	38	0	
12	0	0	0	0	507	678	180	512	38	0	
13	0	0	0	0	510	679	180	510	38	0	
14	0	0	0	0	506	680	181	509	38	0	
15	0	0	0	0	506	681	179	508	38	0	
0	0	0	0	0	507	681	180	507	38	0	
1	0	0	0	0	498	681	180	506	38	0	
2	0	0	0	0	503	680	181	502	38	0	
3	0	0	0	0	502	680	180	503	38	0	
4	0	0	0	0	512	682	180	503	38	0	
5	0	0	0	0	507	682	180	504	38	0	
6	0	0	0	0	504	683	181	504	38	0	
7	0	0	0	0	513	683	179	508	38	0	
8	0	0	0	0	511	684	180	510	38	0	
9	0	0	0	0	518	683	180	511	38	0	
10	0	0	0	0	513	683	181	513	38	0	
11	0	0	0	0	507	682	181	513	38	0	
12	0	0	0	0	506	680	180	513	38	0	
13	0	0	0	0	507	681	179	511	38	0	
14	0	0	0	0	511	681	180	510	38	0	
15	0	0	0	0	502	681	181	507	38	0	
0	0	0	0	0	508	682	181	508	38	0	
1	0	0	0	0	508	681	179	508	38	0	
2	0	0	0	0	508	680	180	510	38	0	
3	0	0	0	0	511	679	180	512	38	0	
4	0	0	0	0	513	679	181	513	38	0	
5	0	0	0	0	511	679	181	514	38	0	
6	0	0	0	0	507	678	179	516	38	0	
7	0	0	0	0	508	676	180	519	38	0	
8	0	0	0	0	500	676	180	521	38	0	
9	0	0	0	0	515	676	181	521	38	0	
10	0	0	0	0	511	677	180	532	38	0	
11	0	0	0	0	514	677	180	519	38	0	
12	0	0	0	0	513	677	180	517	38	0	
13	0	0	0	0	507	677	180	514	38	0	
14	0	0	0	0	505	677	180	509	38	0	
15	0	0	0	0	508	678	180	507	38	0	
0	0	0	0	0	499	679	181	505	38	0	
1	0	0	0	0	509	680	181	505	38	0	
2	0	0	0	0	503	680	181	504	38	0	
3	0	0	0	0	507	679	180	503	38	0	
4	0	0	0	0	509	678	180	504	38	0	
5	0	0	0	0	508	677	180	505	38	0	
6	0	0	0	0	506	676	181	508	38	0	
7	0	0	0	0	514	675	181	516	38	0	
8	0	0	0	0	514	674	180	510	38	0	
9	0	0	0	0	511	672	180	512	38	0	
10	0	0	0	0	514	671	181	512	38	0	
11	0	0	0	0	515	672	181	514	38	0	
12	0	0	0	0	501	673	180	512	38	0	
13	0	0	0	0	503	674	180	511	38	0	
14	0	0	0	0	503	673	180	519	38	0	
15	0	0	0	0	513	673	181	507	38	0	
0	0	0	0	0	507	674	180	507	38	0	
1	0	0	0	0	505	676	180	507	38	0	
2	0	0	0	0	503	677	181	508	38	0	
3	0	0	0	0	504	678	181	507	38	0	
4	0	0	0	0	505	678	180	508	38	0	
5	0	0	0	0	503	679	180	511	38	0	
6	0	0	0	0	509	679	180	509	38	0	
7	0	0	0	0	513	680	181	515	38	0	
8	0	0	0	0	513	681	181	512	38	0	
9	0	0	0	0	518	681	180	513	38	0	
10	0	0	0	0	515	681	180	513	38	0	
11	0	0	0	0	518	681	181	514	38	0	
12	0	0	0	0	518	680	181	514	38	0	
13	0	0	0	0	508	679	180	515	38	0	
14	0	0	0	0	503	679	180	517	38	0	
15	0	0	0	0	508	679	181	513	38	0	
0	0	0	0	0	503	679	181	511	38	0	
1	0	0	0	0	503	679	181	510	38	0	
2	0	0	0	0	500	678	180	509	38	0	
3	0	0	0	0	504	676	180	508	38	0	
4	0	0	0	0	509	675	181	508	38	0	
5	0	0	0	0	512	674	181	519	38	0	
6	0	0	0	0	509	673	181	511	38	0	
7	0	0	0	0	512	673	180	512	38	0	
8	0	0	0	0	503	672	181	512	38	0	
9	0	0	0	0	513	672	181	514	38	0	
10	0	0	0	0	513	671	181	511	38	0	
11	0	0	0	0	508	671	181	512	38	0	
12	0	0	0	0	515	671	180	511	38	0	
13	0	0	0	0	510	671	180	511	38	0	
14	0	0	0	0	504	672	181	511	38	0	
15	0	0	0	0	500	673	181	510	38	0	
0	0	0	0	0	510	675	181	510	38	0	
1	0	0	0	0	511	676	180	505	38	0	
2	0	0	0	0	503	676	180	504	38	0	
3	0	0	0	0	510	677	181	505	38	0	
4	0	0	0	0	502	675	181	511	38	0	
5	0	0	0	0	501	675	180	506	38	0	
6	0	0	0	0	502	675	181	519	38	0	
7	0	0	0	0	513	676	181	512	38	0	
8	0	0	0	0	509	676	181	515	38	0	
9	0	0	0	0	504	676	180	516	38	0	
10	0	0	0	0	513	676	180	518	38	0	
11	0	0	0	0	510	677	181	518	38	0	
12	0	0	0	0	509	678	181	519	38	0	
13	0	0	0	0	510	680	180	521	38	0	
14	0	0	0	0	509	681	180	515	38	0	
15	0	0	0	0	511	682	181	513	38	0	
0	0	0	0	0	512	684	181	511	38	0	
1	0	0	0	0	514	686	181	508	38	0	
2	0	0	0	0	508	689	180	507	38	0	
3	0	0	0	0	503	691	180	507	38	0	
4	0	0	0	0	505	692	181	506	38	0	
5	0	0	0	0	504	692	180	508	38	0	
6	0	0	0	0	505	692	180	506	38	0	
7	0	0	0	0	504	692	180	511	38	0	
8	0	0	0	0	513	691	181	515	38	0	
9	0	0	0	0	504	689	181	515	38	0	
10	0	0	0	0	509	685	180	517	38	0	
11	0	0	0	0	511	682	180	518	38	0	
12	0	0	0	0	511	678	181	522	38	0	
13	0	0	0	0	510	674	181	523	38	0	
14	0	0	0	0	515	671	180	523	38	0	
15	0	0	0	0	508	669	181	520	38	0	
0	0	0	0	0	510	665	181	518	38	0	
1	0	0	0	0	504	663	181	515	38	0	
2	0	0	0	0	512	660	180	511	38	0	
3	0	0	0	0	505	660	180	511	38	0	
4	0	0	0	0	504	660	180	507	38	0	
5	0	0	0	0	504	659	181	510	38	0	
6	0	0	0	0	508	657	181	505	38	0	
7	0	0	0	0	507	653	180	505	38	0	
8	0	0	0	0	507	650	180	505	38	0	
9	0	0	0	0	510	647	181	507	38	0	
10	0	0	0	0	505	643	181	508	38	0	
11	0	0	0	0	515	641	180	510	38	0	
12	0	0	0	0	519	638	180	510	38	0	
13	0	0	0	0	507	636	181	512	38	0	
14	0	0	0	0	514	634	181	511	38	0	
15	0	0	0	0	513	633	181	513	38	0	
0	0	0	0	0	505	631	181	515	38	0	
1	0	0	0	0	500	629	181	512	38	0	
2	0	0	0	0	512	628	180	510	38	0	
3	0	0	0	0	510	628	180	509	38	0	
4	0	0	0	0	503	627	181	519	38	0	
5	0	0	0	0	507	628	181	507	38	0	
6	0	0	0	0	499	627	181	508	38	0	
7	0	0	0	0	503	628	180	506	38	0	
8	0	0	0	0	507	630	180	505	38	0	
9	0	0	0	0	508	632	180	507	38	0	
10	0	0	0	0	502	636	181	509	38	0	
11	0	0	0	0	510	640	181	511	38	0	
12	0	0	0	0	513	644	180	513	38	0	
13	0	0	0	0	514	648	180	515	38	0	
14	0	0	0	0	515	653	181	517	38	0	
15	0	0	0	0	516	657	181	518	38	0	
0	0	0	0	0	513	660	180	517	38	0	
1	0	0	0	0	504	664	180	518	38	0	
2	0	0	0	0	508	667	181	515	38	0	
3	0	0	0	0	509	670	181	513	38	0	
4	0	0	0	0	507	674	181	512	38	0	
5	0	0	0	0	506	677	180	510	38	0	
6	0	0	0	0	506	680	180	508	38	0	
7	0	0	0	0	500	683	181	508	38	0	
8	0	0	0	0	505	685	181	509	38	0	
9	0	0	0	0	504	688	181	510	38	0	
10	0	0	0	0	508	690	180	511	38	0	
11	0	0	0	0	511	690	181	513	38	0	
12	0	0	0	0	513	691	181	515	38	0	
13	0	0	0	0	515	691	181	517	38	0	
14	0	0	0	0	512	692	180	515	38	0	
15	0	0	0	0	509	694	180	515	38	0	
0	0	0	0	0	513	694	181	513	38	0	
1	0	0	0	0	509	695	181	513	38	0	
2	0	0	0	0	508	696	180	511	38	0	
3	0	0	0	0	509	697	180	511	38	0	
4	0	0	0	0	502	697	181	509	38	0	
5	0	0	0	0	505	699	181	508	38	0	
6	0	0	0	0	504	699	181	506	38	0	
7	0	0	0	0	499	699	180	508	38	0	
8	0	0	0	0	507	700	180	509	38	0	
9	0	0	0	0	513	699	181	510	38	0	
10	0	0	0	0	506	698	181	511	38	0	
11	0	0	0	0	511	698	180	512	38	0	
12	0	0	0	0	504	698	180	512	38	0	
13	0	0	0	0	511	697	181	511	38	0	
14	0	0	0	0	506	697	181	509	38	0	
15	0	0	0	0	517	699	181	510	38	0	
0	0	0	0	0	517	700	180	511	38	0	
1	0	0	0	0	514	700	180	521	38	0	
2	0	0	0	0	510	702	181	509	38	0	
3	0	0	0	0	505	702	181	509	38	0	
4	0	0	0	0	502	703	180	507	38	0	
5	0	0	0	0	504	704	180	505	38	0	
6	0	0	0	0	512	706	181	505	38	0	
7	0	0	0	0	503	708	181	505	38	0	
8	0	0	0	0	503	708	180	506	38	0	
9	0	0	0	0	508	709	180	505	38	0	
10	0	0	0	0	510	710	181	507	38	0	
11	0	0	0	0	514	712	181	508	38	0	
12	0	0	0	0	505	713	180	512	38	0	
13	0	0	0	0	512	712	179	513	38	0	
14	0	0	0	0	512	711	180	514	38	0	
15	0	0	0	0	518	711	181	513	38	0	
0	0	0	0	0	516	710	181	515	38	0	
1	0	0	0	0	505	711	181	516	38	0	
2	0	0	0	0	512	711	181	513	38	0	
3	0	0	0	0	502	711	180	513	38	0	
4	0	0	0	0	510	711	180	512	38	0	
5	0	0	0	0	510	710	181	512	38	0	
6	0	0	0	0	501	711	179	510	38	0	
7	0	0	0	0	506	711	180	509	38	0	
8	0	0	0	0	500	711	181	508	38	0	
9	0	0	0	0	506	709	181	507	38	0	
10	0	0	0	0	502	709	180	517	38	0	
11	0	0	0	0	505	708	180	507	38	0	
12	0	0	0	0	506	707	180	510	38	0	
13	0	0	0	0	509	706	180	511	38	0	
14	0	0	0	0	502	704	181	514	38	0	
15	0	0	0	0	515	704	181	515	38	0	
0	0	0	0	0	512	704	180	517	38	0	
1	0	0	0	0	513	705	180	517	38	0	
2	0	0	0	0	510	705	181	516	38	0	
3	0	0	0	0	512	705	181	516	38	0	
4	0	0	0	0	512	705	181	516	38	0	
5	0	0	0	0	506	705	180	516	38	0	
6	0	0	0	0	512	705	180	512	38	0	
7	0	0	0	0	503	704	180	511	38	0	
8	0	0	0	0	504	704	181	510	38	0	
9	0	0	0	0	504	703	180	510	38	0	
10	0	0	0	0	508	702	180	510	38	0	
11	0	0	0	0	511	702	180	510	38	0	
12	0	0	0	0	511	702	181	512	38	0	
13	0	0	0	0	505	700	181	515	38	0	
14	0	0	0	0	510	699	180	519	38	0	
15	0	0	0	0	505	698	181	518	38	0	
0	0	0	0	0	508	697	181	519	38	0	
1	0	0	0	0	510	696	180	514	38	0	
2	0	0	0	0	513	694	180	515	38	0	
3	0	0	0	0	509	692	180	516	38	0	
4	0	0	0	0	510	692	181	516	38	0	
5	0	0	0	0	508	691	181	513	38	0	
6	0	0	0	0	514	691	180	512	38	0	
7	0	0	0	0	501	693	181	512	38	0	
8	0	0	0	0	497	693	181	513	38	0	
9	0	0	0	0	511	692	181	512	38	0	
10	0	0	0	0	496	689	181	511	38	0	
11	0	0	0	0	502	688	180	509	38	0	
12	0	0	0	0	504	687	180	509	38	0	
13	0	0	0	0	505	688	180	509	38	0	
14	0	0	0	0	516	688	181	512	38	0	
15	0	0	0	0	511	687	181	512	38	0	
0	0	0	0	0	511	687	181	514	38	0	
1	0	0	0	0	508	685	180	516	38	0	
2	0	0	0	0	516	685	181	515	38	0	
3	0	0	0	0	510	685	181	516	38	0	
4	0	0	0	0	516	684	180	516	38	0	
5	0	0	0	0	513	683	181	515	38	0	
6	0	0	0	0	502	683	181	513	38	0	
7	0	0	0	0	511	683	181	511	38	0	
8	0	0	0	0	510	683	180	510	38	0	
9	0	0	0	0	503	683	180	508	38	0	
10	0	0	0	0	500	683	181	508	38	0	
11	0	0	0	0	508	682	181	508	38	0	
12	0	0	0	0	500	681	181	513	38	0	
13	0	0	0	0	512	681	180	516	38	0	
14	0	0	0	0	507	681	180	517	38	0	
15	0	0	0	0	510	679	181	519	38	0	
0	0	0	0	0	507	679	181	520	38	0	
1	0	0	0	0	519	677	181	522	38	0	
2	0	0	0	0	510	676	180	521	38	0	
3	0	0	0	0	510	675	181	520	38	0	
4	0	0	0	0	503	675	181	517	38	0	
5	0	0	0	0	502	674	180	514	38	0	
6	0	0	0	0	508	674	180	511	38	0	
7	0	0	0	0	514	675	181	511	38	0	
8	0	0	0	0	511	675	181	510	38	0	
9	0	0	0	0	506	675	181	508	38	0	
10	0	0	0	0	505	675	180	507	38	0	
11	0	0	0	0	505	675	181	506	38	0	
12	0	0	0	0	504	675	181	506	38	0	
13	0	0	0	0	512	675	181	508	38	0	
14	0	0	0	0	508	676	180	511	38	0	
15	0	0	0	0	505	677	180	515	38	0	
0	0	0	0	0	499	677	181	518	38	0	
1	0	0	0	0	512	678	181	520	38	0	
2	0	0	0	0	507	678	181	522	38	0	
3	0	0	0	0	511	678	181	522	38	0	
4	0	0	0	0	514	679	181	522	38	0	
5	0	0	0	0	512	679	180	519	38	0	
6	0	0	0	0	510	678	181	519	38	0	
7	0	0	0	0	508	677	181	517	38	0	
8	0	0	0	0	506	678	181	515	38	0	
9	0	0	0	0	507	679	180	511	38	0	
10	0	0	0	0	510	680	181	509	38	0	
11	0	0	0	0	511	680	181	506	38	0	
12	0	0	0	0	505	680	181	505	38	0	
13	0	0	0	0	494	680	180	504	38	0	
14	0	0	0	0	510	679	181	506	38	0	
15	0	0	0	0	512	679	181	508	38	0	
0	0	0	0	0	508	679	180	509	38	0	
1	0	0	0	0	516	678	180	513	38	0	
2	0	0	0	0	515	678	181	516	38	0	
3	0	0	0	0	513	676	181	518	38	0	
4	0	0	0	0	515	677	180	519	38	0	
5	0	0	0	0	508	679	180	518	38	0	
6	0	0	0	0	506	680	181	516	38	0	
7	0	0	0	0	508	680	181	515	38	0	
8	0	0	0	0	511	681	180	512	38	0	
9	0	0	0	0	518	681	180	510	38	0	
10	0	0	0	0	502	683	181	507	38	0	
11	0	0	0	0	503	683	181	505	38	0	
12	0	0	0	0	503	682	181	504	38	0	
13	0	0	0	0	500	679	181	504	38	0	
14	0	0	0	0	509	677	180	503	38	0	
15	0	0	0	0	503	676	181	505	38	0	
0	0	0	0	0	502	675	181	508	38	0	
1	0	0	0	0	505	675	181	511	38	0	
2	0	0	0	0	509	673	180	513	38	0	
3	0	0	0	0	512	671	181	514	38	0	
4	0	0	0	0	511	670	181	515	38	0	
5	0	0	0	0	518	669	180	516	38	0	
6	0	0	0	0	510	668	180	515	38	0	
7	0	0	0	0	507	666	181	514	38	0	
8	0	0	0	0	507	664	182	512	38	0	
9	0	0	0	0	512	664	180	511	38	0	
10	0	0	0	0	507	663	181	510	38	0	
11	0	0	0	0	501	663	181	509	38	0	
12	0	0	0	0	509	663	182	506	38	0	
13	0	0	0	0	510	662	180	507	38	0	
14	0	0	0	0	499	662	180	506	38	0	
15	0	0	0	0	507	661	181	506	38	0	
0	0	0	0	0	503	662	182	506	38	0	
1	0	0	0	0	512	661	180	507	38	0	
2	0	0	0	0	503	659	180	507	38	0	
3	0	0	0	0	510	658	181	511	38	0	
4	0	0	0	0	512	655	181	515	38	0	
5	0	0	0	0	511	654	181	514	38	0	
6	0	0	0	0	503	654	180	520	38	0	
7	0	0	0	0	512	653	180	514	38	0	
8	0	0	0	0	511	653	181	513	38	0	
9	0	0	0	0	513	652	181	510	38	0	
10	0	0	0	0	503	651	181	507	38	0	
11	0	0	0	0	505	651	180	505	38	0	
12	0	0	0	0	501	652	181	505	38	0	
13	0	0	0	0	508	651	181	506	38	0	
14	0	0	0	0	511	650	181	506	38	0	
15	0	0	0	0	502	649	180	504	38	0	
0	0	0	0	0	508	648	180	507	38	0	
1	0	0	0	0	503	647	181	510	38	0	
2	0	0	0	0	507	646	181	522	38	0	
3	0	0	0	0	500	642	181	529	38	0	
4	0	0	0	0	519	639	180	531	38	0	
5	0	0	0	0	511	638	181	531	38	0	
6	0	0	0	0	517	638	181	527	38	0	
7	0	0	0	0	512	638	182	527	38	0	
8	0	0	0	0	516	637	180	522	38	0	
9	0	0	0	0	504	637	181	520	38	0	
10	0	0	0	0	510	637	182	516	38	0	
11	0	0	0	0	511	636	181	514	38	0	
12	0	0	0	0	504	636	180	513	38	0	
13	0	0	0	0	503	636	181	510	38	0	
14	0	0	0	0	508	635	181	510	38	0	
15	0	0	0	0	500	634	181	509	38	0	
0	0	0	0	0	507	633	181	508	38	0	
1	0	0	0	0	513	632	182	508	38	0	
2	0	0	0	0	508	631	181	510	38	0	
3	0	0	0	0	508	629	180	515	38	0	
4	0	0	0	0	511	627	181	513	38	0	
5	0	0	0	0	506	626	182	514	38	0	
6	0	0	0	0	509	625	181	516	38	0	
7	0	0	0	0	507	623	180	519	38	0	
8	0	0	0	0	508	622	181	520	38	0	
9	0	0	0	0	516	620	182	517	38	0	
10	0	0	0	0	509	617	182	515	38	0	
11	0	0	0	0	505	616	180	512	38	0	
12	0	0	0	0	512	614	181	510	38	0	
13	0	0	0	0	510	612	181	509	38	0	
14	0	0	0	0	504	612	182	508	38	0	
15	0	0	0	0	502	611	181	508	38	0	
0	0	0	0	0	509	611	181	518	38	0	
1	0	0	0	0	504	611	181	507	38	0	
2	0	0	0	0	508	610	182	507	38	0	
3	0	0	0	0	504	609	182	508	38	0	
4	0	0	0	0	512	608	180	508	38	0	
5	0	0	0	0	514	607	181	510	38	0	
6	0	0	0	0	514	606	182	512	38	0	
7	0	0	0	0	515	606	181	523	38	0	
8	0	0	0	0	505	606	181	513	38	0	
9	0	0	0	0	512	606	181	512	38	0	
10	0	0	0	0	506	606	181	511	38	0	
11	0	0	0	0	506	607	182	510	38	0	
12	0	0	0	0	512	608	182	510	38	0	
13	0	0	0	0	512	608	182	509	38	0	
14	0	0	0	0	508	608	180	507	38	0	
15	0	0	0	0	505	609	182	507	38	0	
0	0	0	0	0	497	608	182	506	38	0	
1	0	0	0	0	510	609	182	506	38	0	
2	0	0	0	0	508	609	181	504	38	0	
3	0	0	0	0	508	609	181	505	38	0	
4	0	0	0	0	499	609	182	507	38	0	
5	0	0	0	0	510	607	181	519	38	0	
6	0	0	0	0	516	606	181	512	38	0	
7	0	0	0	0	513	606	181	512	38	0	
8	0	0	0	0	514	604	182	514	38	0	
9	0	0	0	0	510	604	182	523	38	0	
10	0	0	0	0	511	604	181	516	38	0	
11	0	0	0	0	507	603	181	516	38	0	
12	0	0	0	0	503	601	182	513	38	0	
13	0	0	0	0	511	599	182	511	38	0	
14	0	0	0	0	507	598	181	512	38	0	
15	0	0	0	0	509	599	182	511	38	0	
0	0	0	0	0	503	599	182	511	38	0	
1	0	0	0	0	511	599	181	513	38	0	
2	0	0	0	0	504	598	181	513	38	0	
3	0	0	0	0	506	598	181	511	38	0	
4	0	0	0	0	509	598	182	512	38	0	
5	0	0	0	0	500	596	182	513	38	0	
6	0	0	0	0	507	595	181	514	38	0	
7	0	0	0	0	518	595	181	514	38	0	
8	0	0	0	0	511	594	182	515	38	0	
9	0	0	0	0	514	595	182	515	38	0	
10	0	0	0	0	512	595	181	512	38	0	
11	0	0	0	0	509	594	182	511	38	0	
12	0	0	0	0	515	593	182	509	38	0	
13	0	0	0	0	513	591	181	508	38	0	
14	0	0	0	0	506	590	182	508	38	0	
15	0	0	0	0	499	590	182	519	38	0	
0	0	0	0	0	501	589	181	508	38	0	
1	0	0	0	0	498	588	181	509	38	0	
2	0	0	0	0	498	587	182	510	38	0	
3	0	0	0	0	508	584	182	510	38	0	
4	0	0	0	0	508	582	182	509	38	0	
5	0	0	0	0	505	581	181	510	38	0	
6	0	0	0	0	513	579	182	511	38	0	
7	0	0	0	0	512	579	182	511	38	0	
8	0	0	0	0	513	578	182	512	38	0	
9	0	0	0	0	506	577	181	512	38	0	
10	0	0	0	0	515	578	181	512	38	0	
11	0	0	0	0	515	578	181	510	38	0	
12	0	0	0	0	507	580	182	508	38	0	
13	0	0	0	0	515	582	182	505	38	0	
14	0	0	0	0	509	584	181	505	38	0	
15	0	0	0	0	503	586	181	505	38	0	
0	0	0	0	0	506	587	182	505	38	0	
1	0	0	0	0	501	588	182	507	38	0	
2	0	0	0	0	498	588	181	508	38	0	
3	0	0	0	0	500	588	181	507	38	0	
4	0	0	0	0	503	588	182	507	38	0	
5	0	0	0	0	511	588	182	507	38	0	
6	0	0	0	0	512	588	182	508	38	0	
7	0	0	0	0	504	587	181	510	38	0	
8	0	0	0	0	515	586	181	512	38	0	
9	0	0	0	0	515	587	182	513	38	0	
10	0	0	0	0	513	587	182	515	38	0	
11	0	0	0	0	512	588	181	516	38	0	
12	0	0	0	0	502	589	181	517	38	0	
13	0	0	0	0	505	590	182	517	38	0	
14	0	0	0	0	504	590	182	514	38	0	
15	0	0	0	0	509	589	182	513	38	0	
0	0	0	0	0	512	590	181	512	38	0	
1	0	0	0	0	502	590	181	511	38	0	
2	0	0	0	0	507	591	182	509	38	0	
3	0	0	0	0	504	591	182	509	38	0	
4	0	0	0	0	510	590	181	508	38	0	
5	0	0	0	0	505	591	181	508	38	0	
6	0	0	0	0	508	590	182	510	38	0	
7	0	0	0	0	509	590	182	512	38	0	
8	0	0	0	0	510	590	181	514	38	0	
9	0	0	0	0	510	590	181	516	38	0	
10	0	0	0	0	509	591	181	516	38	0	
11	0	0	0	0	519	591	182	515	38	0	
12	0	0	0	0	508	592	182	515	38	0	
13	0	0	0	0	506	592	182	511	38	0	
14	0	0	0	0	508	593	181	510	38	0	
15	0	0	0	0	518	593	181	507	38	0	
0	0	0	0	0	508	593	182	507	38	0	
1	0	0	0	0	504	593	182	505	38	0	
2	0	0	0	0	509	593	182	505	38	0	
3	0	0	0	0	503	593	182	505	38	0	
4	0	0	0	0	505	592	182	505	38	0	
5	0	0	0	0	508	591	181	505	38	0	
6	0	0	0	0	508	591	181	510	38	0	
7	0	0	0	0	510	592	182	523	38	0	
8	0	0	0	0	504	592	182	519	38	0	
9	0	0	0	0	509	591	182	521	38	0	
10	0	0	0	0	511	591	182	521	38	0	
11	0	0	0	0	511	591	181	520	38	0	
12	0	0	0	0	515	593	181	519	38	0	
13	0	0	0	0	508	593	182	517	38	0	
14	0	0	0	0	513	593	182	513	38	0	
15	0	0	0	0	500	594	181	511	38	0	
0	0	0	0	0	512	594	181	507	38	0	
1	0	0	0	0	510	596	182	506	38	0	
2	0	0	0	0	504	596	182	505	38	0	
3	0	0	0	0	505	598	181	504	38	0	
4	0	0	0	0	508	598	181	504	38	0	
5	0	0	0	0	506	600	182	505	38	0	
6	0	0	0	0	510	601	182	507	38	0	
7	0	0	0	0	512	603	181	509	38	0	
8	0	0	0	0	503	604	181	511	38	0	
9	0	0	0	0	503	604	182	509	38	0	
10	0	0	0	0	511	604	182	510	38	0	
11	0	0	0	0	511	604	181	511	38	0	
12	0	0	0	0	512	605	180	512	38	0	
13	0	0	0	0	513	607	182	511	38	0	
14	0	0	0	0	508	608	182	510	38	0	
15	0	0	0	0	512	609	182	510	38	0	
0	0	0	0	0	512	610	181	510	38	0	
1	0	0	0	0	502	611	181	508	38	0	
2	0	0	0	0	504	614	182	507	38	0	
3	0	0	0	0	497	615	182	506	38	0	
4	0	0	0	0	502	615	181	507	38	0	
5	0	0	0	0	504	616	181	511	38	0	
6	0	0	0	0	512	616	182	511	38	0	
7	0	0	0	0	507	617	182	512	38	0	
8	0	0	0	0	516	616	181	512	38	0	
9	0	0	0	0	510	616	180	524	38	0	
10	0	0	0	0	509	616	182	515	38	0	
11	0	0	0	0	505	615	182	515	38	0	
12	0	0	0	0	512	614	181	516	38	0	
13	0	0	0	0	509	614	181	516	38	0	
14	0	0	0	0	503	613	182	515	38	0	
15	0	0	0	0	510	612	182	514	38	0	
0	0	0	0	0	511	612	180	512	38	0	
1	0	0	0	0	510	612	182	510	38	0	
2	0	0	0	0	507	613	182	510	38	0	
3	0	0	0	0	499	613	182	510	38	0	
4	0	0	0	0	514	614	181	507	38	0	
5	0	0	0	0	507	614	182	507	38	0	
6	0	0	0	0	507	614	182	508	38	0	
7	0	0	0	0	504	615	181	508	38	0	
8	0	0	0	0	508	616	181	507	38	0	
9	0	0	0	0	507	615	182	509	38	0	
10	0	0	0	0	510	614	182	511	38	0	
11	0	0	0	0	510	614	181	513	38	0	
12	0	0	0	0	515	615	182	515	38	0	
13	0	0	0	0	511	615	182	515	38	0	
14	0	0	0	0	501	615	182	517	38	0	
15	0	0	0	0	505	615	181	516	38	0	
0	0	0	0	0	510	615	182	516	38	0	
1	0	0	0	0	507	614	182	514	38	0	
2	0	0	0	0	511	614	182	513	38	0	
3	0	0	0	0	509	615	181	512	38	0	
4	0	0	0	0	508	615	181	509	38	0	
5	0	0	0	0	508	615	182	507	38	0	
6	0	0	0	0	504	615	182	506	38	0	
7	0	0	0	0	507	614	182	507	38	0	
8	0	0	0	0	513	613	181	510	38	0	
9	0	0	0	0	504	613	181	512	38	0	
10	0	0	0	0	508	613	182	515	38	0	
11	0	0	0	0	511	611	182	518	38	0	
12	0	0	0	0	513	610	181	518	38	0	
13	0	0	0	0	508	609	181	518	38	0	
14	0	0	0	0	509	609	182	518	38	0	
15	0	0	0	0	507	611	182	520	38	0	
0	0	0	0	0	518	611	181	518	38	0	
1	0	0	0	0	512	610	181	518	38	0	
2	0	0	0	0	504	610	182	516	38	0	
3	0	0	0	0	510	610	182	513	38	0	
4	0	0	0	0	509	611	182	515	38	0	
5	0	0	0	0	504	611	181	511	38	0	
6	0	0	0	0	508	611	181	510	38	0	
7	0	0	0	0	504	612	182	509	38	0	
8	0	0	0	0	506	612	182	507	38	0	
9	0	0	0	0	508	612	182	505	38	0	
10	0	0	0	0	510	611	182	508	38	0	
11	0	0	0	0	503	611	181	510	38	0	
12	0	0	0	0	505	611	182	513	38	0	
13	0	0	0	0	510	611	182	514	38	0	
14	0	0	0	0	508	611	182	515	38	0	
15	0	0	0	0	512	611	181	515	38	0	
0	0	0	0	0	511	610	182	519	38	0	
1	0	0	0	0	508	609	182	524	38	0	
2	0	0	0	0	506	608	182	512	38	0	
3	0	0	0	0	509	610	182	511	38	0	
4	0	0	0	0	508	611	181	509	38	0	
5	0	0	0	0	508	613	181	508	38	0	
6	0	0	0	0	508	614	182	508	38	0	
7	0	0	0	0	505	614	182	507	38	0	
8	0	0	0	0	500	612	181	507	38	0	
9	0	0	0	0	507	611	181	508	38	0	
10	0	0	0	0	505	611	182	509	38	0	
11	0	0	0	0	505	610	182	512	38	0	
12	0	0	0	0	501	608	182	521	38	0	
13	0	0	0	0	515	606	181	517	38	0	
14	0	0	0	0	514	605	181	518	38	0	
15	0	0	0	0	514	604	182	519	38	0	
0	0	0	0	0	514	604	182	518	38	0	
1	0	0	0	0	511	603	182	517	38	0	
2	0	0	0	0	506	602	181	516	38	0	
3	0	0	0	0	508	601	181	512	38	0	
4	0	0	0	0	507	603	182	511	38	0	
5	0	0	0	0	505	603	182	516	38	0	
6	0	0	0	0	503	604	182	507	38	0	
7	0	0	0	0	502	604	181	509	38	0	
8	0	0	0	0	504	602	181	509	38	0	
9	0	0	0	0	506	600	182	511	38	0	
10	0	0	0	0	512	598	182	510	38	0	
11	0	0	0	0	507	597	181	509	38	0	
12	0	0	0	0	512	596	181	510	38	0	
13	0	0	0	0	511	593	181	512	38	0	
14	0	0	0	0	510	592	182	513	38	0	
15	0	0	0	0	515	591	182	515	38	0	
0	0	0	0	0	510	590	182	518	38	0	
1	0	0	0	0	509	590	181	516	38	0	
2	0	0	0	0	510	589	181	515	38	0	
3	0	0	0	0	509	589	182	513	38	0	
4	0	0	0	0	507	590	182	511	38	0	
5	0	0	0	0	510	591	181	509	38	0	
6	0	0	0	0	507	591	181	509	38	0	
7	0	0	0	0	508	592	182	507	38	0	
8	0	0	0	0	497	593	182	507	38	0	
9	0	0	0	0	504	593	181	508	38	0	
10	0	0	0	0	508	593	181	508	38	0	
11	0	0	0	0	507	594	182	512	38	0	
12	0	0	0	0	511	594	182	511	38	0	
13	0	0	0	0	500	593	182	512	38	0	
14	0	0	0	0	508	593	181	515	38	0	
15	0	0	0	0	513	593	181	515	38	0	
0	0	0	0	0	515	595	182	515	38	0	
1	0	0	0	0	504	594	182	513	38	0	
2	0	0	0	0	513	594	182	514	38	0	
3	0	0	0	0	507	594	181	512	38	0	
4	0	0	0	0	502	593	182	511	38	0	
5	0	0	0	0	506	594	182	515	38	0	
6	0	0	0	0	508	594	182	506	38	0	
7	0	0	0	0	506	595	182	506	38	0	
8	0	0	0	0	500	595	181	508	38	0	
9	0	0	0	0	506	595	181	509	38	0	
10	0	0	0	0	506	594	182	507	38	0	
11	0	0	0	0	510	594	182	508	38	0	
12	0	0	0	0	512	595	182	518	38	0	
13	0	0	0	0	510	593	182	507	38	0	
14	0	0	0	0	507	593	181	509	38	0	
15	0	0	0	0	510	594	181	512	38	0	
0	0	0	0	0	513	593	182	513	38	0	
1	0	0	0	0	512	594	182	515	38	0	
2	0	0	0	0	512	594	181	513	38	0	
3	0	0	0	0	508	595	181	513	38	0	
4	0	0	0	0	508	595	182	512	38	0	
5	0	0	0	0	504	595	182	511	38	0	
6	0	0	0	0	513	595	181	508	38	0	
7	0	0	0	0	511	596	182	506	38	0	
8	0	0	0	0	501	598	182	506	38	0	
9	0	0	0	0	508	599	182	506	38	0	
10	0	0	0	0	503	598	181	507	38	0	
11	0	0	0	0	498	597	182	506	38	0	
12	0	0	0	0	506	596	182	505	38	0	
13	0	0	0	0	512	598	182	505	38	0	
14	0	0	0	0	505	597	181	508	38	0	
15	0	0	0	0	512	595	182	508	38	0	
0	0	0	0	0	510	595	182	512	38	0	
1	0	0	0	0	509	595	181	515	38	0	
2	0	0	0	0	514	595	181	517	38	0	
3	0	0	0	0	516	596	182	517	38	0	
4	0	0	0	0	505	596	182	516	38	0	
5	0	0	0	0	512	596	182	516	38	0	
6	0	0	0	0	505	596	181	513	38	0	
7	0	0	0	0	507	596	182	512	38	0	
8	0	0	0	0	511	596	182	513	38	0	
9	0	0	0	0	503	596	182	510	38	0	
10	0	0	0	0	505	597	181	508	38	0	
11	0	0	0	0	503	597	181	507	38	0	
12	0	0	0	0	508	596	182	509	38	0	
13	0	0	0	0	511	597	182	510	38	0	
14	0	0	0	0	506	597	181	513	38	0	
15	0	0	0	0	502	597	181	516	38	0	
0	0	0	0	0	510	597	181	518	38	0	
1	0	0	0	0	511	596	182	517	38	0	
2	0	0	0	0	503	596	182	518	38	0	
3	0	0	0	0	510	597	182	518	38	0	
4	0	0	0	0	511	597	181	517	38	0	
5	0	0	0	0	506	597	181	517	38	0	
6	0	0	0	0	511	597	182	516	38	0	
7	0	0	0	0	510	598	182	516	38	0	
8	0	0	0	0	506	599	182	513	38	0	
9	0	0	0	0	502	600	181	512	38	0	
10	0	0	0	0	508	601	182	510	38	0	
11	0	0	0	0	497	600	182	508	38	0	
12	0	0	0	0	511	601	182	509	38	0	
13	0	0	0	0	508	600	181	507	38	0	
14	0	0	0	0	506	600	181	510	38	0	
15	0	0	0	0	507	601	182	513	38	0	
0	0	0	0	0	508	601	182	517	38	0	
1	0	0	0	0	514	600	182	520	38	0	
2	0	0	0	0	512	600	181	522	38	0	
3	0	0	0	0	511	599	182	523	38	0	
4	0	0	0	0	514	599	182	521	38	0	
5	0	0	0	0	508	599	181	520	38	0	
6	0	0	0	0	517	598	181	517	38	0	
7	0	0	0	0	507	597	182	515	38	0	
8	0	0	0	0	505	596	182	510	38	0	
9	0	0	0	0	507	596	182	510	38	0	
10	0	0	0	0	505	596	181	508	38	0	
11	0	0	0	0	504	596	182	508	38	0	
12	0	0	0	0	503	595	182	509	38	0	
13	0	0	0	0	505	595	182	509	38	0	
14	0	0	0	0	506	593	181	510	38	0	
15	0	0	0	0	509	592	182	511	38	0	
0	0	0	0	0	507	591	182	514	38	0	
1	0	0	0	0	503	590	182	514	38	0	
2	0	0	0	0	513	590	181	516	38	0	
3	0	0	0	0	518	590	182	516	38	0	
4	0	0	0	0	519	590	182	518	38	0	
5	0	0	0	0	514	590	182	518	38	0	
6	0	0	0	0	510	589	181	516	38	0	
7	0	0	0	0	504	588	182	514	38	0	
8	0	0	0	0	505	589	182	512	38	0	
9	0	0	0	0	511	590	182	515	38	0	
10	0	0	0	0	507	590	182	510	38	0	
11	0	0	0	0	502	590	181	508	38	0	
12	0	0	0	0	501	591	182	506	38	0	
13	0	0	0	0	505	591	182	506	38	0	
14	0	0	0	0	512	589	182	505	38	0	
15	0	0	0	0	508	588	181	507	38	0	
0	0	0	0	0	501	588	182	508	38	0	
1	0	0	0	0	504	587	182	512	38	0	
2	0	0	0	0	509	586	182	512	38	0	
3	0	0	0	0	512	585	181	515	38	0	
4	0	0	0	0	512	585	181	517	38	0	
5	0	0	0	0	510	586	182	515	38	0	
6	0	0	0	0	511	586	182	516	38	0	
7	0	0	0	0	511	585	182	515	38	0	
8	0	0	0	0	508	585	181	513	38	0	
9	0	0	0	0	502	587	182	511	38	0	
10	0	0	0	0	503	589	182	511	38	0	
11	0	0	0	0	505	590	182	508	38	0	
12	0	0	0	0	507	591	181	509	38	0	
13	0	0	0	0	506	589	181	508	38	0	
14	0	0	0	0	506	588	182	508	38	0	
15	0	0	0	0	506	588	182	509	38	0	
0	0	0	0	0	515	589	181	510	38	0	
1	0	0	0	0	508	589	181	511	38	0	
2	0	0	0	0	505	588	182	512	38	0	
3	0	0	0	0	510	587	182	513	38	0	
4	0	0	0	0	507	586	182	514	38	0	
5	0	0	0	0	511	585	182	516	38	0	
6	0	0	0	0	513	584	181	515	38	0	
7	0	0	0	0	511	583	182	515	38	0	
8	0	0	0	0	511	583	182	518	38	0	
9	0	0	0	0	511	581	182	514	38	0	
10	0	0	0	0	512	581	181	512	38	0	
11	0	0	0	0	503	580	182	510	38	0	
12	0	0	0	0	510	581	182	510	38	0	
13	0	0	0	0	500	583	182	508	38	0	
14	0	0	0	0	508	583	181	508	38	0	
15	0	0	0	0	501	583	182	508	38	0	
0	0	0	0	0	507	583	182	511	38	0	
1	0	0	0	0	507	583	182	521	38	0	
2	0	0	0	0	507	584	181	513	38	0	
3	0	0	0	0	510	584	182	512	38	0	
4	0	0	0	0	507	583	182	512	38	0	
5	0	0	0	0	506	584	182	514	38	0	
6	0	0	0	0	519	586	181	515	38	0	
7	0	0	0	0	517	588	182	516	38	0	
8	0	0	0	0	504	589	182	515	38	0	
9	0	0	0	0	511	590	182	513	38	0	
10	0	0	0	0	510	592	182	514	38	0	
11	0	0	0	0	512	593	181	505	38	0	
12	0	0	0	0	511	595	182	505	38	0	
13	0	0	0	0	499	596	182	506	38	0	
14	0	0	0	0	502	596	182	508	38	0	
15	0	0	0	0	492	595	181	509	38	0	
0	0	0	0	0	504	595	182	511	38	0	
1	0	0	0	0	513	595	182	515	38	0	
2	0	0	0	0	511	594	182	514	38	0	
3	0	0	0	0	507	593	181	515	38	0	
4	0	0	0	0	510	593	182	517	38	0	
5	0	0	0	0	515	593	182	517	38	0	
6	0	0	0	0	511	593	182	518	38	0	
7	0	0	0	0	519	593	182	520	38	0	
8	0	0	0	0	518	593	181	519	38	0	
9	0	0	0	0	513	592	182	518	38	0	
10	0	0	0	0	504	592	182	515	38	0	
11	0	0	0	0	509	594	182	511	38	0	
12	0	0	0	0	510	595	181	509	38	0	
13	0	0	0	0	507	595	182	508	38	0	
14	0	0	0	0	499	593	182	506	38	0	
15	0	0	0	0	504	591	182	505	38	0	
0	0	0	0	0	504	591	181	506	38	0	
1	0	0	0	0	501	590	182	506	38	0	
2	0	0	0	0	508	590	182	508	38	0	
3	0	0	0	0	507	590	182	512	38	0	
4	0	0	0	0	504	591	182	510	38	0	
5	0	0	0	0	509	591	181	513	38	0	
6	0	0	0	0	514	591	181	514	38	0	
7	0	0	0	0	520	590	182	515	38	0	
8	0	0	0	0	511	590	182	514	38	0	
9	0	0	0	0	516	589	182	514	38	0	
10	0	0	0	0	503	589	181	513	38	0	
11	0	0	0	0	503	587	182	510	38	0	
12	0	0	0	0	508	587	182	509	38	0	
13	0	0	0	0	511	588	182	508	38	0	
14	0	0	0	0	501	589	181	507	38	0	
15	0	0	0	0	503	590	182	508	38	0	
0	0	0	0	0	499	589	182	510	38	0	
1	0	0	0	0	512	591	182	513	38	0	
2	0	0	0	0	504	590	181	511	38	0	
3	0	0	0	0	510	590	182	513	38	0	
4	0	0	0	0	501	590	182	514	38	0	
5	0	0	0	0	511	590	182	515	38	0	
6	0	0	0	0	516	590	182	517	38	0	
7	0	0	0	0	515	590	181	519	38	0	
8	0	0	0	0	516	590	182	518	38	0	
9	0	0	0	0	508	591	182	519	38	0	
10	0	0	0	0	505	590	182	524	38	0	
11	0	0	0	0	510	590	182	516	38	0	
12	0	0	0	0	507	591	181	514	38	0	
13	0	0	0	0	519	591	182	512	38	0	
14	0	0	0	0	510	591	182	511	38	0	
15	0	0	0	0	508	590	182	508	38	0	
0	0	0	0	0	503	591	181	508	38	0	
1	0	0	0	0	505	591	182	507	38	0	
2	0	0	0	0	507	592	182	507	38	0	
3	0	0	0	0	504	594	182	509	38	0	
4	0	0	0	0	512	595	181	514	38	0	
5	0	0	0	0	511	595	181	518	38	0	
6	0	0	0	0	509	594	182	516	38	0	
7	0	0	0	0	503	594	182	519	38	0	
8	0	0	0	0	507	593	182	518	38	0	
9	0	0	0	0	516	593	181	518	38	0	
10	0	0	0	0	511	592	182	517	38	0	
11	0	0	0	0	507	592	182	515	38	0	
12	0	0	0	0	507	593	182	512	38	0	
13	0	0	0	0	511	592	182	511	38	0	
14	0	0	0	0	512	592	181	509	38	0	
15	0	0	0	0	504	593	182	508	38	0	
0	0	0	0	0	499	594	182	507	38	0	
1	0	0	0	0	508	593	182	505	38	0	
2	0	0	0	0	502	593	182	505	38	0	
3	0	0	0	0	506	592	181	505	38	0	
4	0	0	0	0	505	591	182	506	38	0	
5	0	0	0	0	516	590	182	509	38	0	
6	0	0	0	0	516	590	182	510	38	0	
7	0	0	0	0	506	591	181	512	38	0	
8	0	0	0	0	510	591	182	513	38	0	
9	0	0	0	0	510	591	182	512	38	0	
10	0	0	0	0	509	592	182	511	38	0	
11	0	0	0	0	511	593	181	512	38	0	
12	0	0	0	0	501	592	182	510	38	0	
13	0	0	0	0	503	591	182	509	38	0	
14	0	0	0	0	513	591	182	515	38	0	
15	0	0	0	0	511	591	181	506	38	0	
0	0	0	0	0	513	592	181	505	38	0	
1	0	0	0	0	503	592	182	506	38	0	
2	0	0	0	0	494	591	182	507	38	0	
3	0	0	0	0	500	590	182	509	38	0	
4	0	0	0	0	509	589	181	509	38	0	
5	0	0	0	0	509	588	182	510	38	0	
6	0	0	0	0	503	588	182	512	38	0	
7	0	0	0	0	512	586	182	514	38	0	
8	0	0	0	0	508	585	181	516	38	0	
9	0	0	0	0	506	584	182	517	38	0	
10	0	0	0	0	515	583	182	519	38	0	
11	0	0	0	0	513	584	181	519	38	0	
12	0	0	0	0	513	585	182	517	38	0	
13	0	0	0	0	501	585	182	515	38	0	
14	0	0	0	0	511	586	182	512	38	0	
15	0	0	0	0	515	587	181	512	38	0	
0	0	0	0	0	504	589	182	521	38	0	
1	0	0	0	0	501	590	182	507	38	0	
2	0	0	0	0	505	592	182	507	38	0	
3	0	0	0	0	503	591	182	506	38	0	
4	0	0	0	0	508	591	182	506	38	0	
5	0	0	0	0	513	591	181	507	38	0	
6	0	0	0	0	504	591	182	508	38	0	
7	0	0	0	0	508	591	182	513	38	0	
8	0	0	0	0	511	591	182	515	38	0	
9	0	0	0	0	507	590	182	516	38	0	
10	0	0	0	0	510	590	181	518	38	0	
11	0	0	0	0	512	590	182	516	38	0	
12	0	0	0	0	509	590	182	516	38	0	
13	0	0	0	0	512	590	182	517	38	0	
14	0	0	0	0	511	590	182	516	38	0	
15	0	0	0	0	508	589	181	514	38	0	
0	0	0	0	0	512	589	182	511	38	0	
1	0	0	0	0	496	590	182	509	38	0	
2	0	0	0	0	503	591	182	508	38	0	
3	0	0	0	0	512	590	181	509	38	0	
4	0	0	0	0	508	588	182	510	38	0	
5	0	0	0	0	512	588	182	509	38	0	
6	0	0	0	0	509	587	182	510	38	0	
7	0	0	0	0	511	586	181	510	38	0	
8	0	0	0	0	509	585	182	515	38	0	
9	0	0	0	0	511	583	182	516	38	0	
10	0	0	0	0	512	582	182	515	38	0	
11	0	0	0	0	516	582	181	513	38	0	
12	0	0	0	0	514	582	182	512	38	0	
13	0	0	0	0	507	580	182	512	38	0	
14	0	0	0	0	511	579	182	511	38	0	
15	0	0	0	0	510	576	182	508	38	0	
0	0	0	0	0	510	577	181	507	38	0	
1	0	0	0	0	510	579	182	505	38	0	
2	0	0	0	0	501	580	182	505	38	0	
3	0	0	0	0	508	582	182	505	38	0	
4	0	0	0	0	502	581	181	505	38	0	
5	0	0	0	0	504	581	182	506	38	0	
6	0	0	0	0	500	581	182	507	38	0	
7	0	0	0	0	513	581	182	508	38	0	
8	0	0	0	0	511	581	181	512	38	0	
9	0	0	0	0	510	580	182	516	38	0	
10	0	0	0	0	511	579	182	518	38	0	
11	0	0	0	0	509	579	182	520	38	0	
12	0	0	0	0	513	580	181	519	38	0	
13	0	0	0	0	519	580	182	518	38	0	
14	0	0	0	0	516	581	182	515	38	0	
15	0	0	0	0	507	580	182	514	38	0	
0	0	0	0	0	506	581	182	513	38	0	
1	0	0	0	0	510	581	182	508	38	0	
2	0	0	0	0	507	582	182	507	38	0	
3	0	0	0	0	506	582	182	506	38	0	
4	0	0	0	0	508	582	182	506	38	0	
5	0	0	0	0	499	580	182	506	38	0	
6	0	0	0	0	504	579	182	506	38	0	
7	0	0	0	0	504	580	183	508	38	0	
8	0	0	0	0	508	580	181	512	38	0	
9	0	0	0	0	506	579	182	513	38	0	
10	0	0	0	0	511	579	182	516	38	0	
11	0	0	0	0	511	578	182	518	38	0	
12	0	0	0	0	515	578	181	519	38	0	
13	0	0	0	0	510	579	182	523	38	0	
14	0	0	0	0	515	580	182	518	38	0	
15	0	0	0	0	518	581	182	517	38	0	
0	0	0	0	0	511	581	181	515	38	0	
1	0	0	0	0	511	582	182	512	38	0	
2	0	0	0	0	508	583	182	509	38	0	
3	0	0	0	0	510	583	182	507	38	0	
4	0	0	0	0	506	584	182	506	38	0	
5	0	0	0	0	511	583	182	507	38	0	
6	0	0	0	0	501	584	182	508	38	0	
7	0	0	0	0	500	583	183	510	38	0	
8	0	0	0	0	506	582	181	514	38	0	
9	0	0	0	0	510	582	182	517	38	0	
10	0	0	0	0	512	579	182	519	38	0	
11	0	0	0	0	516	578	182	520	38	0	
12	0	0	0	0	512	577	181	520	38	0	
13	0	0	0	0	507	576	182	519	38	0	
14	0	0	0	0	499	575	182	518	38	0	
15	0	0	0	0	507	574	182	517	38	0	
0	0	0	0	0	505	575	182	517	38	0	
1	0	0	0	0	506	575	182	514	38	0	
2	0	0	0	0	511	575	182	513	38	0	
3	0	0	0	0	515	574	183	510	38	0	
4	0	0	0	0	505	574	181	510	38	0	
5	0	0	0	0	509	575	182	511	38	0	
6	0	0	0	0	503	577	182	509	38	0	
7	0	0	0	0	505	579	182	511	38	0	
8	0	0	0	0	511	580	182	511	38	0	
9	0	0	0	0	505	582	181	515	38	0	
10	0	0	0	0	504	583	182	519	38	0	
11	0	0	0	0	504	582	182	522	38	0	
12	0	0	0	0	517	581	181	523	38	0	
13	0	0	0	0	513	582	182	525	38	0	
14	0	0	0	0	518	582	182	524	38	0	
15	0	0	0	0	518	582	182	523	38	0	
0	0	0	0	0	511	580	182	520	38	0	
1	0	0	0	0	508	579	181	517	38	0	
2	0	0	0	0	510	578	181	516	38	0	
3	0	0	0	0	504	576	181	514	38	0	
4	0	0	0	0	504	576	182	512	38	0	
5	0	0	0	0	503	575	182	509	38	0	
6	0	0	0	0	503	575	182	508	38	0	
7	0	0	0	0	503	575	182	506	38	0	
8	0	0	0	0	513	575	181	506	38	0	
9	0	0	0	0	508	575	182	517	38	0	
10	0	0	0	0	506	575	182	508	38	0	
11	0	0	0	0	504	572	182	512	38	0	
12	0	0	0	0	512	571	182	515	38	0	
13	0	0	0	0	516	571	182	516	38	0	
14	0	0	0	0	519	571	182	515	38	0	
15	0	0	0	0	512	571	182	517	38	0	
0	0	0	0	0	511	571	182	517	38	0	
1	0	0	0	0	510	572	181	515	38	0	
2	0	0	0	0	509	572	182	514	38	0	
3	0	0	0	0	518	572	182	509	38	0	
4	0	0	0	0	507	572	183	510	38	0	
5	0	0	0	0	502	573	182	504	38	0	
6	0	0	0	0	502	573	182	503	38	0	
7	0	0	0	0	503	573	182	502	38	0	
8	0	0	0	0	499	573	182	504	38	0	
9	0	0	0	0	511	572	183	503	38	0	
10	0	0	0	0	507	572	183	506	38	0	
11	0	0	0	0	499	572	182	506	38	0	
12	0	0	0	0	511	571	181	508	38	0	
13	0	0	0	0	519	571	182	509	38	0	
14	0	0	0	0	508	569	182	511	38	0	
15	0	0	0	0	507	567	182	513	38	0	
0	0	0	0	0	516	567	182	513	38	0	
1	0	0	0	0	505	565	182	514	38	0	
2	0	0	0	0	510	564	182	514	38	0	
3	0	0	0	0	504	563	182	512	38	0	
4	0	0	0	0	509	563	183	510	38	0	
5	0	0	0	0	507	563	182	508	38	0	
6	0	0	0	0	506	563	182	507	38	0	
7	0	0	0	0	502	563	182	508	38	0	
8	0	0	0	0	515	563	182	506	38	0	
9	0	0	0	0	508	563	182	507	38	0	
10	0	0	0	0	511	562	182	508	38	0	
11	0	0	0	0	504	563	182	510	38	0	
12	0	0	0	0	506	563	183	514	38	0	
13	0	0	0	0	508	564	182	517	38	0	
14	0	0	0	0	508	563	182	520	38	0	
15	0	0	0	0	516	563	182	519	38	0	
0	0	0	0	0	518	562	182	520	38	0	
1	0	0	0	0	515	562	182	519	38	0	
2	0	0	0	0	505	562	182	518	38	0	
3	0	0	0	0	505	563	182	518	38	0	
4	0	0	0	0	513	565	182	515	38	0	
5	0	0	0	0	507	566	182	514	38	0	
6	0	0	0	0	504	567	182	512	38	0	
7	0	0	0	0	505	567	182	510	38	0	
8	0	0	0	0	505	567	182	507	38	0	
9	0	0	0	0	501	568	182	508	38	0	
10	0	0	0	0	505	567	182	519	38	0	
11	0	0	0	0	508	568	182	512	38	0	
12	0	0	0	0	503	567	182	512	38	0	
13	0	0	0	0	508	567	182	513	38	0	
14	0	0	0	0	511	565	182	515	38	0	
15	0	0	0	0	510	564	182	515	38	0	
0	0	0	0	0	516	563	182	515	38	0	
1	0	0	0	0	521	563	182	513	38	0	
2	0	0	0	0	509	562	182	515	38	0	
3	0	0	0	0	506	562	181	512	38	0	
4	0	0	0	0	506	562	182	513	38	0	
5	0	0	0	0	510	563	182	512	38	0	
6	0	0	0	0	511	562	183	513	38	0	
7	0	0	0	0	511	563	182	512	38	0	
8	0	0	0	0	500	564	182	512	38	0	
9	0	0	0	0	508	565	183	510	38	0	
10	0	0	0	0	502	564	182	510	38	0	
11	0	0	0	0	494	564	182	510	38	0	
12	0	0	0	0	507	564	182	509	38	0	
13	0	0	0	0	510	563	182	511	38	0	
14	0	0	0	0	512	562	183	510	38	0	
15	0	0	0	0	513	563	182	511	38	0	
0	0	0	0	0	506	562	182	511	38	0	
1	0	0	0	0	509	561	182	512	38	0	
2	0	0	0	0	515	562	183	512	38	0	
3	0	0	0	0	508	563	182	512	38	0	
4	0	0	0	0	508	562	182	512	38	0	
5	0	0	0	0	508	560	182	510	38	0	
6	0	0	0	0	512	561	183	508	38	0	
7	0	0	0	0	508	562	183	508	38	0	
8	0	0	0	0	503	562	182	509	38	0	
9	0	0	0	0	502	562	182	505	38	0	
10	0	0	0	0	502	561	182	507	38	0	
11	0	0	0	0	502	562	183	509	38	0	
12	0	0	0	0	509	561	182	512	38	0	
13	0	0	0	0	503	560	182	514	38	0	
14	0	0	0	0	509	560	182	518	38	0	
15	0	0	0	0	503	560	183	531	38	0	
0	0	0	0	0	512	561	182	520	38	0	
1	0	0	0	0	515	562	182	520	38	0	
2	0	0	0	0	519	563	182	517	38	0	
3	0	0	0	0	510	564	182	518	38	0	
4	0	0	0	0	510	563	183	515	38	0	
5	0	0	0	0	513	562	182	512	38	0	
6	0	0	0	0	503	561	182	508	38	0	
7	0	0	0	0	512	561	182	507	38	0	
8	0	0	0	0	508	562	183	507	38	0	
9	0	0	0	0	504	563	182	507	38	0	
10	0	0	0	0	496	563	182	506	38	0	
11	0	0	0	0	496	563	182	507	38	0	
12	0	0	0	0	505	562	183	505	38	0	
13	0	0	0	0	502	562	182	507	38	0	
14	0	0	0	0	512	562	182	511	38	0	
15	0	0	0	0	504	563	182	510	38	0	
0	0	0	0	0	506	563	183	510	38	0	
1	0	0	0	0	515	563	182	511	38	0	
2	0	0	0	0	514	561	182	512	38	0	
3	0	0	0	0	516	562	183	511	38	0	
4	0	0	0	0	509	562	183	511	38	0	
5	0	0	0	0	504	562	182	511	38	0	
6	0	0	0	0	509	562	182	508	38	0	
7	0	0	0	0	501	562	182	507	38	0	
8	0	0	0	0	512	563	183	507	38	0	
9	0	0	0	0	505	564	182	507	38	0	
10	0	0	0	0	508	564	182	506	38	0	
11	0	0	0	0	509	564	182	507	38	0	
12	0	0	0	0	498	564	183	509	38	0	
13	0	0	0	0	515	563	182	509	38	0	
14	0	0	0	0	518	562	182	510	38	0	
15	0	0	0	0	501	561	182	513	38	0	
0	0	0	0	0	512	559	183	513	38	0	
1	0	0	0	0	506	558	182	515	38	0	
2	0	0	0	0	511	558	182	514	38	0	
3	0	0	0	0	512	558	182	513	38	0	
4	0	0	0	0	521	558	183	513	38	0	
5	0	0	0	0	511	558	183	511	38	0	
6	0	0	0	0	504	559	182	510	38	0	
7	0	0	0	0	505	558	182	506	38	0	
8	0	0	0	0	508	559	183	504	38	0	
9	0	0	0	0	504	559	183	503	38	0	
10	0	0	0	0	500	559	183	504	38	0	
11	0	0	0	0	508	559	182	503	38	0	
12	0	0	0	0	503	560	182	503	38	0	
13	0	0	0	0	502	561	182	502	38	0	
14	0	0	0	0	514	561	183	502	38	0	
15	0	0	0	0	508	562	182	502	38	0	
0	0	0	0	0	502	563	182	504	38	0	
1	0	0	0	0	507	563	182	505	38	0	
2	0	0	0	0	512	563	183	510	38	0	
3	0	0	0	0	505	561	183	514	38	0	
4	0	0	0	0	506	560	182	516	38	0	
5	0	0	0	0	519	560	183	517	38	0	
6	0	0	0	0	511	561	183	515	38	0	
7	0	0	0	0	505	560	182	513	38	0	
8	0	0	0	0	510	561	182	511	38	0	
9	0	0	0	0	516	563	182	508	38	0	
10	0	0	0	0	506	563	183	506	38	0	
11	0	0	0	0	510	564	182	506	38	0	
12	0	0	0	0	503	565	182	517	38	0	
13	0	0	0	0	501	565	182	505	38	0	
14	0	0	0	0	499	564	183	506	38	0	
15	0	0	0	0	507	565	182	507	38	0	
0	0	0	0	0	510	566	182	509	38	0	
1	0	0	0	0	504	566	182	511	38	0	
2	0	0	0	0	511	565	183	514	38	0	
3	0	0	0	0	509	565	182	515	38	0	
4	0	0	0	0	513	566	182	518	38	0	
5	0	0	0	0	514	568	182	519	38	0	
6	0	0	0	0	507	570	182	519	38	0	
7	0	0	0	0	516	570	183	516	38	0	
8	0	0	0	0	509	568	182	513	38	0	
9	0	0	0	0	516	566	182	512	38	0	
10	0	0	0	0	512	564	182	509	38	0	
11	0	0	0	0	500	565	182	509	38	0	
12	0	0	0	0	509	567	183	509	38	0	
13	0	0	0	0	504	569	183	508	38	0	
14	0	0	0	0	504	570	182	508	38	0	
15	0	0	0	0	505	569	182	508	38	0	
0	0	0	0	0	508	570	182	510	38	0	
1	0	0	0	0	504	572	183	513	38	0	
2	0	0	0	0	511	574	182	515	38	0	
3	0	0	0	0	511	575	182	516	38	0	
4	0	0	0	0	514	576	182	515	38	0	
5	0	0	0	0	508	576	182	514	38	0	
6	0	0	0	0	512	578	182	514	38	0	
7	0	0	0	0	505	578	182	513	38	0	
8	0	0	0	0	504	578	182	513	38	0	
9	0	0	0	0	509	579	183	510	38	0	
10	0	0	0	0	513	581	182	509	38	0	
11	0	0	0	0	505	583	182	509	38	0	
12	0	0	0	0	507	583	182	508	38	0	
13	0	0	0	0	502	584	182	506	38	0	
14	0	0	0	0	499	585	183	504	38	0	
15	0	0	0	0	510	586	182	506	38	0	
0	0	0	0	0	517	587	182	520	38	0	
1	0	0	0	0	504	588	182	512	38	0	
2	0	0	0	0	507	591	182	514	38	0	
3	0	0	0	0	505	593	181	515	38	0	
4	0	0	0	0	515	594	182	517	38	0	
5	0	0	0	0	510	595	182	515	38	0	
6	0	0	0	0	511	598	182	516	38	0	
7	0	0	0	0	509	599	182	516	38	0	
8	0	0	0	0	512	599	182	516	38	0	
9	0	0	0	0	508	599	182	515	38	0	
10	0	0	0	0	512	599	182	514	38	0	
11	0	0	0	0	509	598	182	514	38	0	
12	0	0	0	0	504	596	182	511	38	0	
13	0	0	0	0	506	593	182	511	38	0	
14	0	0	0	0	510	588	183	511	38	0	
15	0	0	0	0	503	583	182	510	38	0	
0	0	0	0	0	503	576	182	509	38	0	
1	0	0	0	0	510	570	182	508	38	0	
2	0	0	0	0	512	565	183	509	38	0	
3	0	0	0	0	510	560	182	510	38	0	
4	0	0	0	0	505	552	182	509	38	0	
5	0	0	0	0	512	545	183	508	38	0	
6	0	0	0	0	513	541	183	510	38	0	
7	0	0	0	0	516	537	182	512	38	0	
8	0	0	0	0	507	536	182	511	38	0	
9	0	0	0	0	503	532	182	511	38	0	
10	0	0	0	0	510	528	183	512	38	0	
11	0	0	0	0	517	524	183	512	38	0	
12	0	0	0	0	509	521	182	510	38	0	
13	0	0	0	0	507	517	182	508	38	0	
14	0	0	0	0	508	514	183	505	38	0	
15	0	0	0	0	506	510	183	507	38	0	
0	0	0	0	0	499	508	182	508	38	0	
1	0	0	0	0	503	504	183	506	38	0	
2	0	0	0	0	509	503	183	508	38	0	
3	0	0	0	0	502	502	183	507	38	0	
4	0	0	0	0	509	500	182	509	38	0	
5	0	0	0	0	507	499	183	512	38	0	
6	0	0	0	0	515	498	183	513	38	0	
7	0	0	0	0	504	497	182	515	38	0	
8	0	0	0	0	512	496	182	515	38	0	
9	0	0	0	0	511	495	183	515	38	0	
10	0	0	0	0	505	496	183	513	38	0	
11	0	0	0	0	504	496	183	510	38	0	
12	0	0	0	0	510	497	183	510	38	0	
13	0	0	0	0	518	500	182	510	38	0	
14	0	0	0	0	506	504	182	510	38	0	
15	0	0	0	0	510	508	182	510	38	0	
0	0	0	0	0	504	513	183	509	38	0	
1	0	0	0	0	508	516	183	509	38	0	
2	0	0	0	0	515	519	183	510	38	0	
3	0	0	0	0	505	524	182	512	38	0	
4	0	0	0	0	504	528	182	516	38	0	
5	0	0	0	0	507	530	183	515	38	0	
6	0	0	0	0	508	532	183	516	38	0	
7	0	0	0	0	512	535	183	515	38	0	
8	0	0	0	0	511	537	182	515	38	0	
9	0	0	0	0	511	543	183	513	38	0	
10	0	0	0	0	513	547	183	513	38	0	
11	0	0	0	0	506	550	183	513	38	0	
12	0	0	0	0	510	553	182	511	38	0	
13	0	0	0	0	513	556	182	509	38	0	
14	0	0	0	0	509	557	183	506	38	0	
15	0	0	0	0	507	557	183	503	38	0	
0	0	0	0	0	500	558	183	503	38	0	
1	0	0	0	0	504	557	182	504	38	0	
2	0	0	0	0	504	557	182	505	38	0	
3	0	0	0	0	502	558	183	507	38	0	
4	0	0	0	0	507	560	183	511	38	0	
5	0	0	0	0	510	561	182	515	38	0	
6	0	0	0	0	514	562	183	518	38	0	
7	0	0	0	0	510	562	182	520	38	0	
8	0	0	0	0	515	561	183	522	38	0	
9	0	0	0	0	509	560	183	521	38	0	
10	0	0	0	0	509	561	182	521	38	0	
11	0	0	0	0	512	561	182	520	38	0	
12	0	0	0	0	509	561	183	517	38	0	
13	0	0	0	0	509	562	183	516	38	0	
14	0	0	0	0	504	563	182	514	38	0	
15	0	0	0	0	496	564	182	511	38	0	
0	0	0	0	0	503	566	183	511	38	0	
1	0	0	0	0	504	566	183	510	38	0	
2	0	0	0	0	502	567	183	508	38	0	
3	0	0	0	0	503	567	182	508	38	0	
4	0	0	0	0	514	567	182	510	38	0	
5	0	0	0	0	510	569	182	510	38	0	
6	0	0	0	0	505	571	183	512	38	0	
7	0	0	0	0	511	571	182	514	38	0	
8	0	0	0	0	515	569	182	515	38	0	
9	0	0	0	0	515	569	183	515	38	0	
10	0	0	0	0	510	570	183	518	38	0	
11	0	0	0	0	506	570	182	518	38	0	
12	0	0	0	0	512	569	182	513	38	0	
13	0	0	0	0	511	568	183	512	38	0	
14	0	0	0	0	515	566	183	509	38	0	
15	0	0	0	0	504	566	182	507	38	0	
0	0	0	0	0	508	566	182	506	38	0	
1	0	0	0	0	505	567	183	506	38	0	
2	0	0	0	0	499	567	183	508	38	0	
3	0	0	0	0	504	567	182	507	38	0	
4	0	0	0	0	503	567	182	509	38	0	
5	0	0	0	0	510	567	182	510	38	0	
6	0	0	0	0	512	567	183	512	38	0	
7	0	0	0	0	503	567	183	511	38	0	
8	0	0	0	0	502	567	182	512	38	0	
9	0	0	0	0	511	567	182	524	38	0	
10	0	0	0	0	518	567	182	515	38	0	
11	0	0	0	0	513	567	183	515	38	0	
12	0	0	0	0	511	566	183	516	38	0	
13	0	0	0	0	507	566	182	513	38	0	
14	0	0	0	0	508	564	182	511	38	0	
15	0	0	0	0	513	563	182	509	38	0	
0	0	0	0	0	502	564	183	507	38	0	
1	0	0	0	0	504	563	182	507	38	0	
2	0	0	0	0	497	563	183	506	38	0	
3	0	0	0	0	503	561	183	506	38	0	
4	0	0	0	0	502	559	182	509	38	0	
5	0	0	0	0	514	558	182	509	38	0	
6	0	0	0	0	515	559	183	510	38	0	
7	0	0	0	0	505	559	183	511	38	0	
8	0	0	0	0	512	559	182	513	38	0	
9	0	0	0	0	510	558	183	513	38	0	
10	0	0	0	0	512	557	183	515	38	0	
11	0	0	0	0	515	556	183	514	38	0	
12	0	0	0	0	507	555	182	514	38	0	
13	0	0	0	0	510	554	183	512	38	0	
14	0	0	0	0	505	554	183	512	38	0	
15	0	0	0	0	510	553	183	511	38	0	
0	0	0	0	0	507	553	183	510	38	0	
1	0	0	0	0	502	555	182	508	38	0	
2	0	0	0	0	505	557	182	505	38	0	
3	0	0	0	0	499	556	183	505	38	0	
4	0	0	0	0	502	555	183	506	38	0	
5	0	0	0	0	501	553	182	508	38	0	
6	0	0	0	0	519	553	182	520	38	0	
7	0	0	0	0	502	552	183	513	38	0	
8	0	0	0	0	511	550	183	515	38	0	
9	0	0	0	0	504	548	182	518	38	0	
10	0	0	0	0	504	546	182	520	38	0	
11	0	0	0	0	513	545	183	519	38	0	
12	0	0	0	0	515	545	183	520	38	0	
13	0	0	0	0	512	543	182	520	38	0	
14	0	0	0	0	510	543	182	517	38	0	
15	0	0	0	0	511	543	183	513	38	0	
0	0	0	0	0	516	543	183	511	38	0	
1	0	0	0	0	513	543	182	509	38	0	
2	0	0	0	0	513	544	183	507	38	0	
3	0	0	0	0	504	545	183	506	38	0	
4	0	0	0	0	501	546	182	508	38	0	
5	0	0	0	0	504	546	182	508	38	0	
6	0	0	0	0	499	545	183	511	38	0	
7	0	0	0	0	507	544	183	512	38	0	
8	0	0	0	0	502	543	183	513	38	0	
9	0	0	0	0	512	542	182	513	38	0	
10	0	0	0	0	517	540	183	514	38	0	
11	0	0	0	0	513	540	183	514	38	0	
12	0	0	0	0	515	539	182	515	38	0	
13	0	0	0	0	509	538	182	515	38	0	
14	0	0	0	0	505	537	182	516	38	0	
15	0	0	0	0	506	536	183	516	38	0	
0	0	0	0	0	507	537	183	514	38	0	
1	0	0	0	0	507	536	183	510	38	0	
2	0	0	0	0	508	538	183	508	38	0	
3	0	0	0	0	500	538	182	507	38	0	
4	0	0	0	0	505	539	183	506	38	0	
5	0	0	0	0	508	538	183	505	38	0	
6	0	0	0	0	510	537	182	506	38	0	
7	0	0	0	0	510	536	182	508	38	0	
8	0	0	0	0	507	536	183	510	38	0	
9	0	0	0	0	506	535	183	511	38	0	
10	0	0	0	0	512	535	182	524	38	0	
11	0	0	0	0	514	535	182	515	38	0	
12	0	0	0	0	509	534	183	515	38	0	
13	0	0	0	0	504	536	183	515	38	0	
14	0	0	0	0	511	536	182	516	38	0	
15	0	0	0	0	512	538	183	515	38	0	
0	0	0	0	0	509	539	183	515	38	0	
1	0	0	0	0	513	540	182	513	38	0	
2	0	0	0	0	502	540	182	512	38	0	
3	0	0	0	0	502	540	183	512	38	0	
4	0	0	0	0	505	540	183	510	38	0	
5	0	0	0	0	504	539	182	509	38	0	
6	0	0	0	0	506	538	182	510	38	0	
7	0	0	0	0	507	536	183	510	38	0	
8	0	0	0	0	506	536	183	510	38	0	
9	0	0	0	0	496	535	182	511	38	0	
10	0	0	0	0	509	534	182	511	38	0	
11	0	0	0	0	515	535	183	513	38	0	
12	0	0	0	0	514	537	183	514	38	0	
13	0	0	0	0	515	538	183	514	38	0	
14	0	0	0	0	510	538	182	513	38	0	
15	0	0	0	0	503	538	183	513	38	0	
0	0	0	0	0	505	538	183	512	38	0	
1	0	0	0	0	505	537	183	510	38	0	
2	0	0	0	0	511	537	183	508	38	0	
3	0	0	0	0	511	536	183	506	38	0	
4	0	0	0	0	505	536	182	505	38	0	
5	0	0	0	0	507	536	182	505	38	0	
6	0	0	0	0	509	535	183	504	38	0	
7	0	0	0	0	507	536	183	508	38	0	
8	0	0	0	0	508	536	182	508	38	0	
9	0	0	0	0	505	536	182	510	38	0	
10	0	0	0	0	504	536	183	511	38	0	
11	0	0	0	0	510	536	183	512	38	0	
12	0	0	0	0	508	536	183	514	38	0	
13	0	0	0	0	511	535	183	513	38	0	
14	0	0	0	0	515	536	182	514	38	0	
15	0	0	0	0	514	539	182	512	38	0	
0	0	0	0	0	513	539	183	516	38	0	
1	0	0	0	0	508	537	183	512	38	0	
2	0	0	0	0	508	536	182	511	38	0	
3	0	0	0	0	505	536	183	508	38	0	
4	0	0	0	0	506	536	183	508	38	0	
5	0	0	0	0	506	536	182	507	38	0	
6	0	0	0	0	504	535	182	508	38	0	
7	0	0	0	0	501	536	183	505	38	0	
8	0	0	0	0	508	536	183	508	38	0	
9	0	0	0	0	509	536	182	507	38	0	
10	0	0	0	0	510	536	183	519	38	0	
11	0	0	0	0	504	534	183	510	38	0	
12	0	0	0	0	502	532	183	514	38	0	
13	0	0	0	0	516	529	183	512	38	0	
14	0	0	0	0	512	527	182	521	38	0	
15	0	0	0	0	511	527	183	513	38	0	
0	0	0	0	0	506	526	183	524	38	0	
1	0	0	0	0	512	526	183	512	38	0	
2	0	0	0	0	511	525	182	518	38	0	
3	0	0	0	0	508	526	182	510	38	0	
4	0	0	0	0	508	527	183	519	38	0	
5	0	0	0	0	507	527	183	508	38	0	
6	0	0	0	0	505	528	182	508	38	0	
7	0	0	0	0	506	527	182	508	38	0	
8	0	0	0	0	502	529	183	511	38	0	
9	0	0	0	0	506	529	183	510	38	0	
10	0	0	0	0	512	531	183	515	38	0	
11	0	0	0	0	507	533	182	518	38	0	
12	0	0	0	0	505	532	183	520	38	0	
13	0	0	0	0	510	532	183	523	38	0	
14	0	0	0	0	507	531	182	531	38	0	
15	0	0	0	0	509	531	182	527	38	0	
0	0	0	0	0	511	530	183	524	38	0	
1	0	0	0	0	509	529	183	522	38	0	
2	0	0	0	0	511	528	182	519	38	0	
3	0	0	0	0	507	527	183	516	38	0	
4	0	0	0	0	513	527	183	513	38	0	
5	0	0	0	0	509	528	183	510	38	0	
6	0	0	0	0	497	528	182	507	38	0	
7	0	0	0	0	503	528	183	505	38	0	
8	0	0	0	0	503	527	183	503	38	0	
9	0	0	0	0	502	527	183	502	38	0	
10	0	0	0	0	512	526	182	504	38	0	
11	0	0	0	0	511	527	183	504	38	0	
12	0	0	0	0	507	528	183	509	38	0	
13	0	0	0	0	505	528	183	514	38	0	
14	0	0	0	0	510	527	182	516	38	0	
15	0	0	0	0	511	526	183	529	38	0	
0	0	0	0	0	512	524	183	516	38	0	
1	0	0	0	0	513	524	182	515	38	0	
2	0	0	0	0	507	524	183	516	38	0	
3	0	0	0	0	500	522	183	515	38	0	
4	0	0	0	0	507	521	183	513	38	0	
5	0	0	0	0	519	520	183	512	38	0	
6	0	0	0	0	510	522	182	510	38	0	
7	0	0	0	0	505	522	183	508	38	0	
8	0	0	0	0	493	522	183	508	38	0	
9	0	0	0	0	504	522	182	508	38	0	
10	0	0	0	0	507	522	182	505	38	0	
11	0	0	0	0	509	523	183	505	38	0	
12	0	0	0	0	513	523	183	506	38	0	
13	0	0	0	0	503	524	182	509	38	0	
14	0	0	0	0	504	525	183	513	38	0	
15	0	0	0	0	511	525	182	516	38	0	
0	0	0	0	0	510	526	183	518	38	0	
1	0	0	0	0	513	527	183	516	38	0	
2	0	0	0	0	505	527	182	515	38	0	
3	0	0	0	0	509	526	183	513	38	0	
4	0	0	0	0	508	526	183	510	38	0	
5	0	0	0	0	507	527	183	508	38	0	
6	0	0	0	0	506	528	183	505	38	0	
7	0	0	0	0	506	529	182	505	38	0	
8	0	0	0	0	498	530	183	506	38	0	
9	0	0	0	0	507	529	183	505	38	0	
10	0	0	0	0	503	527	183	506	38	0	
11	0	0	0	0	509	526	182	506	38	0	
12	0	0	0	0	514	526	182	509	38	0	
13	0	0	0	0	508	526	183	511	38	0	
14	0	0	0	0	508	524	183	512	38	0	
15	0	0	0	0	514	522	183	513	38	0	
0	0	0	0	0	511	521	182	513	38	0	
1	0	0	0	0	514	522	183	514	38	0	
2	0	0	0	0	513	521	183	515	38	0	
3	0	0	0	0	505	521	183	514	38	0	
4	0	0	0	0	510	519	183	512	38	0	
5	0	0	0	0	506	517	182	510	38	0	
6	0	0	0	0	509	515	183	509	38	0	
7	0	0	0	0	516	515	183	509	38	0	
8	0	0	0	0	504	514	183	508	38	0	
9	0	0	0	0	503	515	183	509	38	0	
10	0	0	0	0	499	515	182	509	38	0	
11	0	0	0	0	508	514	183	510	38	0	
12	0	0	0	0	511	514	183	517	38	0	
13	0	0	0	0	507	514	182	513	38	0	
14	0	0	0	0	504	513	183	515	38	0	
15	0	0	0	0	500	512	183	517	38	0	
0	0	0	0	0	506	511	183	518	38	0	
1	0	0	0	0	517	509	182	519	38	0	
2	0	0	0	0	511	510	182	518	38	0	
3	0	0	0	0	512	511	183	517	38	0	
4	0	0	0	0	511	511	183	516	38	0	
5	0	0	0	0	505	510	183	514	38	0	
6	0	0	0	0	511	510	182	512	38	0	
7	0	0	0	0	508	510	182	512	38	0	
8	0	0	0	0	511	511	183	513	38	0	
9	0	0	0	0	508	512	183	511	38	0	
10	0	0	0	0	507	513	182	512	38	0	
11	0	0	0	0	505	512	183	512	38	0	
12	0	0	0	0	507	511	183	513	38	0	
13	0	0	0	0	510	512	183	512	38	0	
14	0	0	0	0	510	512	182	513	38	0	
15	0	0	0	0	503	511	183	515	38	0	
0	0	0	0	0	513	510	183	517	38	0	
1	0	0	0	0	512	508	183	517	38	0	
2	0	0	0	0	509	508	182	517	38	0	
3	0	0	0	0	516	508	183	518	38	0	
4	0	0	0	0	508	506	183	516	38	0	
5	0	0	0	0	509	506	183	516	38	0	
6	0	0	0	0	504	506	183	514	38	0	
7	0	0	0	0	511	507	182	516	38	0	
8	0	0	0	0	499	507	182	512	38	0	
9	0	0	0	0	499	507	183	513	38	0	
10	0	0	0	0	499	506	183	512	38	0	
11	0	0	0	0	508	507	183	521	38	0	
12	0	0	0	0	504	506	182	510	38	0	
13	0	0	0	0	506	507	183	512	38	0	
14	0	0	0	0	505	507	183	513	38	0	
15	0	0	0	0	513	506	183	516	38	0	
0	0	0	0	0	507	504	183	517	38	0	
1	0	0	0	0	509	503	182	519	38	0	
2	0	0	0	0	521	503	183	520	38	0	
3	0	0	0	0	514	502	183	519	38	0	
4	0	0	0	0	515	501	183	531	38	0	
5	0	0	0	0	511	501	182	517	38	0	
6	0	0	0	0	504	500	182	515	38	0	
7	0	0	0	0	510	500	183	513	38	0	
8	0	0	0	0	513	499	183	512	38	0	
9	0	0	0	0	504	498	183	509	38	0	
10	0	0	0	0	503	498	182	508	38	0	
11	0	0	0	0	514	499	183	505	38	0	
12	0	0	0	0	504	501	183	506	38	0	
13	0	0	0	0	508	503	183	506	38	0	
14	0	0	0	0	500	503	182	504	38	0	
15	0	0	0	0	509	503	182	505	38	0	
0	0	0	0	0	508	503	183	508	38	0	
1	0	0	0	0	510	504	183	509	38	0	
2	0	0	0	0	515	504	183	510	38	0	
3	0	0	0	0	514	505	183	510	38	0	
4	0	0	0	0	512	506	182	511	38	0	
5	0	0	0	0	511	508	183	514	38	0	
6	0	0	0	0	513	508	183	514	38	0	
7	0	0	0	0	510	507	183	513	38	0	
8	0	0	0	0	497	507	182	512	38	0	
9	0	0	0	0	511	508	182	510	38	0	
10	0	0	0	0	505	509	183	509	38	0	
11	0	0	0	0	500	510	183	508	38	0	
12	0	0	0	0	502	511	183	508	38	0	
13	0	0	0	0	511	511	183	508	38	0	
14	0	0	0	0	508	510	182	509	38	0	
15	0	0	0	0	504	511	183	510	38	0	
0	0	0	0	0	507	512	183	510	38	0	
1	0	0	0	0	504	512	183	513	38	0	
2	0	0	0	0	507	511	182	514	38	0	
3	0	0	0	0	509	511	182	516	38	0	
4	0	0	0	0	517	511	183	517	38	0	
5	0	0	0	0	515	512	183	517	38	0	
6	0	0	0	0	513	513	183	517	38	0	
7	0	0	0	0	509	513	183	514	38	0	
8	0	0	0	0	508	512	183	513	38	0	
9	0	0	0	0	507	511	182	511	38	0	
10	0	0	0	0	505	513	183	509	38	0	
11	0	0	0	0	513	514	183	507	38	0	
12	0	0	0	0	516	514	183	504	38	0	
13	0	0	0	0	502	515	182	504	38	0	
14	0	0	0	0	501	516	183	504	38	0	
15	0	0	0	0	507	515	183	507	38	0	
0	0	0	0	0	509	514	183	509	38	0	
1	0	0	0	0	503	514	182	513	38	0	
2	0	0	0	0	508	513	183	519	38	0	
3	0	0	0	0	511	513	183	527	38	0	
4	0	0	0	0	513	513	183	531	38	0	
5	0	0	0	0	506	513	182	527	38	0	
6	0	0	0	0	512	513	183	525	38	0	
7	0	0	0	0	513	513	183	522	38	0	
8	0	0	0	0	513	515	183	520	38	0	
9	0	0	0	0	505	515	183	516	38	0	
10	0	0	0	0	506	515	182	514	38	0	
11	0	0	0	0	502	516	183	510	38	0	
12	0	0	0	0	504	516	183	509	38	0	
13	0	0	0	0	505	518	183	507	38	0	
14	0	0	0	0	500	518	183	506	38	0	
15	0	0	0	0	509	518	183	507	38	0	
0	0	0	0	0	512	518	182	507	38	0	
1	0	0	0	0	512	519	183	514	38	0	
2	0	0	0	0	503	519	183	510	38	0	
3	0	0	0	0	504	518	182	512	38	0	
4	0	0	0	0	512	517	182	513	38	0	
5	0	0	0	0	512	516	183	515	38	0	
6	0	0	0	0	510	515	183	514	38	0	
7	0	0	0	0	508	515	183	515	38	0	
8	0	0	0	0	511	515	182	514	38	0	
9	0	0	0	0	509	515	183	512	38	0	
10	0	0	0	0	508	515	183	510	38	0	
11	0	0	0	0	521	515	183	507	38	0	
12	0	0	0	0	505	516	182	505	38	0	
13	0	0	0	0	509	516	183	504	38	0	
14	0	0	0	0	500	515	183	502	38	0	
15	0	0	0	0	501	515	183	502	38	0	
0	0	0	0	0	505	514	182	503	38	0	
1	0	0	0	0	510	515	183	503	38	0	
2	0	0	0	0	506	515	183	505	38	0	
3	0	0	0	0	504	514	182	504	38	0	
4	0	0	0	0	511	514	183	507	38	0	
5	0	0	0	0	513	514	183	507	38	0	
6	0	0	0	0	512	515	183	509	38	0	
7	0	0	0	0	508	515	182	510	38	0	
8	0	0	0	0	513	516	183	511	38	0	
9	0	0	0	0	512	518	183	511	38	0	
10	0	0	0	0	504	518	183	509	38	0	
11	0	0	0	0	513	518	182	507	38	0	
12	0	0	0	0	505	518	183	504	38	0	
13	0	0	0	0	508	519	183	504	38	0	
14	0	0	0	0	508	520	183	504	38	0	
15	0	0	0	0	508	520	182	507	38	0	
0	0	0	0	0	505	521	183	508	38	0	
1	0	0	0	0	504	523	183	509	38	0	
2	0	0	0	0	508	523	183	512	38	0	
3	0	0	0	0	508	524	182	515	38	0	
4	0	0	0	0	502	524	183	516	38	0	
5	0	0	0	0	513	524	183	519	38	0	
6	0	0	0	0	509	524	182	519	38	0	
7	0	0	0	0	511	524	182	519	38	0	
8	0	0	0	0	518	525	183	520	38	0	
9	0	0	0	0	507	524	183	518	38	0	
10	0	0	0	0	513	525	183	515	38	0	
11	0	0	0	0	509	527	182	513	38	0	
12	0	0	0	0	510	528	183	511	38	0	
13	0	0	0	0	514	529	183	514	38	0	
14	0	0	0	0	498	529	183	508	38	0	
15	0	0	0	0	504	530	182	508	38	0	
0	0	0	0	0	508	528	183	507	38	0	
1	0	0	0	0	503	527	183	507	38	0	
2	0	0	0	0	505	527	183	507	38	0	
3	0	0	0	0	509	528	182	508	38	0	
4	0	0	0	0	500	530	182	510	38	0	
5	0	0	0	0	509	531	183	510	38	0	
6	0	0	0	0	514	530	183	513	38	0	
7	0	0	0	0	511	529	183	512	38	0	
8	0	0	0	0	511	529	182	514	38	0	
9	0	0	0	0	513	530	183	515	38	0	
10	0	0	0	0	515	530	183	513	38	0	
11	0	0	0	0	516	530	183	510	38	0	
12	0	0	0	0	504	531	182	507	38	0	
13	0	0	0	0	510	531	183	505	38	0	
14	0	0	0	0	507	532	183	505	38	0	
15	0	0	0	0	506	532	183	504	38	0	
0	0	0	0	0	502	533	182	505	38	0	
1	0	0	0	0	502	534	183	504	38	0	
2	0	0	0	0	507	534	183	505	38	0	
3	0	0	0	0	510	535	183	507	38	0	
4	0	0	0	0	505	536	182	509	38	0	
5	0	0	0	0	509	535	183	511	38	0	
6	0	0	0	0	507	535	183	513	38	0	
7	0	0	0	0	518	534	183	515	38	0	
8	0	0	0	0	518	534	182	518	38	0	
9	0	0	0	0	512	535	183	517	38	0	
10	0	0	0	0	507	535	183	517	38	0	
11	0	0	0	0	505	536	182	516	38	0	
12	0	0	0	0	507	535	183	515	38	0	
13	0	0	0	0	502	536	183	513	38	0	
14	0	0	0	0	507	537	183	512	38	0	
15	0	0	0	0	511	537	182	509	38	0	
0	0	0	0	0	506	538	182	509	38	0	
1	0	0	0	0	510	538	183	509	38	0	
2	0	0	0	0	504	539	183	510	38	0	
3	0	0	0	0	507	539	183	510	38	0	
4	0	0	0	0	508	539	182	512	38	0	
5	0	0	0	0	499	539	183	514	38	0	
6	0	0	0	0	503	539	183	515	38	0	
7	0	0	0	0	511	539	183	514	38	0	
8	0	0	0	0	515	539	183	516	38	0	
9	0	0	0	0	513	540	182	517	38	0	
10	0	0	0	0	509	540	183	521	38	0	
11	0	0	0	0	511	539	183	518	38	0	
12	0	0	0	0	502	539	183	516	38	0	
13	0	0	0	0	512	539	182	512	38	0	
14	0	0	0	0	512	540	183	510	38	0	
15	0	0	0	0	504	542	183	511	38	0	
0	0	0	0	0	506	542	183	509	38	0	
1	0	0	0	0	507	544	182	508	38	0	
2	0	0	0	0	502	543	182	508	38	0	
3	0	0	0	0	507	544	183	508	38	0	
4	0	0	0	0	504	545	183	508	38	0	
5	0	0	0	0	512	547	183	510	38	0	
6	0	0	0	0	506	547	182	513	38	0	
7	0	0	0	0	508	546	183	515	38	0	
8	0	0	0	0	515	547	183	517	38	0	
9	0	0	0	0	511	547	182	519	38	0	
10	0	0	0	0	511	548	182	519	38	0	
11	0	0	0	0	512	548	182	519	38	0	
12	0	0	0	0	510	548	183	518	38	0	
13	0	0	0	0	504	547	183	514	38	0	
14	0	0	0	0	511	548	183	513	38	0	
15	0	0	0	0	516	547	183	510	38	0	
0	0	0	0	0	508	548	182	509	38	0	
1	0	0	0	0	504	548	182	507	38	0	
2	0	0	0	0	503	550	183	508	38	0	
3	0	0	0	0	498	550	183	508	38	0	
4	0	0	0	0	514	549	183	508	38	0	
5	0	0	0	0	504	549	183	511	38	0	
6	0	0	0	0	504	547	183	513	38	0	
7	0	0	0	0	504	545	183	515	38	0	
8	0	0	0	0	511	545	183	516	38	0	
9	0	0	0	0	523	545	182	516	38	0	
10	0	0	0	0	509	546	182	516	38	0	
11	0	0	0	0	517	546	183	515	38	0	
12	0	0	0	0	502	546	183	513	38	0	
13	0	0	0	0	505	546	183	512	38	0	
14	0	0	0	0	512	545	183	510	38	0	
15	0	0	0	0	510	548	182	509	38	0	
0	0	0	0	0	512	549	182	508	38	0	
1	0	0	0	0	493	548	182	508	38	0	
2	0	0	0	0	505	548	183	508	38	0	
3	0	0	0	0	505	548	183	511	38	0	
4	0	0	0	0	503	550	183	511	38	0	
5	0	0	0	0	506	551	183	511	38	0	
6	0	0	0	0	512	552	182	510	38	0	
7	0	0	0	0	500	553	182	512	38	0	
8	0	0	0	0	507	554	182	512	38	0	
9	0	0	0	0	508	554	183	515	38	0	
10	0	0	0	0	511	555	183	516	38	0	
11	0	0	0	0	515	555	183	519	38	0	
12	0	0	0	0	505	555	183	518	38	0	
13	0	0	0	0	511	553	183	518	38	0	
14	0	0	0	0	504	553	183	516	38	0	
15	0	0	0	0	510	553	182	515	38	0	
0	0	0	0	0	512	552	182	512	38	0	
1	0	0	0	0	511	552	183	512	38	0	
2	0	0	0	0	515	554	183	512	38	0	
3	0	0	0	0	504	554	183	511	38	0	
4	0	0	0	0	499	554	183	509	38	0	
5	0	0	0	0	508	553	182	507	38	0	
6	0	0	0	0	510	551	182	507	38	0	
7	0	0	0	0	512	550	182	507	38	0	
8	0	0	0	0	502	550	183	508	38	0	
9	0	0	0	0	506	549	183	511	38	0	
10	0	0	0	0	498	549	183	514	38	0	
11	0	0	0	0	508	548	183	515	38	0	
12	0	0	0	0	517	549	182	517	38	0	
13	0	0	0	0	516	549	182	518	38	0	
14	0	0	0	0	511	551	183	518	38	0	
15	0	0	0	0	505	551	183	516	38	0	
0	0	0	0	0	508	550	183	515	38	0	
1	0	0	0	0	509	550	183	512	38	0	
2	0	0	0	0	505	551	183	511	38	0	
3	0	0	0	0	506	552	183	511	38	0	
4	0	0	0	0	497	553	183	510	38	0	
5	0	0	0	0	498	552	183	510	38	0	
6	0	0	0	0	511	551	183	509	38	0	
7	0	0	0	0	509	550	183	515	38	0	
8	0	0	0	0	515	550	183	514	38	0	
9	0	0	0	0	508	548	182	518	38	0	
10	0	0	0	0	508	546	182	519	38	0	
11	0	0	0	0	509	545	183	519	38	0	
12	0	0	0	0	509	545	183	520	38	0	
13	0	0	0	0	513	546	183	519	38	0	
14	0	0	0	0	510	546	183	517	38	0	
15	0	0	0	0	503	547	183	515	38	0	
0	0	0	0	0	506	547	182	511	38	0	
1	0	0	0	0	511	548	182	511	38	0	
2	0	0	0	0	512	549	183	509	38	0	
3	0	0	0	0	506	550	183	508	38	0	
4	0	0	0	0	508	550	183	505	38	0	
5	0	0	0	0	504	548	183	505	38	0	
6	0	0	0	0	504	548	183	505	38	0	
7	0	0	0	0	511	548	182	507	38	0	
8	0	0	0	0	504	547	182	508	38	0	
9	0	0	0	0	508	547	182	511	38	0	
10	0	0	0	0	511	547	182	516	38	0	
11	0	0	0	0	507	548	183	524	38	0	
12	0	0	0	0	510	547	183	525	38	0	
13	0	0	0	0	505	547	183	524	38	0	
14	0	0	0	0	509	547	183	522	38	0	
15	0	0	0	0	510	546	183	520	38	0	
0	0	0	0	0	513	546	183	520	38	0	
1	0	0	0	0	515	547	182	515	38	0	
2	0	0	0	0	509	548	182	513	38	0	
3	0	0	0	0	511	549	182	511	38	0	
4	0	0	0	0	506	550	182	508	38	0	
5	0	0	0	0	507	549	183	507	38	0	
6	0	0	0	0	504	547	183	506	38	0	
7	0	0	0	0	501	546	183	505	38	0	
8	0	0	0	0	504	545	183	508	38	0	
9	0	0	0	0	502	546	183	510	38	0	
10	0	0	0	0	508	547	183	516	38	0	
11	0	0	0	0	502	547	182	519	38	0	
12	0	0	0	0	515	547	182	519	38	0	
13	0	0	0	0	509	547	182	519	38	0	
14	0	0	0	0	515	547	182	517	38	0	
15	0	0	0	0	515	547	183	517	38	0	
0	0	0	0	0	512	545	183	517	38	0	
1	0	0	0	0	507	545	183	516	38	0	
2	0	0	0	0	512	544	182	513	38	0	
3	0	0	0	0	508	542	182	511	38	0	
4	0	0	0	0	499	542	183	510	38	0	
5	0	0	0	0	499	541	183	507	38	0	
6	0	0	0	0	504	540	183	507	38	0	
7	0	0	0	0	506	541	183	506	38	0	
8	0	0	0	0	512	542	183	507	38	0	
9	0	0	0	0	508	542	183	510	38	0	
10	0	0	0	0	510	543	183	511	38	0	
11	0	0	0	0	503	543	183	513	38	0	
12	0	0	0	0	508	543	182	514	38	0	
13	0	0	0	0	513	542	182	515	38	0	
14	0	0	0	0	511	541	183	516	38	0	
15	0	0	0	0	511	542	183	516	38	0	
0	0	0	0	0	505	543	183	513	38	0	
1	0	0	0	0	505	545	182	513	38	0	
2	0	0	0	0	505	544	182	511	38	0	
3	0	0	0	0	519	544	182	511	38	0	
4	0	0	0	0	511	544	183	509	38	0	
5	0	0	0	0	505	545	183	508	38	0	
6	0	0	0	0	503	545	183	507	38	0	
7	0	0	0	0	500	543	183	505	38	0	
8	0	0	0	0	504	543	183	507	38	0	
9	0	0	0	0	510	543	182	507	38	0	
10	0	0	0	0	508	543	182	510	38	0	
11	0	0	0	0	510	543	183	514	38	0	
12	0	0	0	0	503	542	183	515	38	0	
13	0	0	0	0	518	542	183	515	38	0	
14	0	0	0	0	515	542	183	516	38	0	
15	0	0	0	0	516	543	182	516	38	0	
0	0	0	0	0	519	543	182	522	38	0	
1	0	0	0	0	509	543	182	514	38	0	
2	0	0	0	0	505	545	183	512	38	0	
3	0	0	0	0	510	544	183	508	38	0	
4	0	0	0	0	512	544	183	509	38	0	
5	0	0	0	0	510	544	182	508	38	0	
6	0	0	0	0	497	544	183	507	38	0	
7	0	0	0	0	500	545	183	508	38	0	
8	0	0	0	0	507	544	183	506	38	0	
9	0	0	0	0	497	543	182	504	38	0	
10	0	0	0	0	498	543	183	504	38	0	
11	0	0	0	0	502	543	183	506	38	0	
12	0	0	0	0	507	541	183	507	38	0	
13	0	0	0	0	512	540	182	511	38	0	
14	0	0	0	0	515	538	183	510	38	0	
15	0	0	0	0	517	538	183	510	38	0	
0	0	0	0	0	518	539	183	511	38	0	
1	0	0	0	0	512	539	182	511	38	0	
2	0	0	0	0	515	539	183	511	38	0	
3	0	0	0	0	508	539	183	511	38	0	
4	0	0	0	0	502	540	182	510	38	0	
5	0	0	0	0	501	540	182	510	38	0	
6	0	0	0	0	508	541	183	507	38	0	
7	0	0	0	0	503	540	183	506	38	0	
8	0	0	0	0	512	539	182	505	38	0	
9	0	0	0	0	505	538	183	505	38	0	
10	0	0	0	0	507	539	183	504	38	0	
11	0	0	0	0	509	540	183	504	38	0	
12	0	0	0	0	511	541	182	505	38	0	
13	0	0	0	0	499	541	182	506	38	0	
14	0	0	0	0	510	540	182	508	38	0	
15	0	0	0	0	516	540	183	509	38	0	
0	0	0	0	0	515	540	183	510	38	0	
1	0	0	0	0	511	540	183	509	38	0	
2	0	0	0	0	510	539	183	511	38	0	
3	0	0	0	0	509	539	182	523	38	0	
4	0	0	0	0	508	539	183	510	38	0	
5	0	0	0	0	515	540	183	507	38	0	
6	0	0	0	0	508	541	183	506	38	0	
7	0	0	0	0	503	543	183	504	38	0	
8	0	0	0	0	502	543	183	513	38	0	
9	0	0	0	0	509	542	182	504	38	0	
10	0	0	0	0	502	543	183	506	38	0	
11	0	0	0	0	508	542	183	507	38	0	
12	0	0	0	0	515	542	182	508	38	0	
13	0	0	0	0	505	542	183	510	38	0	
14	0	0	0	0	505	541	183	511	38	0	
15	0	0	0	0	511	539	183	510	38	0	
0	0	0	0	0	506	537	182	510	38	0	
1	0	0	0	0	510	538	183	510	38	0	
2	0	0	0	0	509	540	183	512	38	0	
3	0	0	0	0	510	541	183	512	38	0	
4	0	0	0	0	515	542	182	512	38	0	
5	0	0	0	0	507	542	183	512	38	0	
6	0	0	0	0	511	541	183	509	38	0	
7	0	0	0	0	506	540	183	509	38	0	
8	0	0	0	0	510	540	183	509	38	0	
9	0	0	0	0	496	540	182	508	38	0	
10	0	0	0	0	498	539	183	507	38	0	
11	0	0	0	0	507	539	183	508	38	0	
12	0	0	0	0	500	540	183	510	38	0	
13	0	0	0	0	516	540	183	511	38	0	
14	0	0	0	0	506	541	182	515	38	0	
15	0	0	0	0	513	544	183	517	38	0	
0	0	0	0	0	512	547	183	519	38	0	
1	0	0	0	0	514	550	183	519	38	0	
2	0	0	0	0	518	551	182	518	38	0	
3	0	0	0	0	516	552	182	516	38	0	
4	0	0	0	0	512	552	183	514	38	0	
5	0	0	0	0	506	552	183	512	38	0	
6	0	0	0	0	505	551	182	510	38	0	
7	0	0	0	0	507	551	182	509	38	0	
8	0	0	0	0	506	551	183	517	38	0	
9	0	0	0	0	513	551	183	507	38	0	
10	0	0	0	0	504	551	183	506	38	0	
11	0	0	0	0	503	551	182	508	38	0	
12	0	0	0	0	507	550	183	509	38	0	
13	0	0	0	0	504	550	183	512	38	0	
14	0	0	0	0	505	550	183	515	38	0	
15	0	0	0	0	504	548	182	516	38	0	
0	0	0	0	0	508	547	182	518	38	0	
1	0	0	0	0	520	545	183	519	38	0	
2	0	0	0	0	503	542	183	521	38	0	
3	0	0	0	0	513	541	182	519	38	0	
4	0	0	0	0	510	541	183	519	38	0	
5	0	0	0	0	503	540	183	514	38	0	
6	0	0	0	0	506	539	183	510	38	0	
7	0	0	0	0	515	539	182	510	38	0	
8	0	0	0	0	506	539	183	507	38	0	
9	0	0	0	0	506	540	183	506	38	0	
10	0	0	0	0	503	540	183	506	38	0	
11	0	0	0	0	507	539	182	505	38	0	
12	0	0	0	0	502	539	183	506	38	0	
13	0	0	0	0	505	538	183	507	38	0	
14	0	0	0	0	513	538	182	509	38	0	
15	0	0	0	0	507	536	183	511	38	0	
0	0	0	0	0	512	535	183	512	38	0	
1	0	0	0	0	510	534	182	514	38	0	
2	0	0	0	0	503	534	183	515	38	0	
3	0	0	0	0	508	534	183	515	38	0	
4	0	0	0	0	516	534	183	512	38	0	
5	0	0	0	0	510	533	182	512	38	0	
6	0	0	0	0	510	534	183	510	38	0	
7	0	0	0	0	509	534	183	508	38	0	
8	0	0	0	0	509	534	182	507	38	0	
9	0	0	0	0	512	534	183	506	38	0	
10	0	0	0	0	509	533	183	506	38	0	
11	0	0	0	0	507	532	183	508	38	0	
12	0	0	0	0	503	532	183	507	38	0	
13	0	0	0	0	506	532	182	514	38	0	
14	0	0	0	0	508	531	183	511	38	0	
15	0	0	0	0	518	530	183	513	38	0	
0	0	0	0	0	505	529	183	516	38	0	
1	0	0	0	0	502	528	183	517	38	0	
2	0	0	0	0	514	527	183	520	38	0	
3	0	0	0	0	515	526	183	517	38	0	
4	0	0	0	0	511	525	182	516	38	0	
5	0	0	0	0	501	524	183	517	38	0	
6	0	0	0	0	506	525	183	515	38	0	
7	0	0	0	0	512	526	183	514	38	0	
8	0	0	0	0	510	526	182	513	38	0	
9	0	0	0	0	515	527	183	512	38	0	
10	0	0	0	0	510	528	183	518	38	0	
11	0	0	0	0	500	529	183	509	38	0	
12	0	0	0	0	505	529	182	506	38	0	
13	0	0	0	0	504	529	183	505	38	0	
14	0	0	0	0	501	527	183	504	38	0	
15	0	0	0	0	509	526	182	504	38	0	
0	0	0	0	0	511	526	183	506	38	0	
1	0	0	0	0	500	526	183	508	38	0	
2	0	0	0	0	508	527	183	511	38	0	
3	0	0	0	0	516	526	182	511	38	0	
4	0	0	0	0	508	526	183	512	38	0	
5	0	0	0	0	517	527	183	524	38	0	
6	0	0	0	0	519	528	183	512	38	0	
7	0	0	0	0	508	528	182	510	38	0	
8	0	0	0	0	506	527	183	508	38	0	
9	0	0	0	0	512	528	183	504	38	0	
10	0	0	0	0	501	529	183	513	38	0	
11	0	0	0	0	503	530	182	503	38	0	
12	0	0	0	0	509	531	183	500	38	0	
13	0	0	0	0	509	533	183	500	38	0	
14	0	0	0	0	504	534	182	501	38	0	
15	0	0	0	0	505	535	183	504	38	0	
0	0	0	0	0	499	535	183	504	38	0	
1	0	0	0	0	511	534	183	505	38	0	
2	0	0	0	0	507	531	182	510	38	0	
3	0	0	0	0	511	530	183	512	38	0	
4	0	0	0	0	509	528	183	515	38	0	
5	0	0	0	0	509	527	183	519	38	0	
6	0	0	0	0	516	527	182	519	38	0	
7	0	0	0	0	512	526	183	519	38	0	
8	0	0	0	0	506	526	183	518	38	0	
9	0	0	0	0	509	526	182	515	38	0	
10	0	0	0	0	517	527	183	513	38	0	
11	0	0	0	0	506	527	183	510	38	0	
12	0	0	0	0	501	527	183	507	38	0	
13	0	0	0	0	501	528	183	508	38	0	
14	0	0	0	0	502	527	183	507	38	0	
15	0	0	0	0	503	527	183	508	38	0	
0	0	0	0	0	496	525	183	508	38	0	
1	0	0	0	0	509	524	182	511	38	0	
2	0	0	0	0	513	523	183	513	38	0	
3	0	0	0	0	507	522	183	514	38	0	
4	0	0	0	0	518	522	183	516	38	0	
5	0	0	0	0	511	522	183	517	38	0	
6	0	0	0	0	509	521	183	516	38	0	
7	0	0	0	0	511	521	183	516	38	0	
8	0	0	0	0	515	520	183	514	38	0	
9	0	0	0	0	504	519	183	511	38	0	
10	0	0	0	0	508	519	183	509	38	0	
11	0	0	0	0	516	519	183	505	38	0	
12	0	0	0	0	506	520	183	505	38	0	
13	0	0	0	0	504	520	183	506	38	0	
14	0	0	0	0	501	519	183	518	38	0	
15	0	0	0	0	503	520	183	507	38	0	
0	0	0	0	0	505	519	182	508	38	0	
1	0	0	0	0	511	519	183	511	38	0	
2	0	0	0	0	509	518	183	512	38	0	
3	0	0	0	0	511	518	183	513	38	0	
4	0	0	0	0	513	516	182	513	38	0	
5	0	0	0	0	511	515	183	510	38	0	
6	0	0	0	0	511	514	183	511	38	0	
7	0	0	0	0	507	514	183	512	38	0	
8	0	0	0	0	504	513	183	515	38	0	
9	0	0	0	0	506	513	183	513	38	0	
10	0	0	0	0	512	512	183	512	38	0	
11	0	0	0	0	509	511	183	509	38	0	
12	0	0	0	0	510	511	183	505	38	0	
13	0	0	0	0	506	511	183	504	38	0	
14	0	0	0	0	500	511	183	502	38	0	
15	0	0	0	0	513	511	183	503	38	0	
0	0	0	0	0	504	511	183	504	38	0	
1	0	0	0	0	506	510	183	505	38	0	
2	0	0	0	0	506	509	183	507	38	0	
3	0	0	0	0	505	509	183	508	38	0	
4	0	0	0	0	502	509	182	509	38	0	
5	0	0	0	0	509	508	183	512	38	0	
6	0	0	0	0	504	508	183	513	38	0	
7	0	0	0	0	513	508	183	516	38	0	
8	0	0	0	0	518	509	183	516	38	0	
9	0	0	0	0	512	508	183	515	38	0	
10	0	0	0	0	504	508	183	515	38	0	
11	0	0	0	0	509	507	183	513	38	0	
12	0	0	0	0	509	508	183	511	38	0	
13	0	0	0	0	506	509	183	509	38	0	
14	0	0	0	0	504	509	183	507	38	0	
15	0	0	0	0	508	511	183	507	38	0	
0	0	0	0	0	501	510	183	505	38	0	
1	0	0	0	0	500	511	183	505	38	0	
2	0	0	0	0	512	511	183	507	38	0	
3	0	0	0	0	511	511	183	510	38	0	
4	0	0	0	0	504	510	183	514	38	0	
5	0	0	0	0	511	509	183	515	38	0	
6	0	0	0	0	512	507	183	517	38	0	
7	0	0	0	0	515	506	183	519	38	0	
8	0	0	0	0	512	505	183	517	38	0	
9	0	0	0	0	518	507	183	515	38	0	
10	0	0	0	0	510	507	183	515	38	0	
11	0	0	0	0	500	506	183	512	38	0	
12	0	0	0	0	505	507	183	513	38	0	
13	0	0	0	0	511	507	183	512	38	0	
14	0	0	0	0	508	508	183	519	38	0	
15	0	0	0	0	506	509	183	510	38	0	
0	0	0	0	0	506	509	183	510	38	0	
1	0	0	0	0	504	510	183	510	38	0	
2	0	0	0	0	510	509	183	511	38	0	
3	0	0	0	0	509	509	182	510	38	0	
4	0	0	0	0	513	510	182	511	38	0	
5	0	0	0	0	505	511	183	512	38	0	
6	0	0	0	0	500	511	183	512	38	0	
7	0	0	0	0	512	510	183	513	38	0	
8	0	0	0	0	516	510	183	514	38	0	
9	0	0	0	0	515	512	183	516	38	0	
10	0	0	0	0	512	512	183	515	38	0	
11	0	0	0	0	506	512	183	514	38	0	
12	0	0	0	0	509	512	183	512	38	0	
13	0	0	0	0	504	513	182	513	38	0	
14	0	0	0	0	504	514	183	512	38	0	
15	0	0	0	0	505	515	183	512	38	0	
0	0	0	0	0	508	516	183	512	38	0	
1	0	0	0	0	509	515	183	513	38	0	
2	0	0	0	0	505	515	183	514	38	0	
3	0	0	0	0	508	515	183	517	38	0	
4	0	0	0	0	506	515	183	520	38	0	
5	0	0	0	0	507	515	183	520	38	0	
6	0	0	0	0	510	514	183	522	38	0	
7	0	0	0	0	513	513	183	524	38	0	
8	0	0	0	0	512	513	183	523	38	0	
9	0	0	0	0	514	512	183	523	38	0	
10	0	0	0	0	508	513	183	523	38	0	
11	0	0	0	0	513	515	183	519	38	0	
12	0	0	0	0	515	517	183	516	38	0	
13	0	0	0	0	511	518	183	513	38	0	
14	0	0	0	0	508	521	183	511	38	0	
15	0	0	0	0	502	524	183	510	38	0	
0	0	0	0	0	498	526	183	510	38	0	
1	0	0	0	0	504	528	183	511	38	0	
2	0	0	0	0	504	535	183	510	38	0	
3	0	0	0	0	499	541	182	511	38	0	
4	0	0	0	0	508	545	183	512	38	0	
5	0	0	0	0	518	547	183	511	38	0	
6	0	0	0	0	505	548	183	512	38	0	
7	0	0	0	0	508	549	183	513	38	0	
8	0	0	0	0	512	550	183	515	38	0	
9	0	0	0	0	509	550	183	517	38	0	
10	0	0	0	0	510	549	182	515	38	0	
11	0	0	0	0	511	549	183	515	38	0	
12	0	0	0	0	511	548	183	514	38	0	
13	0	0	0	0	513	548	183	513	38	0	
14	0	0	0	0	510	548	182	511	38	0	
15	0	0	0	0	507	547	183	510	38	0	
0	0	0	0	0	512	549	183	511	38	0	
1	0	0	0	0	503	550	183	508	38	0	
2	0	0	0	0	503	550	182	507	38	0	
3	0	0	0	0	502	548	183	504	38	0	
4	0	0	0	0	507	547	183	505	38	0	
5	0	0	0	0	513	548	183	507	38	0	
6	0	0	0	0	511	548	182	510	38	0	
7	0	0	0	0	506	548	183	511	38	0	
8	0	0	0	0	508	548	183	511	38	0	
9	0	0	0	0	514	548	182	510	38	0	
10	0	0	0	0	512	547	183	511	38	0	
11	0	0	0	0	517	548	183	510	38	0	
12	0	0	0	0	505	548	183	512	38	0	
13	0	0	0	0	506	548	182	509	38	0	
14	0	0	0	0	509	548	183	506	38	0	
15	0	0	0	0	513	547	183	506	38	0	
0	0	0	0	0	510	547	182	505	38	0	
1	0	0	0	0	501	546	183	505	38	0	
2	0	0	0	0	504	545	183	504	38	0	
3	0	0	0	0	499	543	183	504	38	0	
4	0	0	0	0	506	542	183	505	38	0	
5	0	0	0	0	508	541	183	506	38	0	
6	0	0	0	0	512	539	183	507	38	0	
7	0	0	0	0	508	538	183	508	38	0	
8	0	0	0	0	503	536	183	511	38	0	
9	0	0	0	0	513	533	182	513	38	0	
10	0	0	0	0	515	530	183	514	38	0	
11	0	0	0	0	518	527	183	515	38	0	
12	0	0	0	0	510	525	183	516	38	0	
13	0	0	0	0	506	524	183	516	38	0	
14	0	0	0	0	509	524	183	513	38	0	
15	0	0	0	0	505	522	183	511	38	0	
0	0	0	0	0	513	521	183	508	38	0	
1	0	0	0	0	510	522	182	507	38	0	
2	0	0	0	0	502	522	183	504	38	0	
3	0	0	0	0	505	521	183	507	38	0	
4	0	0	0	0	499	521	183	506	38	0	
5	0	0	0	0	501	520	183	508	38	0	
6	0	0	0	0	509	519	183	511	38	0	
7	0	0	0	0	515	519	183	512	38	0	
8	0	0	0	0	510	520	183	513	38	0	
9	0	0	0	0	511	520	183	513	38	0	
10	0	0	0	0	508	520	183	513	38	0	
11	0	0	0	0	509	520	183	513	38	0	
12	0	0	0	0	513	520	183	515	38	0	
13	0	0	0	0	509	520	182	512	38	0	
14	0	0	0	0	505	520	183	512	38	0	
15	0	0	0	0	507	519	183	510	38	0	
0	0	0	0	0	511	516	183	509	38	0	
1	0	0	0	0	515	516	182	506	38	0	
2	0	0	0	0	507	517	183	506	38	0	
3	0	0	0	0	504	519	183	505	38	0	
4	0	0	0	0	496	519	183	504	38	0	
5	0	0	0	0	504	519	183	503	38	0	
6	0	0	0	0	510	519	183	503	38	0	
7	0	0	0	0	504	519	183	504	38	0	
8	0	0	0	0	502	520	183	506	38	0	
9	0	0	0	0	506	521	182	508	38	0	
10	0	0	0	0	512	521	183	511	38	0	
11	0	0	0	0	520	521	183	513	38	0	
12	0	0	0	0	514	523	183	516	38	0	
13	0	0	0	0	510	523	183	516	38	0	
14	0	0	0	0	511	525	183	515	38	0	
15	0	0	0	0	507	526	183	516	38	0	
0	0	0	0	0	509	526	183	514	38	0	
1	0	0	0	0	510	527	183	512	38	0	
2	0	0	0	0	511	528	183	510	38	0	
3	0	0	0	0	504	530	183	508	38	0	
4	0	0	0	0	504	530	183	507	38	0	
5	0	0	0	0	505	530	183	506	38	0	
6	0	0	0	0	504	530	183	507	38	0	
7	0	0	0	0	506	529	182	508	38	0	
8	0	0	0	0	508	529	183	509	38	0	
9	0	0	0	0	514	528	183	511	38	0	
10	0	0	0	0	504	527	183	512	38	0	
11	0	0	0	0	516	526	183	513	38	0	
12	0	0	0	0	508	526	183	515	38	0	
13	0	0	0	0	510	526	183	516	38	0	
14	0	0	0	0	515	527	183	515	38	0	
15	0	0	0	0	514	526	182	515	38	0	
0	0	0	0	0	508	524	183	513	38	0	
1	0	0	0	0	501	521	183	512	38	0	
2	0	0	0	0	511	520	183	510	38	0	
3	0	0	0	0	506	519	183	510	38	0	
4	0	0	0	0	503	519	183	511	38	0	
5	0	0	0	0	503	519	183	508	38	0	
6	0	0	0	0	501	518	183	509	38	0	
7	0	0	0	0	507	518	183	508	38	0	
8	0	0	0	0	504	518	183	510	38	0	
9	0	0	0	0	511	519	183	511	38	0	
10	0	0	0	0	503	518	183	513	38	0	
11	0	0	0	0	507	517	183	516	38	0	
12	0	0	0	0	518	515	183	520	38	0	
13	0	0	0	0	516	514	183	522	38	0	
14	0	0	0	0	516	513	183	521	38	0	
15	0	0	0	0	517	514	183	521	38	0	
0	0	0	0	0	508	513	182	518	38	0	
1	0	0	0	0	511	513	183	522	38	0	
2	0	0	0	0	504	512	183	512	38	0	
3	0	0	0	0	514	512	183	511	38	0	
4	0	0	0	0	509	511	183	509	38	0	
5	0	0	0	0	506	509	183	508	38	0	
6	0	0	0	0	500	509	183	507	38	0	
7	0	0	0	0	503	508	183	507	38	0	
8	0	0	0	0	507	505	183	508	38	0	
9	0	0	0	0	506	504	183	510	38	0	
10	0	0	0	0	508	504	183	513	38	0	
11	0	0	0	0	504	505	183	515	38	0	
12	0	0	0	0	510	505	183	517	38	0	
13	0	0	0	0	512	504	183	518	38	0	
14	0	0	0	0	507	504	183	518	38	0	
15	0	0	0	0	507	503	183	519	38	0	
0	0	0	0	0	513	502	183	516	38	0	
1	0	0	0	0	510	502	183	515	38	0	
2	0	0	0	0	505	501	183	519	38	0	
3	0	0	0	0	511	502	184	511	38	0	
4	0	0	0	0	502	504	183	510	38	0	
5	0	0	0	0	505	505	183	508	38	0	
6	0	0	0	0	506	506	183	508	38	0	
7	0	0	0	0	505	506	183	508	38	0	
8	0	0	0	0	498	505	183	508	38	0	
9	0	0	0	0	506	505	183	508	38	0	
10	0	0	0	0	517	504	183	509	38	0	
11	0	0	0	0	510	504	183	511	38	0	
12	0	0	0	0	506	503	183	512	38	0	
13	0	0	0	0	510	503	183	513	38	0	
14	0	0	0	0	505	503	183	514	38	0	
15	0	0	0	0	513	502	183	515	38	0	
0	0	0	0	0	517	501	184	517	38	0	
1	0	0	0	0	512	501	183	517	38	0	
2	0	0	0	0	502	503	183	517	38	0	
3	0	0	0	0	508	503	183	512	38	0	
4	0	0	0	0	505	503	183	510	38	0	
5	0	0	0	0	514	503	184	508	38	0	
6	0	0	0	0	504	502	182	508	38	0	
7	0	0	0	0	507	502	183	509	38	0	
8	0	0	0	0	500	500	183	509	38	0	
9	0	0	0	0	512	498	183	510	38	0	
10	0	0	0	0	507	498	183	512	38	0	
11	0	0	0	0	507	498	183	514	38	0	
12	0	0	0	0	504	499	184	515	38	0	
13	0	0	0	0	508	500	183	524	38	0	
14	0	0	0	0	513	500	183	517	38	0	
15	0	0	0	0	510	499	183	516	38	0	
0	0	0	0	0	519	497	184	515	38	0	
1	0	0	0	0	513	496	183	516	38	0	
2	0	0	0	0	505	496	183	516	38	0	
3	0	0	0	0	510	496	183	515	38	0	
4	0	0	0	0	509	498	183	512	38	0	
5	0	0	0	0	505	498	183	511	38	0	
6	0	0	0	0	509	499	183	508	38	0	
7	0	0	0	0	501	499	183	507	38	0	
8	0	0	0	0	501	499	183	504	38	0	
9	0	0	0	0	507	499	183	504	38	0	
10	0	0	0	0	507	498	183	505	38	0	
11	0	0	0	0	511	498	183	507	38	0	
12	0	0	0	0	506	497	183	509	38	0	
13	0	0	0	0	511	498	183	517	38	0	
14	0	0	0	0	509	499	184	515	38	0	
15	0	0	0	0	517	499	183	527	38	0	
0	0	0	0	0	511	500	183	521	38	0	
1	0	0	0	0	512	501	183	521	38	0	
2	0	0	0	0	512	503	184	521	38	0	
3	0	0	0	0	507	504	183	521	38	0	
4	0	0	0	0	508	505	183	517	38	0	
5	0	0	0	0	511	509	183	516	38	0	
6	0	0	0	0	509	512	183	514	38	0	
7	0	0	0	0	504	514	183	513	38	0	
8	0	0	0	0	502	515	183	510	38	0	
9	0	0	0	0	503	517	183	509	38	0	
10	0	0	0	0	506	519	183	508	38	0	
11	0	0	0	0	502	519	183	509	38	0	
12	0	0	0	0	509	519	183	508	38	0	
13	0	0	0	0	513	519	183	510	38	0	
14	0	0	0	0	509	519	183	511	38	0	
15	0	0	0	0	506	520	182	512	38	0	
0	0	0	0	0	512	522	183	511	38	0	
1	0	0	0	0	519	524	183	512	38	0	
2	0	0	0	0	515	525	183	512	38	0	
3	0	0	0	0	509	527	182	512	38	0	
4	0	0	0	0	511	528	183	510	38	0	
5	0	0	0	0	510	529	183	507	38	0	
6	0	0	0	0	509	533	183	505	38	0	
7	0	0	0	0	508	536	183	503	38	0	
8	0	0	0	0	504	540	183	502	38	0	
9	0	0	0	0	504	543	183	504	38	0	
10	0	0	0	0	502	544	182	504	38	0	
11	0	0	0	0	507	546	183	506	38	0	
12	0	0	0	0	510	548	183	507	38	0	
13	0	0	0	0	509	550	183	509	38	0	
14	0	0	0	0	508	551	182	511	38	0	
15	0	0	0	0	505	550	183	512	38	0	
0	0	0	0	0	509	546	183	514	38	0	
1	0	0	0	0	514	542	182	516	38	0	
2	0	0	0	0	516	536	183	517	38	0	
3	0	0	0	0	512	531	183	518	38	0	
4	0	0	0	0	502	527	183	517	38	0	
5	0	0	0	0	508	524	183	517	38	0	
6	0	0	0	0	507	520	183	514	38	0	
7	0	0	0	0	508	515	183	514	38	0	
8	0	0	0	0	509	511	184	513	38	0	
9	0	0	0	0	504	506	183	511	38	0	
10	0	0	0	0	499	503	183	509	38	0	
11	0	0	0	0	503	499	183	508	38	0	
12	0	0	0	0	504	495	183	509	38	0	
13	0	0	0	0	508	492	183	512	38	0	
14	0	0	0	0	505	489	183	512	38	0	
15	0	0	0	0	506	484	183	515	38	0	
0	0	0	0	0	509	480	183	518	38	0	
1	0	0	0	0	513	475	183	518	38	0	
2	0	0	0	0	518	472	183	519	38	0	
3	0	0	0	0	516	471	183	519	38	0	
4	0	0	0	0	510	469	183	517	38	0	
5	0	0	0	0	508	467	183	512	38	0	
6	0	0	0	0	506	464	183	511	38	0	
7	0	0	0	0	511	464	184	508	38	0	
8	0	0	0	0	508	464	184	507	38	0	
9	0	0	0	0	508	465	183	508	38	0	
10	0	0	0	0	505	465	183	508	38	0	
11	0	0	0	0	504	464	183	510	38	0	
12	0	0	0	0	506	462	184	511	38	0	
13	0	0	0	0	504	462	183	510	38	0	
14	0	0	0	0	510	462	183	510	38	0	
15	0	0	0	0	506	463	184	511	38	0	
0	0	0	0	0	508	466	184	514	38	0	
1	0	0	0	0	500	470	183	517	38	0	
2	0	0	0	0	511	474	183	518	38	0	
3	0	0	0	0	513	479	183	521	38	0	
4	0	0	0	0	506	485	184	523	38	0	
5	0	0	0	0	510	490	183	520	38	0	
6	0	0	0	0	503	495	183	519	38	0	
7	0	0	0	0	510	499	183	517	38	0	
8	0	0	0	0	518	504	184	515	38	0	
9	0	0	0	0	504	508	183	511	38	0	
10	0	0	0	0	507	513	183	509	38	0	
11	0	0	0	0	504	518	183	508	38	0	
12	0	0	0	0	506	521	183	507	38	0	
13	0	0	0	0	511	524	183	507	38	0	
14	0	0	0	0	499	527	183	507	38	0	
15	0	0	0	0	506	528	183	510	38	0	
0	0	0	0	0	511	531	183	514	38	0	
1	0	0	0	0	511	532	182	516	38	0	
2	0	0	0	0	509	533	183	517	38	0	
3	0	0	0	0	505	534	183	518	38	0	
4	0	0	0	0	516	535	183	518	38	0	
5	0	0	0	0	513	536	183	515	38	0	
6	0	0	0	0	511	537	183	514	38	0	
7	0	0	0	0	510	537	183	514	38	0	
8	0	0	0	0	508	538	183	513	38	0	
9	0	0	0	0	500	539	183	511	38	0	
10	0	0	0	0	506	540	183	511	38	0	
11	0	0	0	0	507	540	183	510	38	0	
12	0	0	0	0	506	540	182	511	38	0	
13	0	0	0	0	498	540	183	513	38	0	
14	0	0	0	0	510	542	183	510	38	0	
15	0	0	0	0	513	544	183	512	38	0	
0	0	0	0	0	508	544	182	514	38	0	
1	0	0	0	0	503	543	183	516	38	0	
2	0	0	0	0	507	542	183	517	38	0	
3	0	0	0	0	504	540	183	517	38	0	
4	0	0	0	0	510	539	182	515	38	0	
5	0	0	0	0	515	540	182	516	38	0	
6	0	0	0	0	508	542	183	526	38	0	
7	0	0	0	0	502	543	183	513	38	0	
8	0	0	0	0	513	543	182	512	38	0	
9	0	0	0	0	513	543	183	510	38	0	
10	0	0	0	0	516	546	183	509	38	0	
11	0	0	0	0	508	547	183	507	38	0	
