# OpenSignals Text File Format. Version 1
# {"98:D3:B1:FD:3D:90": {"position": 0, "device": "bitalino_rev", "device name": "98:D3:B1:FD:3D:90", "device connection": "/dev/tty.BITalino-DevB", "sampling rate": 1000, "resolution": [4, 1, 1, 1, 1, 10, 10, 10, 10, 6, 6], "firmware version": 1281, "comments": "", "keywords": "", "mode": 0, "sync interval": 2, "date": "2022-4-6", "time": "21:45:55.836", "channels": [1, 2, 3, 4, 5, 6], "sensor": ["RAW", "ECGBIT", "EDABITREV", "RAW", "RAW", "RAW"], "label": ["A1", "A2", "A3", "A4", "A5", "A6"], "column": ["nSeq", "I1", "I2", "O1", "O2", "A1", "A2", "A3", "A4", "A5", "A6"], "special": [{}, {}, {}, {}, {}, {}], "digital IO": [0, 0, 1, 1]}}
# EndOfHeader
0	0	0	0	0	518	497	182	509	38	0	
1	0	0	0	0	516	498	182	511	38	0	
2	0	0	0	0	514	502	182	511	38	0	
3	0	0	0	0	520	508	182	512	38	0	
4	0	0	0	0	511	513	181	513	38	0	
5	0	0	0	0	512	519	181	512	38	0	
6	0	0	0	0	502	522	181	514	38	0	
7	0	0	0	0	506	525	182	515	38	0	
8	0	0	0	0	504	527	181	518	38	0	
9	0	0	0	0	504	527	181	519	38	0	
10	0	0	0	0	500	524	182	518	38	0	
11	0	0	0	0	493	519	182	517	38	0	
12	0	0	0	0	504	512	181	515	38	0	
13	0	0	0	0	508	508	181	511	38	0	
14	0	0	0	0	510	503	182	508	38	0	
15	0	0	0	0	510	499	182	506	38	0	
0	0	0	0	0	515	496	181	506	38	0	
1	0	0	0	0	521	496	182	506	38	0	
2	0	0	0	0	525	498	182	508	38	0	
3	0	0	0	0	515	500	182	511	38	0	
4	0	0	0	0	510	507	181	513	38	0	
5	0	0	0	0	505	513	182	516	38	0	
6	0	0	0	0	506	518	181	518	38	0	
7	0	0	0	0	504	521	182	520	38	0	
8	0	0	0	0	508	524	181	521	38	0	
9	0	0	0	0	499	525	181	520	38	0	
10	0	0	0	0	505	524	182	519	38	0	
11	0	0	0	0	503	520	182	518	38	0	
12	0	0	0	0	504	515	181	516	38	0	
13	0	0	0	0	500	509	181	513	38	0	
14	0	0	0	0	506	504	182	508	38	0	
15	0	0	0	0	511	499	182	506	38	0	
0	0	0	0	0	515	497	181	503	38	0	
1	0	0	0	0	515	495	181	503	38	0	
2	0	0	0	0	512	494	182	504	38	0	
3	0	0	0	0	512	496	182	504	38	0	
4	0	0	0	0	515	501	181	508	38	0	
5	0	0	0	0	514	505	182	510	38	0	
6	0	0	0	0	514	512	182	515	38	0	
7	0	0	0	0	504	517	181	517	38	0	
8	0	0	0	0	497	521	181	518	38	0	
9	0	0	0	0	502	524	181	519	38	0	
10	0	0	0	0	495	524	182	519	38	0	
11	0	0	0	0	503	522	181	518	38	0	
12	0	0	0	0	504	518	181	516	38	0	
13	0	0	0	0	502	512	182	514	38	0	
14	0	0	0	0	505	506	182	512	38	0	
15	0	0	0	0	507	502	181	510	38	0	
0	0	0	0	0	508	497	182	510	38	0	
1	0	0	0	0	517	495	182	509	38	0	
2	0	0	0	0	507	494	181	508	38	0	
3	0	0	0	0	519	496	182	510	38	0	
4	0	0	0	0	512	500	182	511	38	0	
5	0	0	0	0	515	506	181	512	38	0	
6	0	0	0	0	507	512	181	514	38	0	
7	0	0	0	0	509	520	182	514	38	0	
8	0	0	0	0	509	525	181	513	38	0	
9	0	0	0	0	510	529	181	512	38	0	
10	0	0	0	0	505	531	180	511	38	0	
11	0	0	0	0	499	529	182	511	38	0	
12	0	0	0	0	503	526	182	510	38	0	
13	0	0	0	0	502	520	182	508	38	0	
14	0	0	0	0	501	515	181	507	38	0	
15	0	0	0	0	508	511	182	506	38	0	
0	0	0	0	0	510	507	182	505	38	0	
1	0	0	0	0	514	504	182	505	38	0	
2	0	0	0	0	508	504	181	505	38	0	
3	0	0	0	0	520	504	182	507	38	0	
4	0	0	0	0	527	507	182	508	38	0	
5	0	0	0	0	508	511	181	511	38	0	
6	0	0	0	0	510	515	181	515	38	0	
7	0	0	0	0	504	519	182	519	38	0	
8	0	0	0	0	504	523	181	517	38	0	
9	0	0	0	0	505	524	181	518	38	0	
10	0	0	0	0	503	526	181	518	38	0	
11	0	0	0	0	502	527	182	519	38	0	
12	0	0	0	0	501	527	181	518	38	0	
13	0	0	0	0	502	525	181	517	38	0	
14	0	0	0	0	496	521	182	515	38	0	
15	0	0	0	0	508	516	181	512	38	0	
0	0	0	0	0	509	513	181	510	38	0	
1	0	0	0	0	509	510	182	509	38	0	
2	0	0	0	0	506	507	182	507	38	0	
3	0	0	0	0	519	505	182	506	38	0	
4	0	0	0	0	515	508	181	506	38	0	
5	0	0	0	0	517	512	182	510	38	0	
6	0	0	0	0	519	518	181	513	38	0	
7	0	0	0	0	508	523	181	518	38	0	
8	0	0	0	0	508	528	181	519	38	0	
9	0	0	0	0	503	534	181	521	38	0	
10	0	0	0	0	504	539	181	520	38	0	
11	0	0	0	0	510	541	180	519	38	0	
12	0	0	0	0	503	541	182	520	38	0	
13	0	0	0	0	497	539	181	519	38	0	
14	0	0	0	0	500	533	181	517	38	0	
15	0	0	0	0	499	526	181	514	38	0	
0	0	0	0	0	504	519	181	511	38	0	
1	0	0	0	0	498	514	182	508	38	0	
2	0	0	0	0	513	512	182	505	38	0	
3	0	0	0	0	515	509	181	503	38	0	
4	0	0	0	0	519	505	181	502	38	0	
5	0	0	0	0	517	506	182	504	38	0	
6	0	0	0	0	516	509	182	506	38	0	
7	0	0	0	0	519	514	181	508	38	0	
8	0	0	0	0	510	520	181	512	38	0	
9	0	0	0	0	513	527	181	515	38	0	
10	0	0	0	0	500	531	181	526	38	0	
11	0	0	0	0	503	535	181	533	38	0	
12	0	0	0	0	507	537	182	532	38	0	
13	0	0	0	0	504	537	181	529	38	0	
14	0	0	0	0	492	535	181	524	38	0	
15	0	0	0	0	502	531	181	518	38	0	
0	0	0	0	0	504	527	182	515	38	0	
1	0	0	0	0	509	524	181	512	38	0	
2	0	0	0	0	511	519	181	510	38	0	
3	0	0	0	0	522	516	182	508	38	0	
4	0	0	0	0	505	515	182	506	38	0	
5	0	0	0	0	513	515	181	506	38	0	
6	0	0	0	0	512	518	181	506	38	0	
7	0	0	0	0	514	521	182	507	38	0	
8	0	0	0	0	513	526	182	509	38	0	
9	0	0	0	0	503	530	180	511	38	0	
10	0	0	0	0	515	534	182	512	38	0	
11	0	0	0	0	507	537	182	514	38	0	
12	0	0	0	0	511	538	181	515	38	0	
13	0	0	0	0	496	540	181	515	38	0	
14	0	0	0	0	494	538	181	513	38	0	
15	0	0	0	0	495	535	182	511	38	0	
0	0	0	0	0	504	530	182	509	38	0	
1	0	0	0	0	509	524	181	508	38	0	
2	0	0	0	0	512	519	181	504	38	0	
3	0	0	0	0	505	515	182	502	38	0	
4	0	0	0	0	513	513	182	502	38	0	
5	0	0	0	0	513	511	181	503	38	0	
6	0	0	0	0	516	510	181	503	38	0	
7	0	0	0	0	514	511	182	505	38	0	
8	0	0	0	0	519	515	182	507	38	0	
9	0	0	0	0	507	521	181	513	38	0	
10	0	0	0	0	512	525	181	519	38	0	
11	0	0	0	0	510	526	182	520	38	0	
12	0	0	0	0	505	527	182	522	38	0	
13	0	0	0	0	501	528	181	524	38	0	
14	0	0	0	0	497	529	182	525	38	0	
15	0	0	0	0	500	526	181	526	38	0	
0	0	0	0	0	499	520	181	522	38	0	
1	0	0	0	0	503	514	181	520	38	0	
2	0	0	0	0	508	507	182	516	38	0	
3	0	0	0	0	508	502	182	512	38	0	
4	0	0	0	0	505	497	181	509	38	0	
5	0	0	0	0	515	495	181	507	38	0	
6	0	0	0	0	513	493	182	505	38	0	
7	0	0	0	0	516	496	182	505	38	0	
8	0	0	0	0	516	500	181	505	38	0	
9	0	0	0	0	511	507	181	507	38	0	
10	0	0	0	0	513	511	182	510	38	0	
11	0	0	0	0	511	515	182	512	38	0	
12	0	0	0	0	505	518	181	513	38	0	
13	0	0	0	0	509	519	182	515	38	0	
14	0	0	0	0	505	519	181	516	38	0	
15	0	0	0	0	500	517	181	527	38	0	
0	0	0	0	0	496	513	181	514	38	0	
1	0	0	0	0	503	505	182	514	38	0	
2	0	0	0	0	504	499	181	512	38	0	
3	0	0	0	0	509	493	181	509	38	0	
4	0	0	0	0	510	489	182	506	38	0	
5	0	0	0	0	508	486	181	503	38	0	
6	0	0	0	0	502	484	181	505	38	0	
7	0	0	0	0	521	484	182	504	38	0	
8	0	0	0	0	514	487	182	505	38	0	
9	0	0	0	0	519	490	181	509	38	0	
10	0	0	0	0	514	494	182	512	38	0	
11	0	0	0	0	511	499	182	516	38	0	
12	0	0	0	0	512	504	181	518	38	0	
13	0	0	0	0	502	507	182	519	38	0	
14	0	0	0	0	508	510	181	519	38	0	
15	0	0	0	0	504	511	181	517	38	0	
0	0	0	0	0	501	509	182	515	38	0	
1	0	0	0	0	505	505	182	513	38	0	
2	0	0	0	0	499	499	181	513	38	0	
3	0	0	0	0	504	494	182	508	38	0	
4	0	0	0	0	506	486	182	507	38	0	
5	0	0	0	0	509	479	182	505	38	0	
6	0	0	0	0	507	476	181	504	38	0	
7	0	0	0	0	511	474	182	502	38	0	
8	0	0	0	0	519	475	182	501	38	0	
9	0	0	0	0	518	478	181	504	38	0	
10	0	0	0	0	516	483	182	505	38	0	
11	0	0	0	0	511	489	182	515	38	0	
12	0	0	0	0	507	494	182	525	38	0	
13	0	0	0	0	507	498	181	529	38	0	
14	0	0	0	0	500	500	182	530	38	0	
15	0	0	0	0	500	502	182	530	38	0	
0	0	0	0	0	497	500	182	529	38	0	
1	0	0	0	0	499	495	181	526	38	0	
2	0	0	0	0	505	490	182	521	38	0	
3	0	0	0	0	503	484	182	520	38	0	
4	0	0	0	0	501	479	182	516	38	0	
5	0	0	0	0	508	474	181	513	38	0	
6	0	0	0	0	515	470	182	510	38	0	
7	0	0	0	0	505	468	182	508	38	0	
8	0	0	0	0	514	467	181	508	38	0	
9	0	0	0	0	521	469	181	509	38	0	
10	0	0	0	0	515	473	182	510	38	0	
11	0	0	0	0	515	478	182	510	38	0	
12	0	0	0	0	514	483	181	510	38	0	
13	0	0	0	0	506	489	181	510	38	0	
14	0	0	0	0	504	495	182	510	38	0	
15	0	0	0	0	505	499	182	511	38	0	
0	0	0	0	0	507	501	181	512	38	0	
1	0	0	0	0	504	499	181	511	38	0	
2	0	0	0	0	494	497	182	509	38	0	
3	0	0	0	0	496	493	182	508	38	0	
4	0	0	0	0	500	489	181	519	38	0	
5	0	0	0	0	507	483	182	506	38	0	
6	0	0	0	0	509	477	182	505	38	0	
7	0	0	0	0	512	473	182	504	38	0	
8	0	0	0	0	519	471	181	502	38	0	
9	0	0	0	0	518	470	182	501	38	0	
10	0	0	0	0	514	472	182	500	38	0	
11	0	0	0	0	512	477	182	504	38	0	
12	0	0	0	0	513	483	181	507	38	0	
13	0	0	0	0	511	489	182	510	38	0	
14	0	0	0	0	512	493	182	511	38	0	
15	0	0	0	0	508	496	182	514	38	0	
0	0	0	0	0	504	498	181	517	38	0	
1	0	0	0	0	499	498	181	518	38	0	
2	0	0	0	0	504	496	182	516	38	0	
3	0	0	0	0	495	495	182	515	38	0	
4	0	0	0	0	500	490	182	512	38	0	
5	0	0	0	0	504	484	181	509	38	0	
6	0	0	0	0	512	480	182	511	38	0	
7	0	0	0	0	508	477	182	507	38	0	
8	0	0	0	0	507	475	182	505	38	0	
9	0	0	0	0	507	474	181	503	38	0	
10	0	0	0	0	519	476	181	502	38	0	
11	0	0	0	0	516	480	182	503	38	0	
12	0	0	0	0	513	484	182	504	38	0	
13	0	0	0	0	514	489	181	507	38	0	
14	0	0	0	0	510	493	181	511	38	0	
15	0	0	0	0	507	497	182	512	38	0	
0	0	0	0	0	505	500	182	514	38	0	
1	0	0	0	0	503	503	181	515	38	0	
2	0	0	0	0	503	504	181	514	38	0	
3	0	0	0	0	503	503	182	513	38	0	
4	0	0	0	0	500	500	182	513	38	0	
5	0	0	0	0	504	497	181	510	38	0	
6	0	0	0	0	502	492	181	520	38	0	
7	0	0	0	0	510	486	182	506	38	0	
8	0	0	0	0	515	481	182	505	38	0	
9	0	0	0	0	511	479	182	504	38	0	
10	0	0	0	0	516	478	181	503	38	0	
11	0	0	0	0	517	479	181	504	38	0	
12	0	0	0	0	518	483	182	504	38	0	
13	0	0	0	0	515	488	182	505	38	0	
14	0	0	0	0	507	494	181	508	38	0	
15	0	0	0	0	506	499	181	508	38	0	
0	0	0	0	0	512	502	182	522	38	0	
1	0	0	0	0	500	506	182	512	38	0	
2	0	0	0	0	500	508	181	512	38	0	
3	0	0	0	0	498	508	182	514	38	0	
4	0	0	0	0	497	506	182	514	38	0	
5	0	0	0	0	499	503	182	513	38	0	
6	0	0	0	0	501	499	181	513	38	0	
7	0	0	0	0	508	495	182	510	38	0	
8	0	0	0	0	516	491	182	507	38	0	
9	0	0	0	0	508	487	181	510	38	0	
10	0	0	0	0	513	485	182	505	38	0	
11	0	0	0	0	514	484	182	505	38	0	
12	0	0	0	0	513	487	182	506	38	0	
13	0	0	0	0	518	490	181	508	38	0	
14	0	0	0	0	512	495	182	510	38	0	
15	0	0	0	0	517	500	182	514	38	0	
0	0	0	0	0	511	507	181	522	38	0	
1	0	0	0	0	505	511	182	522	38	0	
2	0	0	0	0	508	513	182	521	38	0	
3	0	0	0	0	499	513	182	520	38	0	
4	0	0	0	0	497	511	181	518	38	0	
5	0	0	0	0	501	507	181	514	38	0	
6	0	0	0	0	504	503	182	511	38	0	
7	0	0	0	0	499	499	182	508	38	0	
8	0	0	0	0	510	496	181	504	38	0	
9	0	0	0	0	508	492	182	501	38	0	
10	0	0	0	0	515	489	182	502	38	0	
11	0	0	0	0	518	489	181	503	38	0	
12	0	0	0	0	520	490	181	502	38	0	
13	0	0	0	0	515	491	182	504	38	0	
14	0	0	0	0	518	494	182	507	38	0	
15	0	0	0	0	504	499	181	512	38	0	
0	0	0	0	0	505	505	181	515	38	0	
1	0	0	0	0	507	511	182	518	38	0	
2	0	0	0	0	508	515	182	519	38	0	
3	0	0	0	0	503	516	181	520	38	0	
4	0	0	0	0	499	517	181	518	38	0	
5	0	0	0	0	499	515	182	518	38	0	
6	0	0	0	0	505	512	181	513	38	0	
7	0	0	0	0	503	507	181	511	38	0	
8	0	0	0	0	510	501	182	510	38	0	
9	0	0	0	0	508	497	182	508	38	0	
10	0	0	0	0	508	493	181	507	38	0	
11	0	0	0	0	507	492	181	507	38	0	
12	0	0	0	0	515	493	182	508	38	0	
13	0	0	0	0	513	495	182	508	38	0	
14	0	0	0	0	519	497	181	508	38	0	
15	0	0	0	0	513	501	181	509	38	0	
0	0	0	0	0	512	507	182	512	38	0	
1	0	0	0	0	500	510	182	514	38	0	
2	0	0	0	0	504	513	181	513	38	0	
3	0	0	0	0	509	516	181	512	38	0	
4	0	0	0	0	501	517	181	522	38	0	
5	0	0	0	0	498	515	181	513	38	0	
6	0	0	0	0	502	512	182	511	38	0	
7	0	0	0	0	502	508	182	512	38	0	
8	0	0	0	0	505	503	181	508	38	0	
9	0	0	0	0	505	497	182	506	38	0	
10	0	0	0	0	510	492	182	506	38	0	
11	0	0	0	0	510	487	181	505	38	0	
12	0	0	0	0	509	484	181	504	38	0	
13	0	0	0	0	508	483	182	505	38	0	
14	0	0	0	0	523	485	182	505	38	0	
15	0	0	0	0	512	487	181	508	38	0	
0	0	0	0	0	515	491	182	512	38	0	
1	0	0	0	0	518	497	182	514	38	0	
2	0	0	0	0	510	500	181	519	38	0	
3	0	0	0	0	496	502	181	524	38	0	
4	0	0	0	0	500	504	182	526	38	0	
5	0	0	0	0	502	506	182	526	38	0	
6	0	0	0	0	500	505	181	523	38	0	
7	0	0	0	0	498	502	182	523	38	0	
8	0	0	0	0	502	496	182	518	38	0	
9	0	0	0	0	508	489	182	513	38	0	
10	0	0	0	0	511	484	181	510	38	0	
11	0	0	0	0	504	481	182	508	38	0	
12	0	0	0	0	511	479	182	507	38	0	
13	0	0	0	0	507	477	181	505	38	0	
14	0	0	0	0	525	478	182	513	38	0	
15	0	0	0	0	518	482	182	507	38	0	
0	0	0	0	0	511	487	181	506	38	0	
1	0	0	0	0	512	494	182	509	38	0	
2	0	0	0	0	509	499	181	511	38	0	
3	0	0	0	0	512	503	181	512	38	0	
4	0	0	0	0	505	506	181	512	38	0	
5	0	0	0	0	506	507	182	513	38	0	
6	0	0	0	0	498	508	182	520	38	0	
7	0	0	0	0	496	507	181	512	38	0	
8	0	0	0	0	502	502	181	509	38	0	
9	0	0	0	0	499	497	182	508	38	0	
10	0	0	0	0	507	493	182	507	38	0	
11	0	0	0	0	513	489	181	506	38	0	
12	0	0	0	0	521	486	182	505	38	0	
13	0	0	0	0	516	484	182	516	38	0	
14	0	0	0	0	510	483	182	508	38	0	
15	0	0	0	0	514	483	181	508	38	0	
0	0	0	0	0	514	487	182	509	38	0	
1	0	0	0	0	518	494	182	508	38	0	
2	0	0	0	0	510	499	181	509	38	0	
3	0	0	0	0	501	504	181	508	38	0	
4	0	0	0	0	506	508	182	508	38	0	
5	0	0	0	0	505	512	181	514	38	0	
6	0	0	0	0	503	514	181	519	38	0	
7	0	0	0	0	507	512	182	521	38	0	
8	0	0	0	0	499	508	182	519	38	0	
9	0	0	0	0	509	502	181	519	38	0	
10	0	0	0	0	506	497	181	515	38	0	
11	0	0	0	0	506	491	182	511	38	0	
12	0	0	0	0	509	486	182	508	38	0	
13	0	0	0	0	505	483	181	507	38	0	
14	0	0	0	0	512	482	182	505	38	0	
15	0	0	0	0	518	483	182	505	38	0	
0	0	0	0	0	522	487	182	506	38	0	
1	0	0	0	0	516	491	181	506	38	0	
2	0	0	0	0	522	497	182	510	38	0	
3	0	0	0	0	512	504	181	513	38	0	
4	0	0	0	0	508	508	182	519	38	0	
5	0	0	0	0	498	511	181	521	38	0	
6	0	0	0	0	498	511	182	522	38	0	
7	0	0	0	0	503	511	181	521	38	0	
8	0	0	0	0	498	508	181	518	38	0	
9	0	0	0	0	498	505	182	516	38	0	
10	0	0	0	0	496	500	181	513	38	0	
11	0	0	0	0	504	496	181	512	38	0	
12	0	0	0	0	508	491	182	508	38	0	
13	0	0	0	0	515	486	182	508	38	0	
14	0	0	0	0	510	481	181	508	38	0	
15	0	0	0	0	515	480	181	507	38	0	
0	0	0	0	0	522	481	182	505	38	0	
1	0	0	0	0	514	484	182	505	38	0	
2	0	0	0	0	515	487	181	507	38	0	
3	0	0	0	0	513	493	182	511	38	0	
4	0	0	0	0	516	499	182	514	38	0	
5	0	0	0	0	510	504	181	515	38	0	
6	0	0	0	0	507	505	182	516	38	0	
7	0	0	0	0	503	507	181	516	38	0	
8	0	0	0	0	493	508	181	515	38	0	
9	0	0	0	0	502	506	181	512	38	0	
10	0	0	0	0	502	501	182	510	38	0	
11	0	0	0	0	507	497	182	506	38	0	
12	0	0	0	0	496	494	181	504	38	0	
13	0	0	0	0	511	490	181	503	38	0	
14	0	0	0	0	511	487	182	502	38	0	
15	0	0	0	0	519	484	182	502	38	0	
0	0	0	0	0	516	483	181	500	38	0	
1	0	0	0	0	515	486	181	506	38	0	
2	0	0	0	0	515	489	182	516	38	0	
3	0	0	0	0	511	493	182	526	38	0	
4	0	0	0	0	513	496	181	531	38	0	
5	0	0	0	0	512	501	181	529	38	0	
6	0	0	0	0	505	505	182	530	38	0	
7	0	0	0	0	505	508	182	529	38	0	
8	0	0	0	0	504	511	182	528	38	0	
9	0	0	0	0	496	511	181	527	38	0	
10	0	0	0	0	502	508	181	524	38	0	
11	0	0	0	0	505	504	182	518	38	0	
12	0	0	0	0	507	500	182	513	38	0	
13	0	0	0	0	500	495	181	510	38	0	
14	0	0	0	0	513	491	181	505	38	0	
15	0	0	0	0	513	488	182	515	38	0	
0	0	0	0	0	512	487	182	505	38	0	
1	0	0	0	0	515	487	181	506	38	0	
2	0	0	0	0	519	492	182	506	38	0	
3	0	0	0	0	521	497	182	508	38	0	
4	0	0	0	0	518	503	182	513	38	0	
5	0	0	0	0	510	508	181	517	38	0	
6	0	0	0	0	504	512	181	520	38	0	
7	0	0	0	0	504	516	181	520	38	0	
8	0	0	0	0	510	519	181	521	38	0	
9	0	0	0	0	494	520	181	520	38	0	
10	0	0	0	0	498	518	181	518	38	0	
11	0	0	0	0	497	512	182	515	38	0	
12	0	0	0	0	496	504	182	511	38	0	
13	0	0	0	0	506	497	181	510	38	0	
14	0	0	0	0	511	492	182	508	38	0	
15	0	0	0	0	515	489	182	505	38	0	
0	0	0	0	0	512	487	181	504	38	0	
1	0	0	0	0	508	486	182	504	38	0	
2	0	0	0	0	520	487	182	505	38	0	
3	0	0	0	0	515	491	182	505	38	0	
4	0	0	0	0	517	497	181	508	38	0	
5	0	0	0	0	510	503	181	508	38	0	
6	0	0	0	0	503	508	182	510	38	0	
7	0	0	0	0	506	513	181	510	38	0	
8	0	0	0	0	509	515	181	509	38	0	
9	0	0	0	0	506	516	182	509	38	0	
10	0	0	0	0	498	517	181	513	38	0	
11	0	0	0	0	495	515	181	514	38	0	
12	0	0	0	0	500	512	182	514	38	0	
13	0	0	0	0	507	508	182	511	38	0	
14	0	0	0	0	508	502	181	509	38	0	
15	0	0	0	0	514	499	182	506	38	0	
0	0	0	0	0	513	496	182	503	38	0	
1	0	0	0	0	516	496	182	502	38	0	
2	0	0	0	0	517	497	181	504	38	0	
3	0	0	0	0	515	502	182	505	38	0	
4	0	0	0	0	512	507	181	508	38	0	
5	0	0	0	0	513	513	181	509	38	0	
6	0	0	0	0	511	518	181	512	38	0	
7	0	0	0	0	505	522	181	513	38	0	
8	0	0	0	0	503	527	181	515	38	0	
9	0	0	0	0	504	531	180	515	38	0	
10	0	0	0	0	508	534	182	519	38	0	
11	0	0	0	0	502	534	181	515	38	0	
12	0	0	0	0	502	532	181	514	38	0	
13	0	0	0	0	512	527	180	513	38	0	
14	0	0	0	0	503	522	182	511	38	0	
15	0	0	0	0	497	517	181	508	38	0	
0	0	0	0	0	508	515	181	505	38	0	
1	0	0	0	0	510	515	181	504	38	0	
2	0	0	0	0	507	515	182	503	38	0	
3	0	0	0	0	517	514	182	503	38	0	
4	0	0	0	0	517	518	182	504	38	0	
5	0	0	0	0	515	524	181	507	38	0	
6	0	0	0	0	512	532	181	509	38	0	
7	0	0	0	0	504	539	181	510	38	0	
8	0	0	0	0	508	543	181	513	38	0	
9	0	0	0	0	508	546	181	516	38	0	
10	0	0	0	0	499	548	181	516	38	0	
11	0	0	0	0	504	545	181	518	38	0	
12	0	0	0	0	501	537	180	515	38	0	
13	0	0	0	0	498	527	182	513	38	0	
14	0	0	0	0	499	515	182	512	38	0	
15	0	0	0	0	505	502	181	511	38	0	
0	0	0	0	0	513	491	182	508	38	0	
1	0	0	0	0	507	480	182	507	38	0	
2	0	0	0	0	513	469	182	511	38	0	
3	0	0	0	0	516	459	181	507	38	0	
4	0	0	0	0	524	452	182	509	38	0	
5	0	0	0	0	511	447	182	510	38	0	
6	0	0	0	0	516	445	181	511	38	0	
7	0	0	0	0	502	447	182	514	38	0	
8	0	0	0	0	509	449	182	518	38	0	
9	0	0	0	0	510	450	182	519	38	0	
10	0	0	0	0	503	448	181	518	38	0	
11	0	0	0	0	506	446	182	519	38	0	
12	0	0	0	0	498	440	182	517	38	0	
13	0	0	0	0	500	435	182	517	38	0	
14	0	0	0	0	501	429	181	514	38	0	
15	0	0	0	0	503	423	182	511	38	0	
0	0	0	0	0	510	418	182	508	38	0	
1	0	0	0	0	515	414	182	504	38	0	
2	0	0	0	0	507	409	181	502	38	0	
3	0	0	0	0	509	407	182	500	38	0	
4	0	0	0	0	521	406	182	501	38	0	
5	0	0	0	0	524	409	182	502	38	0	
6	0	0	0	0	513	414	182	504	38	0	
7	0	0	0	0	509	420	181	506	38	0	
8	0	0	0	0	509	426	182	509	38	0	
9	0	0	0	0	505	432	182	510	38	0	
10	0	0	0	0	503	439	181	511	38	0	
11	0	0	0	0	511	445	182	512	38	0	
12	0	0	0	0	512	452	182	524	38	0	
13	0	0	0	0	499	459	181	512	38	0	
14	0	0	0	0	494	463	181	512	38	0	
15	0	0	0	0	494	464	182	510	38	0	
0	0	0	0	0	504	466	182	509	38	0	
1	0	0	0	0	510	467	181	506	38	0	
2	0	0	0	0	502	468	182	507	38	0	
3	0	0	0	0	510	470	182	505	38	0	
4	0	0	0	0	508	472	182	507	38	0	
5	0	0	0	0	519	476	181	507	38	0	
6	0	0	0	0	522	482	181	506	38	0	
7	0	0	0	0	513	491	182	508	38	0	
8	0	0	0	0	508	500	182	511	38	0	
9	0	0	0	0	515	507	181	515	38	0	
10	0	0	0	0	501	513	181	516	38	0	
11	0	0	0	0	504	519	182	516	38	0	
12	0	0	0	0	512	524	181	515	38	0	
13	0	0	0	0	502	527	181	514	38	0	
14	0	0	0	0	501	527	180	512	38	0	
15	0	0	0	0	501	525	182	515	38	0	
0	0	0	0	0	500	520	181	505	38	0	
1	0	0	0	0	506	515	181	504	38	0	
2	0	0	0	0	502	512	181	503	38	0	
3	0	0	0	0	510	510	181	502	38	0	
4	0	0	0	0	518	508	182	502	38	0	
5	0	0	0	0	512	508	181	502	38	0	
6	0	0	0	0	521	510	181	503	38	0	
7	0	0	0	0	512	513	182	504	38	0	
8	0	0	0	0	516	519	181	505	38	0	
9	0	0	0	0	517	524	181	506	38	0	
10	0	0	0	0	515	529	180	508	38	0	
11	0	0	0	0	504	534	181	511	38	0	
12	0	0	0	0	505	537	181	513	38	0	
13	0	0	0	0	502	540	181	513	38	0	
14	0	0	0	0	502	542	180	508	38	0	
15	0	0	0	0	497	540	181	507	38	0	
0	0	0	0	0	502	535	182	502	38	0	
1	0	0	0	0	504	528	181	500	38	0	
2	0	0	0	0	505	523	181	500	38	0	
3	0	0	0	0	504	518	182	501	38	0	
4	0	0	0	0	512	512	181	501	38	0	
5	0	0	0	0	512	510	181	502	38	0	
6	0	0	0	0	515	508	180	503	38	0	
7	0	0	0	0	513	509	182	503	38	0	
8	0	0	0	0	515	513	181	507	38	0	
9	0	0	0	0	523	518	181	514	38	0	
10	0	0	0	0	513	524	180	513	38	0	
11	0	0	0	0	503	531	181	515	38	0	
12	0	0	0	0	510	535	181	518	38	0	
13	0	0	0	0	506	537	181	518	38	0	
14	0	0	0	0	508	539	180	518	38	0	
15	0	0	0	0	504	538	181	516	38	0	
0	0	0	0	0	497	536	181	513	38	0	
1	0	0	0	0	495	530	181	512	38	0	
2	0	0	0	0	504	522	181	511	38	0	
3	0	0	0	0	503	515	182	510	38	0	
4	0	0	0	0	515	510	181	508	38	0	
5	0	0	0	0	517	507	181	507	38	0	
6	0	0	0	0	512	505	182	506	38	0	
7	0	0	0	0	513	506	182	508	38	0	
8	0	0	0	0	514	508	182	511	38	0	
9	0	0	0	0	511	512	180	513	38	0	
10	0	0	0	0	506	517	182	513	38	0	
11	0	0	0	0	513	522	181	514	38	0	
12	0	0	0	0	509	525	181	514	38	0	
13	0	0	0	0	510	527	181	515	38	0	
14	0	0	0	0	505	530	180	515	38	0	
15	0	0	0	0	503	531	182	514	38	0	
0	0	0	0	0	504	529	181	514	38	0	
1	0	0	0	0	494	527	181	512	38	0	
2	0	0	0	0	502	524	180	512	38	0	
3	0	0	0	0	508	520	182	522	38	0	
4	0	0	0	0	502	516	182	510	38	0	
5	0	0	0	0	507	514	181	510	38	0	
6	0	0	0	0	516	513	181	508	38	0	
7	0	0	0	0	514	511	181	509	38	0	
8	0	0	0	0	515	512	182	509	38	0	
9	0	0	0	0	516	513	181	510	38	0	
10	0	0	0	0	519	517	181	511	38	0	
11	0	0	0	0	509	523	180	512	38	0	
12	0	0	0	0	507	528	182	514	38	0	
13	0	0	0	0	506	531	181	521	38	0	
14	0	0	0	0	507	533	181	516	38	0	
15	0	0	0	0	505	536	180	515	38	0	
0	0	0	0	0	494	535	182	516	38	0	
1	0	0	0	0	500	532	181	515	38	0	
2	0	0	0	0	502	527	180	514	38	0	
3	0	0	0	0	498	522	182	512	38	0	
4	0	0	0	0	515	516	181	511	38	0	
5	0	0	0	0	513	510	181	505	38	0	
6	0	0	0	0	512	505	181	502	38	0	
7	0	0	0	0	515	502	182	511	38	0	
8	0	0	0	0	510	501	182	504	38	0	
9	0	0	0	0	517	503	181	507	38	0	
10	0	0	0	0	516	506	181	512	38	0	
11	0	0	0	0	515	510	181	516	38	0	
12	0	0	0	0	511	515	181	518	38	0	
13	0	0	0	0	507	519	181	519	38	0	
14	0	0	0	0	500	523	181	517	38	0	
15	0	0	0	0	504	526	181	516	38	0	
0	0	0	0	0	504	527	181	517	38	0	
1	0	0	0	0	500	526	182	515	38	0	
2	0	0	0	0	499	522	181	514	38	0	
3	0	0	0	0	503	517	180	512	38	0	
4	0	0	0	0	502	511	182	512	38	0	
5	0	0	0	0	507	507	182	511	38	0	
6	0	0	0	0	514	502	182	510	38	0	
7	0	0	0	0	511	499	181	510	38	0	
8	0	0	0	0	510	498	181	508	38	0	
9	0	0	0	0	517	499	182	506	38	0	
10	0	0	0	0	518	503	181	505	38	0	
11	0	0	0	0	516	507	181	505	38	0	
12	0	0	0	0	519	512	182	507	38	0	
13	0	0	0	0	511	519	181	523	38	0	
14	0	0	0	0	502	524	180	514	38	0	
15	0	0	0	0	505	527	182	515	38	0	
0	0	0	0	0	512	528	181	515	38	0	
1	0	0	0	0	509	529	181	515	38	0	
2	0	0	0	0	496	527	181	514	38	0	
3	0	0	0	0	499	524	182	512	38	0	
4	0	0	0	0	502	519	182	510	38	0	
5	0	0	0	0	508	515	181	509	38	0	
6	0	0	0	0	503	511	181	507	38	0	
7	0	0	0	0	507	508	182	505	38	0	
8	0	0	0	0	516	506	182	504	38	0	
9	0	0	0	0	514	504	181	503	38	0	
10	0	0	0	0	517	504	181	504	38	0	
11	0	0	0	0	513	504	181	506	38	0	
12	0	0	0	0	513	506	181	508	38	0	
13	0	0	0	0	507	511	181	513	38	0	
14	0	0	0	0	512	516	181	524	38	0	
15	0	0	0	0	512	521	181	519	38	0	
0	0	0	0	0	505	524	182	519	38	0	
1	0	0	0	0	511	527	181	520	38	0	
2	0	0	0	0	504	528	181	517	38	0	
3	0	0	0	0	495	526	180	514	38	0	
4	0	0	0	0	500	522	182	513	38	0	
5	0	0	0	0	497	517	181	512	38	0	
6	0	0	0	0	499	513	181	509	38	0	
7	0	0	0	0	511	510	181	507	38	0	
8	0	0	0	0	511	506	182	504	38	0	
9	0	0	0	0	517	504	181	506	38	0	
10	0	0	0	0	513	504	182	504	38	0	
11	0	0	0	0	524	508	181	505	38	0	
12	0	0	0	0	515	512	181	508	38	0	
13	0	0	0	0	510	518	182	512	38	0	
14	0	0	0	0	505	523	181	513	38	0	
15	0	0	0	0	509	528	181	514	38	0	
0	0	0	0	0	507	531	181	515	38	0	
1	0	0	0	0	505	534	181	515	38	0	
2	0	0	0	0	501	535	181	514	38	0	
3	0	0	0	0	495	532	180	515	38	0	
4	0	0	0	0	502	530	182	526	38	0	
5	0	0	0	0	501	525	181	514	38	0	
6	0	0	0	0	505	519	181	512	38	0	
7	0	0	0	0	506	514	181	510	38	0	
8	0	0	0	0	511	510	181	508	38	0	
9	0	0	0	0	515	507	182	507	38	0	
10	0	0	0	0	518	506	181	507	38	0	
11	0	0	0	0	515	507	181	507	38	0	
12	0	0	0	0	514	509	181	509	38	0	
13	0	0	0	0	516	514	181	511	38	0	
14	0	0	0	0	516	519	181	514	38	0	
15	0	0	0	0	513	524	180	516	38	0	
0	0	0	0	0	502	528	181	516	38	0	
1	0	0	0	0	497	531	181	517	38	0	
2	0	0	0	0	499	533	180	518	38	0	
3	0	0	0	0	494	536	182	518	38	0	
4	0	0	0	0	501	534	181	522	38	0	
5	0	0	0	0	499	528	181	516	38	0	
6	0	0	0	0	504	523	181	515	38	0	
7	0	0	0	0	510	518	182	514	38	0	
8	0	0	0	0	504	514	181	512	38	0	
9	0	0	0	0	512	510	181	509	38	0	
10	0	0	0	0	521	507	181	508	38	0	
11	0	0	0	0	510	504	182	509	38	0	
12	0	0	0	0	518	504	181	510	38	0	
13	0	0	0	0	513	508	181	512	38	0	
14	0	0	0	0	515	511	182	523	38	0	
15	0	0	0	0	516	516	181	536	38	0	
0	0	0	0	0	504	523	181	540	38	0	
1	0	0	0	0	508	528	180	540	38	0	
2	0	0	0	0	508	530	181	536	38	0	
3	0	0	0	0	503	532	181	534	38	0	
4	0	0	0	0	501	532	181	531	38	0	
5	0	0	0	0	495	531	180	527	38	0	
6	0	0	0	0	501	527	182	521	38	0	
7	0	0	0	0	505	521	181	516	38	0	
8	0	0	0	0	515	515	181	512	38	0	
9	0	0	0	0	512	510	181	509	38	0	
10	0	0	0	0	508	505	182	507	38	0	
11	0	0	0	0	508	504	181	510	38	0	
12	0	0	0	0	513	504	182	505	38	0	
13	0	0	0	0	513	506	181	506	38	0	
14	0	0	0	0	519	510	181	506	38	0	
15	0	0	0	0	520	513	181	507	38	0	
0	0	0	0	0	507	517	181	508	38	0	
1	0	0	0	0	505	521	181	511	38	0	
2	0	0	0	0	508	526	181	513	38	0	
3	0	0	0	0	508	528	182	514	38	0	
4	0	0	0	0	497	529	181	513	38	0	
5	0	0	0	0	492	527	181	512	38	0	
6	0	0	0	0	493	525	181	510	38	0	
7	0	0	0	0	506	519	182	512	38	0	
8	0	0	0	0	510	514	181	508	38	0	
9	0	0	0	0	515	507	181	507	38	0	
10	0	0	0	0	509	502	181	505	38	0	
11	0	0	0	0	512	497	182	504	38	0	
12	0	0	0	0	517	496	181	505	38	0	
13	0	0	0	0	519	496	181	504	38	0	
14	0	0	0	0	513	498	182	504	38	0	
15	0	0	0	0	513	503	181	507	38	0	
0	0	0	0	0	505	509	181	509	38	0	
1	0	0	0	0	514	514	181	514	38	0	
2	0	0	0	0	512	518	181	517	38	0	
3	0	0	0	0	503	521	181	521	38	0	
4	0	0	0	0	501	522	180	524	38	0	
5	0	0	0	0	501	523	182	521	38	0	
6	0	0	0	0	504	520	181	519	38	0	
7	0	0	0	0	500	517	181	517	38	0	
8	0	0	0	0	496	512	182	513	38	0	
9	0	0	0	0	507	507	182	511	38	0	
10	0	0	0	0	499	503	181	507	38	0	
11	0	0	0	0	507	499	182	505	38	0	
12	0	0	0	0	517	495	182	505	38	0	
13	0	0	0	0	518	493	182	507	38	0	
14	0	0	0	0	520	492	181	508	38	0	
15	0	0	0	0	512	494	182	512	38	0	
0	0	0	0	0	515	497	181	512	38	0	
1	0	0	0	0	512	501	181	513	38	0	
2	0	0	0	0	505	504	181	516	38	0	
3	0	0	0	0	512	508	181	519	38	0	
4	0	0	0	0	504	511	181	520	38	0	
5	0	0	0	0	503	512	181	520	38	0	
6	0	0	0	0	499	512	181	517	38	0	
7	0	0	0	0	502	510	181	514	38	0	
8	0	0	0	0	499	505	180	511	38	0	
9	0	0	0	0	505	501	182	508	38	0	
10	0	0	0	0	505	497	182	510	38	0	
11	0	0	0	0	509	492	182	508	38	0	
12	0	0	0	0	513	489	181	507	38	0	
13	0	0	0	0	519	487	182	508	38	0	
14	0	0	0	0	514	487	182	505	38	0	
15	0	0	0	0	523	489	181	504	38	0	
0	0	0	0	0	508	493	182	505	38	0	
1	0	0	0	0	512	497	181	505	38	0	
2	0	0	0	0	508	502	181	507	38	0	
3	0	0	0	0	512	507	181	510	38	0	
4	0	0	0	0	499	510	181	513	38	0	
5	0	0	0	0	504	513	181	516	38	0	
6	0	0	0	0	502	515	181	516	38	0	
7	0	0	0	0	500	514	181	517	38	0	
8	0	0	0	0	499	511	181	517	38	0	
9	0	0	0	0	508	504	181	518	38	0	
10	0	0	0	0	500	497	181	515	38	0	
11	0	0	0	0	503	491	182	513	38	0	
12	0	0	0	0	510	487	181	509	38	0	
13	0	0	0	0	514	483	181	506	38	0	
14	0	0	0	0	512	481	181	506	38	0	
15	0	0	0	0	513	482	182	502	38	0	
0	0	0	0	0	513	486	182	503	38	0	
1	0	0	0	0	513	491	181	504	38	0	
2	0	0	0	0	518	496	181	508	38	0	
3	0	0	0	0	508	501	182	512	38	0	
4	0	0	0	0	509	504	181	518	38	0	
5	0	0	0	0	499	508	180	522	38	0	
6	0	0	0	0	512	511	181	523	38	0	
7	0	0	0	0	508	513	182	523	38	0	
8	0	0	0	0	500	511	181	523	38	0	
9	0	0	0	0	505	506	181	522	38	0	
10	0	0	0	0	499	499	181	520	38	0	
11	0	0	0	0	499	494	182	516	38	0	
12	0	0	0	0	504	489	182	513	38	0	
13	0	0	0	0	511	484	181	509	38	0	
14	0	0	0	0	508	483	181	508	38	0	
15	0	0	0	0	513	486	182	507	38	0	
0	0	0	0	0	519	490	181	508	38	0	
1	0	0	0	0	522	494	181	516	38	0	
2	0	0	0	0	522	499	181	511	38	0	
3	0	0	0	0	512	504	181	516	38	0	
4	0	0	0	0	505	510	181	520	38	0	
5	0	0	0	0	509	515	180	522	38	0	
6	0	0	0	0	504	517	181	521	38	0	
7	0	0	0	0	503	519	181	521	38	0	
8	0	0	0	0	498	519	180	519	38	0	
9	0	0	0	0	498	517	181	518	38	0	
10	0	0	0	0	502	515	181	516	38	0	
11	0	0	0	0	510	510	181	514	38	0	
12	0	0	0	0	509	506	181	512	38	0	
13	0	0	0	0	513	503	182	509	38	0	
14	0	0	0	0	510	501	181	507	38	0	
15	0	0	0	0	511	499	181	506	38	0	
0	0	0	0	0	519	496	181	505	38	0	
1	0	0	0	0	514	496	181	507	38	0	
2	0	0	0	0	515	500	181	509	38	0	
3	0	0	0	0	508	506	180	511	38	0	
4	0	0	0	0	510	513	181	513	38	0	
5	0	0	0	0	506	518	181	513	38	0	
6	0	0	0	0	505	522	180	517	38	0	
7	0	0	0	0	502	524	181	521	38	0	
8	0	0	0	0	509	525	181	519	38	0	
9	0	0	0	0	496	524	181	518	38	0	
10	0	0	0	0	502	524	180	515	38	0	
11	0	0	0	0	500	522	182	514	38	0	
12	0	0	0	0	495	520	181	511	38	0	
13	0	0	0	0	509	516	181	510	38	0	
14	0	0	0	0	509	511	181	509	38	0	
15	0	0	0	0	514	507	181	507	38	0	
0	0	0	0	0	514	504	182	511	38	0	
1	0	0	0	0	519	503	181	505	38	0	
2	0	0	0	0	515	505	181	508	38	0	
3	0	0	0	0	515	509	181	511	38	0	
4	0	0	0	0	507	515	182	512	38	0	
5	0	0	0	0	511	521	181	512	38	0	
6	0	0	0	0	506	527	181	512	38	0	
7	0	0	0	0	502	530	180	512	38	0	
8	0	0	0	0	505	531	181	512	38	0	
9	0	0	0	0	500	531	181	512	38	0	
10	0	0	0	0	495	529	180	514	38	0	
11	0	0	0	0	500	525	182	511	38	0	
12	0	0	0	0	497	520	181	508	38	0	
13	0	0	0	0	508	518	181	507	38	0	
14	0	0	0	0	507	515	181	507	38	0	
15	0	0	0	0	506	513	181	505	38	0	
0	0	0	0	0	519	510	182	503	38	0	
1	0	0	0	0	518	506	181	501	38	0	
2	0	0	0	0	519	506	182	500	38	0	
3	0	0	0	0	515	511	181	504	38	0	
4	0	0	0	0	520	516	181	511	38	0	
5	0	0	0	0	515	521	180	508	38	0	
6	0	0	0	0	507	525	181	509	38	0	
7	0	0	0	0	508	529	181	510	38	0	
8	0	0	0	0	512	531	181	512	38	0	
9	0	0	0	0	499	531	180	514	38	0	
10	0	0	0	0	501	529	182	515	38	0	
11	0	0	0	0	502	527	181	516	38	0	
12	0	0	0	0	503	524	181	514	38	0	
13	0	0	0	0	498	518	181	512	38	0	
14	0	0	0	0	504	513	182	511	38	0	
15	0	0	0	0	508	510	181	508	38	0	
0	0	0	0	0	508	506	181	507	38	0	
1	0	0	0	0	513	506	181	506	38	0	
2	0	0	0	0	515	508	182	506	38	0	
3	0	0	0	0	519	511	181	507	38	0	
4	0	0	0	0	515	515	181	508	38	0	
5	0	0	0	0	514	519	181	511	38	0	
6	0	0	0	0	515	524	181	513	38	0	
7	0	0	0	0	508	530	181	514	38	0	
8	0	0	0	0	509	534	181	515	38	0	
9	0	0	0	0	507	536	181	515	38	0	
10	0	0	0	0	503	537	181	524	38	0	
11	0	0	0	0	498	537	180	515	38	0	
12	0	0	0	0	496	533	180	515	38	0	
13	0	0	0	0	498	526	181	513	38	0	
14	0	0	0	0	506	519	181	512	38	0	
15	0	0	0	0	508	512	181	510	38	0	
0	0	0	0	0	513	506	182	509	38	0	
1	0	0	0	0	515	503	181	508	38	0	
2	0	0	0	0	518	502	181	507	38	0	
3	0	0	0	0	515	503	181	508	38	0	
4	0	0	0	0	518	508	181	508	38	0	
5	0	0	0	0	517	518	181	510	38	0	
6	0	0	0	0	507	527	180	511	38	0	
7	0	0	0	0	510	533	181	512	38	0	
8	0	0	0	0	510	539	181	513	38	0	
9	0	0	0	0	503	540	181	515	38	0	
10	0	0	0	0	506	541	180	516	38	0	
11	0	0	0	0	499	540	182	517	38	0	
12	0	0	0	0	501	535	181	515	38	0	
13	0	0	0	0	503	530	181	512	38	0	
14	0	0	0	0	508	524	181	510	38	0	
15	0	0	0	0	502	519	181	508	38	0	
0	0	0	0	0	510	512	181	506	38	0	
1	0	0	0	0	512	506	181	505	38	0	
2	0	0	0	0	509	502	181	504	38	0	
3	0	0	0	0	512	501	181	503	38	0	
4	0	0	0	0	518	502	181	503	38	0	
5	0	0	0	0	520	504	181	505	38	0	
6	0	0	0	0	510	509	181	507	38	0	
7	0	0	0	0	514	515	180	508	38	0	
8	0	0	0	0	504	523	181	508	38	0	
9	0	0	0	0	503	527	180	508	38	0	
10	0	0	0	0	502	531	181	508	38	0	
11	0	0	0	0	510	533	181	511	38	0	
12	0	0	0	0	502	531	180	512	38	0	
13	0	0	0	0	500	527	180	511	38	0	
14	0	0	0	0	499	519	181	509	38	0	
15	0	0	0	0	502	512	181	507	38	0	
0	0	0	0	0	503	505	180	505	38	0	
1	0	0	0	0	510	499	181	504	38	0	
2	0	0	0	0	508	496	181	503	38	0	
3	0	0	0	0	507	495	181	503	38	0	
4	0	0	0	0	520	497	181	504	38	0	
5	0	0	0	0	519	502	182	506	38	0	
6	0	0	0	0	509	508	181	511	38	0	
7	0	0	0	0	511	514	181	515	38	0	
8	0	0	0	0	512	519	181	516	38	0	
9	0	0	0	0	514	523	181	519	38	0	
10	0	0	0	0	507	524	181	521	38	0	
11	0	0	0	0	512	524	180	520	38	0	
12	0	0	0	0	499	524	181	523	38	0	
13	0	0	0	0	499	521	181	522	38	0	
14	0	0	0	0	499	516	181	519	38	0	
15	0	0	0	0	495	512	180	517	38	0	
0	0	0	0	0	501	506	181	515	38	0	
1	0	0	0	0	509	500	181	512	38	0	
2	0	0	0	0	508	496	181	509	38	0	
3	0	0	0	0	513	494	181	506	38	0	
4	0	0	0	0	511	492	181	504	38	0	
5	0	0	0	0	519	491	181	504	38	0	
6	0	0	0	0	523	493	181	505	38	0	
7	0	0	0	0	515	498	181	506	38	0	
8	0	0	0	0	516	505	181	509	38	0	
9	0	0	0	0	511	511	180	511	38	0	
10	0	0	0	0	509	515	181	513	38	0	
11	0	0	0	0	503	518	181	514	38	0	
12	0	0	0	0	505	519	181	515	38	0	
13	0	0	0	0	504	519	181	518	38	0	
14	0	0	0	0	497	516	180	516	38	0	
15	0	0	0	0	507	513	181	513	38	0	
0	0	0	0	0	496	509	181	511	38	0	
1	0	0	0	0	506	503	181	510	38	0	
2	0	0	0	0	507	497	181	508	38	0	
3	0	0	0	0	508	494	182	507	38	0	
4	0	0	0	0	508	492	181	504	38	0	
5	0	0	0	0	513	491	181	504	38	0	
6	0	0	0	0	510	492	181	504	38	0	
7	0	0	0	0	514	494	182	506	38	0	
8	0	0	0	0	513	499	181	507	38	0	
9	0	0	0	0	513	506	181	510	38	0	
10	0	0	0	0	505	512	180	519	38	0	
11	0	0	0	0	510	516	181	519	38	0	
12	0	0	0	0	511	519	181	519	38	0	
13	0	0	0	0	505	521	180	519	38	0	
14	0	0	0	0	496	523	181	520	38	0	
15	0	0	0	0	499	520	181	518	38	0	
0	0	0	0	0	501	515	180	517	38	0	
1	0	0	0	0	507	509	182	513	38	0	
2	0	0	0	0	507	504	181	510	38	0	
3	0	0	0	0	510	501	180	506	38	0	
4	0	0	0	0	510	498	181	505	38	0	
5	0	0	0	0	509	496	181	511	38	0	
6	0	0	0	0	512	496	181	504	38	0	
7	0	0	0	0	514	498	182	504	38	0	
8	0	0	0	0	514	502	181	504	38	0	
9	0	0	0	0	517	507	181	506	38	0	
10	0	0	0	0	517	513	180	510	38	0	
11	0	0	0	0	509	519	181	514	38	0	
12	0	0	0	0	503	526	181	518	38	0	
13	0	0	0	0	506	530	180	522	38	0	
14	0	0	0	0	509	531	181	522	38	0	
15	0	0	0	0	501	528	181	521	38	0	
0	0	0	0	0	495	525	181	520	38	0	
1	0	0	0	0	494	520	180	518	38	0	
2	0	0	0	0	507	515	181	513	38	0	
3	0	0	0	0	510	510	181	510	38	0	
4	0	0	0	0	508	506	181	507	38	0	
5	0	0	0	0	502	506	181	505	38	0	
6	0	0	0	0	511	506	180	504	38	0	
7	0	0	0	0	517	507	181	504	38	0	
8	0	0	0	0	514	510	181	506	38	0	
9	0	0	0	0	515	515	181	507	38	0	
10	0	0	0	0	513	523	181	511	38	0	
11	0	0	0	0	512	530	181	514	38	0	
12	0	0	0	0	503	537	181	524	38	0	
13	0	0	0	0	507	542	180	530	38	0	
14	0	0	0	0	509	545	181	531	38	0	
15	0	0	0	0	500	547	181	529	38	0	
0	0	0	0	0	500	545	180	526	38	0	
1	0	0	0	0	496	543	180	522	38	0	
2	0	0	0	0	504	539	181	518	38	0	
3	0	0	0	0	508	535	181	516	38	0	
4	0	0	0	0	504	530	181	514	38	0	
5	0	0	0	0	509	528	181	513	38	0	
6	0	0	0	0	516	529	181	510	38	0	
7	0	0	0	0	515	528	181	507	38	0	
8	0	0	0	0	520	529	180	506	38	0	
9	0	0	0	0	512	534	181	506	38	0	
10	0	0	0	0	515	540	181	507	38	0	
11	0	0	0	0	520	545	180	511	38	0	
12	0	0	0	0	498	550	181	511	38	0	
13	0	0	0	0	499	555	181	512	38	0	
14	0	0	0	0	503	558	181	513	38	0	
15	0	0	0	0	504	562	180	513	38	0	
0	0	0	0	0	502	565	181	513	38	0	
1	0	0	0	0	498	563	181	511	38	0	
2	0	0	0	0	497	559	180	508	38	0	
3	0	0	0	0	501	556	181	510	38	0	
4	0	0	0	0	509	552	181	507	38	0	
5	0	0	0	0	512	549	180	505	38	0	
6	0	0	0	0	508	544	181	505	38	0	
7	0	0	0	0	514	541	181	507	38	0	
8	0	0	0	0	518	539	181	507	38	0	
9	0	0	0	0	516	539	180	507	38	0	
10	0	0	0	0	518	541	181	507	38	0	
11	0	0	0	0	513	544	181	509	38	0	
12	0	0	0	0	510	548	180	512	38	0	
13	0	0	0	0	505	550	181	516	38	0	
14	0	0	0	0	502	551	181	517	38	0	
15	0	0	0	0	512	553	180	517	38	0	
0	0	0	0	0	498	554	181	515	38	0	
1	0	0	0	0	499	551	181	515	38	0	
2	0	0	0	0	498	546	180	513	38	0	
3	0	0	0	0	497	540	180	512	38	0	
4	0	0	0	0	504	534	181	509	38	0	
5	0	0	0	0	509	528	181	507	38	0	
6	0	0	0	0	513	523	181	503	38	0	
7	0	0	0	0	512	519	181	500	38	0	
8	0	0	0	0	519	516	181	498	38	0	
9	0	0	0	0	524	515	180	500	38	0	
10	0	0	0	0	514	517	181	502	38	0	
11	0	0	0	0	519	521	181	504	38	0	
12	0	0	0	0	512	526	180	507	38	0	
13	0	0	0	0	507	530	181	510	38	0	
14	0	0	0	0	503	533	181	512	38	0	
15	0	0	0	0	501	534	180	516	38	0	
0	0	0	0	0	505	536	181	518	38	0	
1	0	0	0	0	501	536	181	519	38	0	
2	0	0	0	0	504	534	180	519	38	0	
3	0	0	0	0	499	529	181	517	38	0	
4	0	0	0	0	508	522	181	515	38	0	
5	0	0	0	0	511	516	180	511	38	0	
6	0	0	0	0	507	510	181	510	38	0	
7	0	0	0	0	500	505	181	509	38	0	
8	0	0	0	0	515	503	181	508	38	0	
9	0	0	0	0	513	502	180	507	38	0	
10	0	0	0	0	515	503	181	507	38	0	
11	0	0	0	0	523	506	181	512	38	0	
12	0	0	0	0	512	510	181	509	38	0	
13	0	0	0	0	512	514	180	515	38	0	
14	0	0	0	0	513	519	181	522	38	0	
15	0	0	0	0	509	523	181	522	38	0	
0	0	0	0	0	503	525	180	522	38	0	
1	0	0	0	0	500	526	181	520	38	0	
2	0	0	0	0	497	526	181	518	38	0	
3	0	0	0	0	499	522	180	516	38	0	
4	0	0	0	0	495	517	181	512	38	0	
5	0	0	0	0	506	512	180	514	38	0	
6	0	0	0	0	509	507	181	508	38	0	
7	0	0	0	0	505	502	181	504	38	0	
8	0	0	0	0	515	498	180	504	38	0	
9	0	0	0	0	513	497	181	505	38	0	
10	0	0	0	0	515	495	181	505	38	0	
11	0	0	0	0	518	496	180	507	38	0	
12	0	0	0	0	518	500	181	508	38	0	
13	0	0	0	0	509	505	181	511	38	0	
14	0	0	0	0	511	511	181	513	38	0	
15	0	0	0	0	513	515	181	514	38	0	
0	0	0	0	0	508	519	181	515	38	0	
1	0	0	0	0	507	521	181	519	38	0	
2	0	0	0	0	496	523	180	516	38	0	
3	0	0	0	0	498	521	181	515	38	0	
4	0	0	0	0	499	518	181	514	38	0	
5	0	0	0	0	492	514	181	514	38	0	
6	0	0	0	0	508	508	181	511	38	0	
7	0	0	0	0	504	502	181	509	38	0	
8	0	0	0	0	512	497	181	508	38	0	
9	0	0	0	0	515	493	181	507	38	0	
10	0	0	0	0	513	491	181	507	38	0	
11	0	0	0	0	515	494	182	507	38	0	
12	0	0	0	0	515	498	181	509	38	0	
13	0	0	0	0	516	502	180	511	38	0	
14	0	0	0	0	513	507	180	515	38	0	
15	0	0	0	0	506	512	181	515	38	0	
0	0	0	0	0	515	517	181	516	38	0	
1	0	0	0	0	500	519	180	518	38	0	
2	0	0	0	0	501	520	180	517	38	0	
3	0	0	0	0	509	521	181	517	38	0	
4	0	0	0	0	500	521	181	516	38	0	
5	0	0	0	0	504	519	180	514	38	0	
6	0	0	0	0	502	516	180	512	38	0	
7	0	0	0	0	504	511	181	511	38	0	
8	0	0	0	0	505	506	181	510	38	0	
9	0	0	0	0	510	504	181	508	38	0	
10	0	0	0	0	511	502	181	508	38	0	
11	0	0	0	0	513	501	181	509	38	0	
12	0	0	0	0	518	504	181	507	38	0	
13	0	0	0	0	516	508	181	507	38	0	
14	0	0	0	0	519	513	180	507	38	0	
15	0	0	0	0	507	520	181	508	38	0	
0	0	0	0	0	507	526	181	511	38	0	
1	0	0	0	0	509	530	181	513	38	0	
2	0	0	0	0	498	534	180	513	38	0	
3	0	0	0	0	500	537	181	515	38	0	
4	0	0	0	0	496	538	181	515	38	0	
5	0	0	0	0	496	537	180	515	38	0	
6	0	0	0	0	505	533	181	524	38	0	
7	0	0	0	0	504	527	181	511	38	0	
8	0	0	0	0	501	522	181	508	38	0	
9	0	0	0	0	510	518	180	508	38	0	
10	0	0	0	0	513	515	181	507	38	0	
11	0	0	0	0	513	514	181	505	38	0	
12	0	0	0	0	520	515	181	505	38	0	
13	0	0	0	0	517	516	180	504	38	0	
14	0	0	0	0	512	519	181	505	38	0	
15	0	0	0	0	513	524	181	508	38	0	
0	0	0	0	0	512	529	180	512	38	0	
1	0	0	0	0	508	534	180	518	38	0	
2	0	0	0	0	498	537	181	519	38	0	
3	0	0	0	0	504	541	181	519	38	0	
4	0	0	0	0	501	543	181	519	38	0	
5	0	0	0	0	498	543	180	518	38	0	
6	0	0	0	0	509	542	180	516	38	0	
7	0	0	0	0	501	537	181	514	38	0	
8	0	0	0	0	506	532	181	513	38	0	
9	0	0	0	0	509	527	181	511	38	0	
10	0	0	0	0	512	523	180	509	38	0	
11	0	0	0	0	509	520	181	509	38	0	
12	0	0	0	0	510	517	181	508	38	0	
13	0	0	0	0	518	516	181	507	38	0	
14	0	0	0	0	514	519	180	508	38	0	
15	0	0	0	0	515	524	181	511	38	0	
0	0	0	0	0	512	530	181	512	38	0	
1	0	0	0	0	508	534	181	515	38	0	
2	0	0	0	0	504	539	180	518	38	0	
3	0	0	0	0	503	542	181	519	38	0	
4	0	0	0	0	500	543	181	519	38	0	
5	0	0	0	0	505	543	180	518	38	0	
6	0	0	0	0	500	541	181	517	38	0	
7	0	0	0	0	499	538	181	515	38	0	
8	0	0	0	0	504	532	181	514	38	0	
9	0	0	0	0	507	525	181	512	38	0	
10	0	0	0	0	502	519	180	512	38	0	
11	0	0	0	0	510	515	181	512	38	0	
12	0	0	0	0	519	511	181	510	38	0	
13	0	0	0	0	508	510	180	508	38	0	
14	0	0	0	0	523	511	181	509	38	0	
15	0	0	0	0	524	515	181	509	38	0	
0	0	0	0	0	519	519	181	510	38	0	
1	0	0	0	0	512	526	180	510	38	0	
2	0	0	0	0	510	532	181	512	38	0	
3	0	0	0	0	504	537	181	515	38	0	
4	0	0	0	0	508	540	180	516	38	0	
5	0	0	0	0	509	541	180	516	38	0	
6	0	0	0	0	501	541	181	516	38	0	
7	0	0	0	0	494	537	180	516	38	0	
8	0	0	0	0	497	532	180	514	38	0	
9	0	0	0	0	504	527	181	512	38	0	
10	0	0	0	0	512	523	181	510	38	0	
11	0	0	0	0	504	519	181	508	38	0	
12	0	0	0	0	507	515	180	519	38	0	
13	0	0	0	0	517	513	180	509	38	0	
14	0	0	0	0	516	513	181	510	38	0	
15	0	0	0	0	512	513	181	511	38	0	
0	0	0	0	0	515	516	180	512	38	0	
1	0	0	0	0	515	522	180	512	38	0	
2	0	0	0	0	512	527	181	512	38	0	
3	0	0	0	0	508	531	181	523	38	0	
4	0	0	0	0	503	535	181	515	38	0	
5	0	0	0	0	503	536	180	516	38	0	
6	0	0	0	0	504	538	181	518	38	0	
7	0	0	0	0	502	535	181	517	38	0	
8	0	0	0	0	502	532	181	516	38	0	
9	0	0	0	0	497	527	180	515	38	0	
10	0	0	0	0	503	522	181	513	38	0	
11	0	0	0	0	505	519	181	511	38	0	
12	0	0	0	0	505	516	180	508	38	0	
13	0	0	0	0	508	513	181	506	38	0	
14	0	0	0	0	515	511	181	507	38	0	
15	0	0	0	0	523	511	181	507	38	0	
0	0	0	0	0	515	514	180	506	38	0	
1	0	0	0	0	525	519	180	507	38	0	
2	0	0	0	0	517	524	181	508	38	0	
3	0	0	0	0	511	527	181	509	38	0	
4	0	0	0	0	506	531	180	510	38	0	
5	0	0	0	0	511	533	181	512	38	0	
6	0	0	0	0	511	536	181	512	38	0	
7	0	0	0	0	500	537	180	510	38	0	
8	0	0	0	0	492	537	180	511	38	0	
9	0	0	0	0	499	535	181	517	38	0	
10	0	0	0	0	500	529	181	511	38	0	
11	0	0	0	0	504	523	181	510	38	0	
12	0	0	0	0	510	519	180	508	38	0	
13	0	0	0	0	513	515	181	508	38	0	
14	0	0	0	0	512	512	181	507	38	0	
15	0	0	0	0	512	511	181	509	38	0	
0	0	0	0	0	523	512	180	510	38	0	
1	0	0	0	0	515	514	180	510	38	0	
2	0	0	0	0	513	520	181	511	38	0	
3	0	0	0	0	504	526	181	513	38	0	
4	0	0	0	0	512	532	180	517	38	0	
5	0	0	0	0	510	537	180	520	38	0	
6	0	0	0	0	506	541	181	519	38	0	
7	0	0	0	0	507	544	181	519	38	0	
8	0	0	0	0	498	544	180	517	38	0	
9	0	0	0	0	492	542	180	515	38	0	
10	0	0	0	0	500	539	181	513	38	0	
11	0	0	0	0	503	533	181	512	38	0	
12	0	0	0	0	512	526	181	508	38	0	
13	0	0	0	0	519	521	180	506	38	0	
14	0	0	0	0	507	517	181	505	38	0	
15	0	0	0	0	514	515	181	505	38	0	
0	0	0	0	0	514	515	181	506	38	0	
1	0	0	0	0	525	519	180	508	38	0	
2	0	0	0	0	518	525	181	511	38	0	
3	0	0	0	0	509	531	181	513	38	0	
4	0	0	0	0	509	536	180	514	38	0	
5	0	0	0	0	510	541	181	514	38	0	
6	0	0	0	0	501	545	181	515	38	0	
7	0	0	0	0	509	547	180	516	38	0	
8	0	0	0	0	502	548	181	518	38	0	
9	0	0	0	0	502	545	181	518	38	0	
10	0	0	0	0	491	541	180	516	38	0	
11	0	0	0	0	500	535	180	515	38	0	
12	0	0	0	0	502	531	181	512	38	0	
13	0	0	0	0	506	526	181	508	38	0	
14	0	0	0	0	512	522	180	510	38	0	
15	0	0	0	0	512	518	181	508	38	0	
0	0	0	0	0	517	515	181	507	38	0	
1	0	0	0	0	518	516	181	507	38	0	
2	0	0	0	0	519	521	180	506	38	0	
3	0	0	0	0	518	525	181	507	38	0	
4	0	0	0	0	509	529	181	508	38	0	
5	0	0	0	0	510	535	180	511	38	0	
6	0	0	0	0	511	540	181	516	38	0	
7	0	0	0	0	503	545	181	524	38	0	
8	0	0	0	0	502	549	180	523	38	0	
9	0	0	0	0	506	550	181	522	38	0	
10	0	0	0	0	497	547	181	520	38	0	
11	0	0	0	0	502	541	180	517	38	0	
12	0	0	0	0	502	534	180	516	38	0	
13	0	0	0	0	510	528	181	513	38	0	
14	0	0	0	0	508	523	181	510	38	0	
15	0	0	0	0	513	519	181	506	38	0	
0	0	0	0	0	516	515	180	503	38	0	
1	0	0	0	0	511	512	181	506	38	0	
2	0	0	0	0	524	513	181	503	38	0	
3	0	0	0	0	513	515	180	507	38	0	
4	0	0	0	0	515	521	181	509	38	0	
5	0	0	0	0	505	526	181	513	38	0	
6	0	0	0	0	507	530	181	518	38	0	
7	0	0	0	0	504	532	180	521	38	0	
8	0	0	0	0	504	533	181	523	38	0	
9	0	0	0	0	511	534	181	524	38	0	
10	0	0	0	0	499	532	180	527	38	0	
11	0	0	0	0	492	529	181	529	38	0	
12	0	0	0	0	501	523	181	527	38	0	
13	0	0	0	0	505	518	181	524	38	0	
14	0	0	0	0	502	512	180	519	38	0	
15	0	0	0	0	509	507	181	512	38	0	
0	0	0	0	0	512	505	181	508	38	0	
1	0	0	0	0	505	504	180	504	38	0	
2	0	0	0	0	512	505	180	503	38	0	
3	0	0	0	0	521	508	181	504	38	0	
4	0	0	0	0	518	511	181	505	38	0	
5	0	0	0	0	516	515	180	508	38	0	
6	0	0	0	0	511	519	180	510	38	0	
7	0	0	0	0	512	526	181	511	38	0	
8	0	0	0	0	506	530	181	513	38	0	
9	0	0	0	0	498	531	180	515	38	0	
10	0	0	0	0	500	532	181	527	38	0	
11	0	0	0	0	506	530	181	518	38	0	
12	0	0	0	0	499	527	181	516	38	0	
13	0	0	0	0	498	521	180	513	38	0	
14	0	0	0	0	514	515	181	509	38	0	
15	0	0	0	0	511	510	181	505	38	0	
0	0	0	0	0	508	505	181	504	38	0	
1	0	0	0	0	506	502	180	502	38	0	
2	0	0	0	0	511	500	181	502	38	0	
3	0	0	0	0	514	502	181	503	38	0	
4	0	0	0	0	518	504	181	504	38	0	
5	0	0	0	0	521	508	180	508	38	0	
6	0	0	0	0	512	514	181	517	38	0	
7	0	0	0	0	507	521	181	511	38	0	
8	0	0	0	0	508	525	181	513	38	0	
9	0	0	0	0	501	528	180	514	38	0	
10	0	0	0	0	500	529	180	513	38	0	
11	0	0	0	0	499	529	181	512	38	0	
12	0	0	0	0	499	527	181	511	38	0	
13	0	0	0	0	502	523	180	509	38	0	
14	0	0	0	0	504	519	180	509	38	0	
15	0	0	0	0	504	513	181	508	38	0	
0	0	0	0	0	513	508	181	508	38	0	
1	0	0	0	0	517	507	181	508	38	0	
2	0	0	0	0	511	506	180	510	38	0	
3	0	0	0	0	516	505	181	510	38	0	
4	0	0	0	0	521	504	181	510	38	0	
5	0	0	0	0	519	507	181	511	38	0	
6	0	0	0	0	513	513	180	512	38	0	
7	0	0	0	0	506	519	180	514	38	0	
8	0	0	0	0	509	524	181	516	38	0	
9	0	0	0	0	507	526	181	515	38	0	
10	0	0	0	0	501	527	180	514	38	0	
11	0	0	0	0	506	529	180	515	38	0	
12	0	0	0	0	498	526	181	515	38	0	
13	0	0	0	0	494	521	181	513	38	0	
14	0	0	0	0	502	517	180	512	38	0	
15	0	0	0	0	504	513	180	510	38	0	
0	0	0	0	0	505	508	181	509	38	0	
1	0	0	0	0	514	503	181	508	38	0	
2	0	0	0	0	514	499	180	507	38	0	
3	0	0	0	0	518	496	181	506	38	0	
4	0	0	0	0	511	496	181	507	38	0	
5	0	0	0	0	519	497	180	507	38	0	
6	0	0	0	0	512	501	181	507	38	0	
7	0	0	0	0	515	506	181	508	38	0	
8	0	0	0	0	508	510	181	511	38	0	
9	0	0	0	0	501	515	181	513	38	0	
10	0	0	0	0	504	518	180	516	38	0	
11	0	0	0	0	505	523	180	517	38	0	
12	0	0	0	0	509	525	181	518	38	0	
13	0	0	0	0	493	524	181	518	38	0	
14	0	0	0	0	500	521	181	516	38	0	
15	0	0	0	0	502	516	180	515	38	0	
0	0	0	0	0	504	512	181	512	38	0	
1	0	0	0	0	504	507	181	509	38	0	
2	0	0	0	0	507	502	181	508	38	0	
3	0	0	0	0	510	499	180	508	38	0	
4	0	0	0	0	512	497	181	508	38	0	
5	0	0	0	0	517	496	181	508	38	0	
6	0	0	0	0	520	499	181	508	38	0	
7	0	0	0	0	515	503	180	510	38	0	
8	0	0	0	0	515	508	181	512	38	0	
9	0	0	0	0	512	512	180	516	38	0	
10	0	0	0	0	505	515	180	521	38	0	
11	0	0	0	0	503	518	181	522	38	0	
12	0	0	0	0	507	520	181	521	38	0	
13	0	0	0	0	500	521	181	519	38	0	
14	0	0	0	0	500	519	180	515	38	0	
15	0	0	0	0	500	515	181	513	38	0	
0	0	0	0	0	504	511	181	509	38	0	
1	0	0	0	0	507	505	181	506	38	0	
2	0	0	0	0	503	501	180	503	38	0	
3	0	0	0	0	509	497	181	503	38	0	
4	0	0	0	0	512	492	181	503	38	0	
5	0	0	0	0	517	490	181	503	38	0	
6	0	0	0	0	516	491	180	507	38	0	
7	0	0	0	0	518	494	181	507	38	0	
8	0	0	0	0	510	499	181	509	38	0	
9	0	0	0	0	510	505	180	510	38	0	
10	0	0	0	0	508	511	181	512	38	0	
11	0	0	0	0	512	513	181	516	38	0	
12	0	0	0	0	507	513	180	516	38	0	
13	0	0	0	0	510	514	181	517	38	0	
14	0	0	0	0	502	513	181	515	38	0	
15	0	0	0	0	495	512	180	515	38	0	
0	0	0	0	0	499	507	181	511	38	0	
1	0	0	0	0	507	501	181	507	38	0	
2	0	0	0	0	507	496	180	504	38	0	
3	0	0	0	0	502	492	182	504	38	0	
4	0	0	0	0	511	488	181	504	38	0	
5	0	0	0	0	514	486	180	501	38	0	
6	0	0	0	0	517	485	181	501	38	0	
7	0	0	0	0	515	486	181	502	38	0	
8	0	0	0	0	513	490	180	504	38	0	
9	0	0	0	0	512	495	181	506	38	0	
10	0	0	0	0	508	498	181	510	38	0	
11	0	0	0	0	513	501	180	513	38	0	
12	0	0	0	0	503	503	181	516	38	0	
13	0	0	0	0	501	504	181	518	38	0	
14	0	0	0	0	505	505	181	519	38	0	
15	0	0	0	0	495	504	180	516	38	0	
0	0	0	0	0	496	501	181	513	38	0	
1	0	0	0	0	501	496	181	512	38	0	
2	0	0	0	0	510	491	180	521	38	0	
3	0	0	0	0	504	486	181	510	38	0	
4	0	0	0	0	514	484	181	510	38	0	
5	0	0	0	0	514	482	181	510	38	0	
6	0	0	0	0	518	481	180	510	38	0	
7	0	0	0	0	524	484	182	511	38	0	
8	0	0	0	0	515	488	181	512	38	0	
9	0	0	0	0	512	495	181	512	38	0	
10	0	0	0	0	511	503	181	516	38	0	
11	0	0	0	0	504	510	181	520	38	0	
12	0	0	0	0	501	515	181	522	38	0	
13	0	0	0	0	509	520	180	524	38	0	
14	0	0	0	0	508	523	181	524	38	0	
15	0	0	0	0	498	524	181	521	38	0	
0	0	0	0	0	500	521	180	525	38	0	
1	0	0	0	0	494	519	180	516	38	0	
2	0	0	0	0	502	515	181	513	38	0	
3	0	0	0	0	502	511	181	510	38	0	
4	0	0	0	0	507	508	180	508	38	0	
5	0	0	0	0	513	505	181	507	38	0	
6	0	0	0	0	510	503	181	504	38	0	
7	0	0	0	0	516	504	181	503	38	0	
8	0	0	0	0	516	507	181	502	38	0	
9	0	0	0	0	520	512	181	503	38	0	
10	0	0	0	0	519	516	180	504	38	0	
11	0	0	0	0	509	523	181	507	38	0	
12	0	0	0	0	509	530	181	511	38	0	
13	0	0	0	0	504	535	180	515	38	0	
14	0	0	0	0	498	539	180	515	38	0	
15	0	0	0	0	510	542	181	517	38	0	
0	0	0	0	0	500	542	181	518	38	0	
1	0	0	0	0	504	541	180	516	38	0	
2	0	0	0	0	495	535	180	515	38	0	
3	0	0	0	0	505	528	181	514	38	0	
4	0	0	0	0	505	521	181	512	38	0	
5	0	0	0	0	505	513	180	510	38	0	
6	0	0	0	0	505	507	182	507	38	0	
7	0	0	0	0	515	500	181	505	38	0	
8	0	0	0	0	516	495	180	504	38	0	
9	0	0	0	0	517	490	180	504	38	0	
10	0	0	0	0	513	488	181	511	38	0	
11	0	0	0	0	517	490	181	508	38	0	
12	0	0	0	0	510	489	180	511	38	0	
13	0	0	0	0	512	487	181	512	38	0	
14	0	0	0	0	506	486	181	515	38	0	
15	0	0	0	0	505	484	181	516	38	0	
0	0	0	0	0	501	482	180	517	38	0	
1	0	0	0	0	499	476	181	516	38	0	
2	0	0	0	0	503	470	181	516	38	0	
3	0	0	0	0	503	462	181	516	38	0	
4	0	0	0	0	508	452	181	513	38	0	
5	0	0	0	0	510	442	182	511	38	0	
6	0	0	0	0	508	434	181	509	38	0	
7	0	0	0	0	504	427	181	508	38	0	
8	0	0	0	0	515	423	181	508	38	0	
9	0	0	0	0	522	424	182	506	38	0	
10	0	0	0	0	509	427	181	504	38	0	
11	0	0	0	0	518	431	181	506	38	0	
12	0	0	0	0	513	435	182	512	38	0	
13	0	0	0	0	508	440	181	511	38	0	
14	0	0	0	0	513	445	181	514	38	0	
15	0	0	0	0	504	449	181	517	38	0	
0	0	0	0	0	502	451	181	518	38	0	
1	0	0	0	0	496	452	181	518	38	0	
2	0	0	0	0	499	451	181	518	38	0	
3	0	0	0	0	501	449	181	516	38	0	
4	0	0	0	0	496	447	181	513	38	0	
5	0	0	0	0	501	447	181	512	38	0	
6	0	0	0	0	511	447	181	511	38	0	
7	0	0	0	0	513	450	181	510	38	0	
8	0	0	0	0	513	455	181	508	38	0	
9	0	0	0	0	514	460	181	508	38	0	
10	0	0	0	0	515	469	182	510	38	0	
11	0	0	0	0	514	479	181	510	38	0	
12	0	0	0	0	517	490	180	511	38	0	
13	0	0	0	0	510	501	180	512	38	0	
14	0	0	0	0	508	511	181	515	38	0	
15	0	0	0	0	505	519	181	514	38	0	
0	0	0	0	0	509	526	180	513	38	0	
1	0	0	0	0	499	530	180	512	38	0	
2	0	0	0	0	491	534	181	513	38	0	
3	0	0	0	0	501	535	181	514	38	0	
4	0	0	0	0	497	533	180	511	38	0	
5	0	0	0	0	502	531	181	507	38	0	
6	0	0	0	0	505	528	181	504	38	0	
7	0	0	0	0	510	526	180	503	38	0	
8	0	0	0	0	510	526	181	504	38	0	
9	0	0	0	0	511	525	181	507	38	0	
10	0	0	0	0	521	526	181	510	38	0	
11	0	0	0	0	520	530	180	511	38	0	
12	0	0	0	0	516	535	181	509	38	0	
13	0	0	0	0	510	541	181	511	38	0	
14	0	0	0	0	510	545	180	513	38	0	
15	0	0	0	0	511	550	180	514	38	0	
0	0	0	0	0	508	553	181	515	38	0	
1	0	0	0	0	502	555	181	514	38	0	
2	0	0	0	0	499	557	180	514	38	0	
3	0	0	0	0	499	556	181	512	38	0	
4	0	0	0	0	501	553	181	511	38	0	
5	0	0	0	0	504	549	180	507	38	0	
6	0	0	0	0	505	545	180	507	38	0	
7	0	0	0	0	511	541	181	505	38	0	
8	0	0	0	0	514	539	181	504	38	0	
9	0	0	0	0	509	537	180	503	38	0	
10	0	0	0	0	509	537	181	501	38	0	
11	0	0	0	0	513	536	181	504	38	0	
12	0	0	0	0	513	538	181	506	38	0	
13	0	0	0	0	519	543	180	509	38	0	
14	0	0	0	0	512	550	181	512	38	0	
15	0	0	0	0	515	556	180	515	38	0	
0	0	0	0	0	512	561	180	517	38	0	
1	0	0	0	0	508	564	181	519	38	0	
2	0	0	0	0	506	563	181	521	38	0	
3	0	0	0	0	499	563	180	522	38	0	
4	0	0	0	0	502	559	181	520	38	0	
5	0	0	0	0	500	553	181	519	38	0	
6	0	0	0	0	506	546	181	516	38	0	
7	0	0	0	0	501	540	180	514	38	0	
8	0	0	0	0	512	535	181	514	38	0	
9	0	0	0	0	514	531	180	512	38	0	
10	0	0	0	0	516	528	181	510	38	0	
11	0	0	0	0	507	527	181	509	38	0	
12	0	0	0	0	513	528	180	509	38	0	
13	0	0	0	0	522	530	181	510	38	0	
14	0	0	0	0	510	535	180	511	38	0	
15	0	0	0	0	512	540	181	519	38	0	
0	0	0	0	0	512	546	181	523	38	0	
1	0	0	0	0	502	551	181	524	38	0	
2	0	0	0	0	502	552	180	525	38	0	
3	0	0	0	0	503	553	181	524	38	0	
4	0	0	0	0	497	551	181	524	38	0	
5	0	0	0	0	501	547	180	521	38	0	
6	0	0	0	0	501	545	180	520	38	0	
7	0	0	0	0	494	542	181	517	38	0	
8	0	0	0	0	499	537	181	513	38	0	
9	0	0	0	0	509	531	180	508	38	0	
10	0	0	0	0	514	527	181	508	38	0	
11	0	0	0	0	519	524	181	507	38	0	
12	0	0	0	0	519	522	181	506	38	0	
13	0	0	0	0	519	524	180	508	38	0	
14	0	0	0	0	516	527	181	508	38	0	
15	0	0	0	0	513	531	181	509	38	0	
0	0	0	0	0	510	537	181	511	38	0	
1	0	0	0	0	505	542	180	511	38	0	
2	0	0	0	0	499	545	181	511	38	0	
3	0	0	0	0	513	549	181	513	38	0	
4	0	0	0	0	503	552	180	515	38	0	
5	0	0	0	0	503	551	181	516	38	0	
6	0	0	0	0	502	547	181	514	38	0	
7	0	0	0	0	502	543	180	512	38	0	
8	0	0	0	0	508	539	180	509	38	0	
9	0	0	0	0	507	535	181	507	38	0	
10	0	0	0	0	510	530	181	516	38	0	
11	0	0	0	0	511	527	180	504	38	0	
12	0	0	0	0	512	525	181	506	38	0	
13	0	0	0	0	514	527	181	509	38	0	
14	0	0	0	0	519	528	180	510	38	0	
15	0	0	0	0	514	532	181	512	38	0	
0	0	0	0	0	517	537	181	513	38	0	
1	0	0	0	0	507	541	181	515	38	0	
2	0	0	0	0	504	545	180	517	38	0	
3	0	0	0	0	507	549	181	518	38	0	
4	0	0	0	0	504	550	181	518	38	0	
5	0	0	0	0	501	549	181	518	38	0	
6	0	0	0	0	497	544	180	515	38	0	
7	0	0	0	0	496	540	181	513	38	0	
8	0	0	0	0	501	532	181	512	38	0	
9	0	0	0	0	508	526	180	511	38	0	
10	0	0	0	0	507	519	180	510	38	0	
11	0	0	0	0	513	515	181	509	38	0	
12	0	0	0	0	510	511	181	509	38	0	
13	0	0	0	0	519	510	180	508	38	0	
14	0	0	0	0	517	511	181	509	38	0	
15	0	0	0	0	523	515	181	509	38	0	
0	0	0	0	0	514	520	181	511	38	0	
1	0	0	0	0	506	527	180	518	38	0	
2	0	0	0	0	512	532	181	525	38	0	
3	0	0	0	0	506	535	181	529	38	0	
4	0	0	0	0	502	537	180	523	38	0	
5	0	0	0	0	493	539	181	522	38	0	
6	0	0	0	0	498	537	181	519	38	0	
7	0	0	0	0	495	535	180	518	38	0	
8	0	0	0	0	497	531	180	515	38	0	
9	0	0	0	0	504	527	181	511	38	0	
10	0	0	0	0	509	521	181	508	38	0	
11	0	0	0	0	514	515	181	506	38	0	
12	0	0	0	0	512	513	181	504	38	0	
13	0	0	0	0	509	513	180	503	38	0	
14	0	0	0	0	514	513	181	503	38	0	
15	0	0	0	0	518	515	181	503	38	0	
0	0	0	0	0	511	518	181	505	38	0	
1	0	0	0	0	515	522	180	507	38	0	
2	0	0	0	0	519	526	181	510	38	0	
3	0	0	0	0	509	530	181	513	38	0	
4	0	0	0	0	500	532	181	515	38	0	
5	0	0	0	0	500	534	180	514	38	0	
6	0	0	0	0	506	535	180	513	38	0	
7	0	0	0	0	499	533	181	514	38	0	
8	0	0	0	0	496	530	181	514	38	0	
9	0	0	0	0	505	524	180	514	38	0	
10	0	0	0	0	508	518	181	510	38	0	
11	0	0	0	0	512	512	181	508	38	0	
12	0	0	0	0	512	509	180	507	38	0	
13	0	0	0	0	510	505	181	506	38	0	
14	0	0	0	0	512	502	181	504	38	0	
15	0	0	0	0	525	504	181	506	38	0	
0	0	0	0	0	512	508	180	509	38	0	
1	0	0	0	0	512	514	181	509	38	0	
2	0	0	0	0	511	521	181	510	38	0	
3	0	0	0	0	505	528	180	513	38	0	
4	0	0	0	0	501	534	180	527	38	0	
5	0	0	0	0	505	538	181	516	38	0	
6	0	0	0	0	508	540	181	516	38	0	
7	0	0	0	0	502	542	181	515	38	0	
8	0	0	0	0	500	540	180	515	38	0	
9	0	0	0	0	500	536	181	513	38	0	
10	0	0	0	0	502	529	181	510	38	0	
11	0	0	0	0	506	523	181	507	38	0	
12	0	0	0	0	514	518	180	506	38	0	
13	0	0	0	0	515	515	181	505	38	0	
14	0	0	0	0	515	512	181	504	38	0	
15	0	0	0	0	520	511	181	506	38	0	
0	0	0	0	0	510	515	180	507	38	0	
1	0	0	0	0	514	521	181	509	38	0	
2	0	0	0	0	516	527	181	510	38	0	
3	0	0	0	0	510	534	181	516	38	0	
4	0	0	0	0	507	540	180	520	38	0	
5	0	0	0	0	506	543	181	524	38	0	
6	0	0	0	0	500	546	181	523	38	0	
7	0	0	0	0	500	548	180	519	38	0	
8	0	0	0	0	499	548	180	516	38	0	
9	0	0	0	0	500	544	181	514	38	0	
10	0	0	0	0	499	540	181	512	38	0	
11	0	0	0	0	505	535	181	519	38	0	
12	0	0	0	0	507	531	180	508	38	0	
13	0	0	0	0	503	526	181	507	38	0	
14	0	0	0	0	512	523	181	506	38	0	
15	0	0	0	0	510	521	180	505	38	0	
0	0	0	0	0	520	522	181	505	38	0	
1	0	0	0	0	521	524	181	507	38	0	
2	0	0	0	0	515	527	180	510	38	0	
3	0	0	0	0	515	530	180	512	38	0	
4	0	0	0	0	513	535	181	513	38	0	
5	0	0	0	0	513	538	181	517	38	0	
6	0	0	0	0	502	540	180	516	38	0	
7	0	0	0	0	502	540	181	515	38	0	
8	0	0	0	0	503	540	181	514	38	0	
9	0	0	0	0	503	536	180	513	38	0	
10	0	0	0	0	499	534	181	512	38	0	
11	0	0	0	0	502	528	181	510	38	0	
12	0	0	0	0	503	522	181	508	38	0	
13	0	0	0	0	503	518	180	506	38	0	
14	0	0	0	0	514	513	181	504	38	0	
15	0	0	0	0	515	508	181	504	38	0	
0	0	0	0	0	512	505	180	504	38	0	
1	0	0	0	0	512	507	180	504	38	0	
2	0	0	0	0	522	511	181	507	38	0	
3	0	0	0	0	513	515	181	513	38	0	
4	0	0	0	0	515	518	180	515	38	0	
5	0	0	0	0	506	521	180	516	38	0	
6	0	0	0	0	506	524	181	516	38	0	
7	0	0	0	0	508	523	181	515	38	0	
8	0	0	0	0	510	524	180	517	38	0	
9	0	0	0	0	494	524	180	517	38	0	
10	0	0	0	0	504	522	181	516	38	0	
11	0	0	0	0	503	517	181	512	38	0	
12	0	0	0	0	501	512	180	521	38	0	
13	0	0	0	0	508	505	180	508	38	0	
14	0	0	0	0	511	502	181	504	38	0	
15	0	0	0	0	510	497	180	504	38	0	
0	0	0	0	0	510	493	181	503	38	0	
1	0	0	0	0	518	492	181	502	38	0	
2	0	0	0	0	518	492	180	503	38	0	
3	0	0	0	0	517	494	181	503	38	0	
4	0	0	0	0	515	498	181	508	38	0	
5	0	0	0	0	511	501	180	522	38	0	
6	0	0	0	0	506	503	180	514	38	0	
7	0	0	0	0	500	505	181	518	38	0	
8	0	0	0	0	501	505	181	519	38	0	
9	0	0	0	0	504	506	180	519	38	0	
10	0	0	0	0	497	505	181	520	38	0	
11	0	0	0	0	508	502	180	518	38	0	
12	0	0	0	0	504	496	180	515	38	0	
13	0	0	0	0	501	491	181	514	38	0	
14	0	0	0	0	504	485	181	511	38	0	
15	0	0	0	0	514	481	180	508	38	0	
0	0	0	0	0	511	477	181	510	38	0	
1	0	0	0	0	515	473	181	506	38	0	
2	0	0	0	0	519	473	181	505	38	0	
3	0	0	0	0	522	475	180	507	38	0	
4	0	0	0	0	516	479	181	517	38	0	
5	0	0	0	0	513	486	181	525	38	0	
6	0	0	0	0	517	491	180	530	38	0	
7	0	0	0	0	509	495	181	530	38	0	
8	0	0	0	0	506	498	181	530	38	0	
9	0	0	0	0	505	500	181	531	38	0	
10	0	0	0	0	498	502	180	528	38	0	
11	0	0	0	0	499	501	180	527	38	0	
12	0	0	0	0	505	499	181	524	38	0	
13	0	0	0	0	505	496	181	519	38	0	
14	0	0	0	0	501	492	180	515	38	0	
15	0	0	0	0	509	486	181	510	38	0	
0	0	0	0	0	513	483	181	508	38	0	
1	0	0	0	0	509	482	181	506	38	0	
2	0	0	0	0	516	480	180	504	38	0	
3	0	0	0	0	512	480	181	504	38	0	
4	0	0	0	0	516	482	181	510	38	0	
5	0	0	0	0	524	484	180	511	38	0	
6	0	0	0	0	515	489	180	514	38	0	
7	0	0	0	0	507	495	181	515	38	0	
8	0	0	0	0	512	499	181	516	38	0	
9	0	0	0	0	504	503	180	516	38	0	
10	0	0	0	0	501	504	181	515	38	0	
11	0	0	0	0	500	505	181	514	38	0	
12	0	0	0	0	498	503	180	511	38	0	
13	0	0	0	0	494	500	181	507	38	0	
14	0	0	0	0	500	495	180	503	38	0	
15	0	0	0	0	508	489	180	500	38	0	
0	0	0	0	0	508	486	181	499	38	0	
1	0	0	0	0	514	483	181	498	38	0	
2	0	0	0	0	514	479	180	496	38	0	
3	0	0	0	0	519	477	180	498	38	0	
4	0	0	0	0	516	477	181	500	38	0	
5	0	0	0	0	516	480	181	503	38	0	
6	0	0	0	0	517	485	180	509	38	0	
7	0	0	0	0	512	492	180	516	38	0	
8	0	0	0	0	504	499	181	519	38	0	
9	0	0	0	0	509	503	181	519	38	0	
10	0	0	0	0	511	506	180	520	38	0	
11	0	0	0	0	504	508	181	518	38	0	
12	0	0	0	0	490	508	181	516	38	0	
13	0	0	0	0	495	504	181	513	38	0	
14	0	0	0	0	503	498	180	510	38	0	
15	0	0	0	0	503	493	181	508	38	0	
0	0	0	0	0	510	489	181	514	38	0	
1	0	0	0	0	505	486	180	505	38	0	
2	0	0	0	0	516	485	180	503	38	0	
3	0	0	0	0	518	484	181	502	38	0	
4	0	0	0	0	520	483	181	503	38	0	
5	0	0	0	0	511	484	180	505	38	0	
6	0	0	0	0	515	487	181	505	38	0	
7	0	0	0	0	504	492	181	506	38	0	
8	0	0	0	0	511	496	180	511	38	0	
9	0	0	0	0	512	500	181	513	38	0	
10	0	0	0	0	508	503	181	515	38	0	
11	0	0	0	0	503	506	181	515	38	0	
12	0	0	0	0	502	507	180	514	38	0	
13	0	0	0	0	496	503	181	513	38	0	
14	0	0	0	0	503	499	181	510	38	0	
15	0	0	0	0	499	494	180	509	38	0	
0	0	0	0	0	513	490	181	507	38	0	
1	0	0	0	0	513	486	181	513	38	0	
2	0	0	0	0	513	481	180	508	38	0	
3	0	0	0	0	514	478	181	508	38	0	
4	0	0	0	0	510	477	181	505	38	0	
5	0	0	0	0	513	478	180	506	38	0	
6	0	0	0	0	514	481	181	507	38	0	
7	0	0	0	0	516	487	181	510	38	0	
8	0	0	0	0	515	494	181	511	38	0	
9	0	0	0	0	510	502	180	513	38	0	
10	0	0	0	0	505	506	181	514	38	0	
11	0	0	0	0	502	510	181	515	38	0	
12	0	0	0	0	504	512	180	515	38	0	
13	0	0	0	0	502	513	180	514	38	0	
14	0	0	0	0	499	509	181	517	38	0	
15	0	0	0	0	500	505	180	513	38	0	
0	0	0	0	0	503	502	180	508	38	0	
1	0	0	0	0	515	496	181	506	38	0	
2	0	0	0	0	517	492	181	505	38	0	
3	0	0	0	0	511	488	180	503	38	0	
4	0	0	0	0	507	486	181	502	38	0	
5	0	0	0	0	510	485	181	500	38	0	
6	0	0	0	0	523	484	180	503	38	0	
7	0	0	0	0	518	487	181	503	38	0	
8	0	0	0	0	511	493	181	506	38	0	
9	0	0	0	0	509	498	180	511	38	0	
10	0	0	0	0	508	503	181	516	38	0	
11	0	0	0	0	502	507	181	519	38	0	
12	0	0	0	0	504	509	180	520	38	0	
13	0	0	0	0	497	510	181	526	38	0	
14	0	0	0	0	500	509	181	531	38	0	
15	0	0	0	0	506	506	181	535	38	0	
0	0	0	0	0	506	504	180	527	38	0	
1	0	0	0	0	502	499	181	523	38	0	
2	0	0	0	0	509	494	181	519	38	0	
3	0	0	0	0	507	489	180	516	38	0	
4	0	0	0	0	510	487	181	513	38	0	
5	0	0	0	0	512	485	181	511	38	0	
6	0	0	0	0	515	485	180	511	38	0	
7	0	0	0	0	518	487	181	509	38	0	
8	0	0	0	0	519	492	181	508	38	0	
9	0	0	0	0	513	498	180	507	38	0	
10	0	0	0	0	513	503	180	507	38	0	
11	0	0	0	0	511	508	181	510	38	0	
12	0	0	0	0	497	511	181	512	38	0	
13	0	0	0	0	507	513	180	515	38	0	
14	0	0	0	0	498	515	181	518	38	0	
15	0	0	0	0	499	512	181	518	38	0	
0	0	0	0	0	492	508	180	517	38	0	
1	0	0	0	0	510	501	180	515	38	0	
2	0	0	0	0	505	495	181	515	38	0	
3	0	0	0	0	509	487	181	509	38	0	
4	0	0	0	0	518	483	180	506	38	0	
5	0	0	0	0	517	481	181	504	38	0	
6	0	0	0	0	509	480	181	504	38	0	
7	0	0	0	0	516	482	181	504	38	0	
8	0	0	0	0	511	486	180	505	38	0	
9	0	0	0	0	513	492	181	508	38	0	
10	0	0	0	0	512	499	181	512	38	0	
11	0	0	0	0	515	504	180	516	38	0	
12	0	0	0	0	506	508	180	516	38	0	
13	0	0	0	0	500	511	181	516	38	0	
14	0	0	0	0	492	513	181	516	38	0	
15	0	0	0	0	496	513	180	513	38	0	
0	0	0	0	0	505	511	180	512	38	0	
1	0	0	0	0	508	508	181	509	38	0	
2	0	0	0	0	502	504	181	506	38	0	
3	0	0	0	0	508	499	180	504	38	0	
4	0	0	0	0	511	494	181	502	38	0	
5	0	0	0	0	518	488	181	502	38	0	
6	0	0	0	0	507	484	181	502	38	0	
7	0	0	0	0	514	482	180	503	38	0	
8	0	0	0	0	518	484	181	504	38	0	
9	0	0	0	0	513	487	181	504	38	0	
10	0	0	0	0	513	493	181	505	38	0	
11	0	0	0	0	514	497	180	507	38	0	
12	0	0	0	0	507	503	181	508	38	0	
13	0	0	0	0	498	506	181	511	38	0	
14	0	0	0	0	504	507	180	512	38	0	
15	0	0	0	0	505	508	181	513	38	0	
0	0	0	0	0	492	506	181	514	38	0	
1	0	0	0	0	502	501	180	512	38	0	
2	0	0	0	0	503	495	180	510	38	0	
3	0	0	0	0	502	489	181	508	38	0	
4	0	0	0	0	509	484	181	507	38	0	
5	0	0	0	0	512	480	181	505	38	0	
6	0	0	0	0	511	477	180	504	38	0	
7	0	0	0	0	508	474	181	505	38	0	
8	0	0	0	0	517	474	181	508	38	0	
9	0	0	0	0	515	476	181	508	38	0	
10	0	0	0	0	514	481	180	510	38	0	
11	0	0	0	0	516	486	181	513	38	0	
12	0	0	0	0	511	491	181	515	38	0	
13	0	0	0	0	513	496	180	518	38	0	
14	0	0	0	0	506	499	181	519	38	0	
15	0	0	0	0	503	501	181	521	38	0	
0	0	0	0	0	497	501	181	521	38	0	
1	0	0	0	0	502	499	180	519	38	0	
2	0	0	0	0	503	497	181	518	38	0	
3	0	0	0	0	496	492	181	515	38	0	
4	0	0	0	0	504	487	181	512	38	0	
5	0	0	0	0	508	483	180	510	38	0	
6	0	0	0	0	504	478	181	510	38	0	
7	0	0	0	0	510	476	181	508	38	0	
8	0	0	0	0	519	473	181	507	38	0	
9	0	0	0	0	519	473	180	507	38	0	
10	0	0	0	0	511	476	181	508	38	0	
11	0	0	0	0	515	480	181	511	38	0	
12	0	0	0	0	510	486	181	513	38	0	
13	0	0	0	0	513	491	180	514	38	0	
14	0	0	0	0	508	496	180	517	38	0	
15	0	0	0	0	503	500	181	520	38	0	
0	0	0	0	0	504	502	181	523	38	0	
1	0	0	0	0	498	503	180	521	38	0	
2	0	0	0	0	496	499	181	520	38	0	
3	0	0	0	0	499	494	181	522	38	0	
4	0	0	0	0	503	488	180	517	38	0	
5	0	0	0	0	508	481	180	513	38	0	
6	0	0	0	0	507	476	181	510	38	0	
7	0	0	0	0	514	472	181	507	38	0	
8	0	0	0	0	506	471	181	507	38	0	
9	0	0	0	0	519	471	181	504	38	0	
10	0	0	0	0	518	472	180	504	38	0	
11	0	0	0	0	514	478	181	507	38	0	
12	0	0	0	0	513	483	181	507	38	0	
13	0	0	0	0	512	489	181	510	38	0	
14	0	0	0	0	504	496	180	513	38	0	
15	0	0	0	0	509	502	180	517	38	0	
0	0	0	0	0	503	505	181	518	38	0	
1	0	0	0	0	500	507	181	518	38	0	
2	0	0	0	0	501	508	181	516	38	0	
3	0	0	0	0	497	506	180	515	38	0	
4	0	0	0	0	507	501	181	513	38	0	
5	0	0	0	0	510	496	181	511	38	0	
6	0	0	0	0	503	492	181	511	38	0	
7	0	0	0	0	508	487	181	510	38	0	
8	0	0	0	0	513	485	180	508	38	0	
9	0	0	0	0	506	484	181	506	38	0	
10	0	0	0	0	518	487	181	505	38	0	
11	0	0	0	0	518	492	181	508	38	0	
12	0	0	0	0	516	498	180	510	38	0	
13	0	0	0	0	510	506	180	512	38	0	
14	0	0	0	0	512	513	181	517	38	0	
15	0	0	0	0	501	519	181	518	38	0	
0	0	0	0	0	504	522	180	519	38	0	
1	0	0	0	0	504	524	180	520	38	0	
2	0	0	0	0	504	525	180	520	38	0	
3	0	0	0	0	500	524	181	519	38	0	
4	0	0	0	0	503	522	181	517	38	0	
5	0	0	0	0	505	518	180	516	38	0	
6	0	0	0	0	511	515	180	516	38	0	
7	0	0	0	0	511	511	181	513	38	0	
8	0	0	0	0	508	510	181	511	38	0	
9	0	0	0	0	515	507	180	510	38	0	
10	0	0	0	0	512	506	180	509	38	0	
11	0	0	0	0	519	508	181	508	38	0	
12	0	0	0	0	512	512	181	507	38	0	
13	0	0	0	0	513	518	180	507	38	0	
14	0	0	0	0	511	524	180	507	38	0	
15	0	0	0	0	511	529	181	509	38	0	
0	0	0	0	0	506	534	181	511	38	0	
1	0	0	0	0	497	537	180	513	38	0	
2	0	0	0	0	508	538	181	514	38	0	
3	0	0	0	0	496	539	181	513	38	0	
4	0	0	0	0	502	536	180	512	38	0	
5	0	0	0	0	496	533	180	510	38	0	
6	0	0	0	0	502	529	181	508	38	0	
7	0	0	0	0	504	524	181	519	38	0	
8	0	0	0	0	512	521	180	508	38	0	
9	0	0	0	0	513	519	180	508	38	0	
10	0	0	0	0	517	517	181	506	38	0	
11	0	0	0	0	515	517	181	506	38	0	
12	0	0	0	0	519	519	180	506	38	0	
13	0	0	0	0	517	521	181	506	38	0	
14	0	0	0	0	513	526	181	510	38	0	
15	0	0	0	0	502	530	180	515	38	0	
0	0	0	0	0	508	534	181	519	38	0	
1	0	0	0	0	509	537	180	520	38	0	
2	0	0	0	0	508	537	181	519	38	0	
3	0	0	0	0	507	537	180	518	38	0	
4	0	0	0	0	502	535	180	518	38	0	
5	0	0	0	0	498	532	181	517	38	0	
6	0	0	0	0	505	527	181	515	38	0	
7	0	0	0	0	503	521	180	511	38	0	
8	0	0	0	0	504	516	181	508	38	0	
9	0	0	0	0	515	512	181	503	38	0	
10	0	0	0	0	511	509	181	500	38	0	
11	0	0	0	0	502	507	180	504	38	0	
12	0	0	0	0	518	507	181	500	38	0	
13	0	0	0	0	512	510	180	501	38	0	
14	0	0	0	0	515	516	181	503	38	0	
15	0	0	0	0	513	523	181	505	38	0	
0	0	0	0	0	515	528	180	508	38	0	
1	0	0	0	0	504	532	180	511	38	0	
2	0	0	0	0	498	534	181	513	38	0	
3	0	0	0	0	504	535	181	524	38	0	
4	0	0	0	0	505	536	180	515	38	0	
5	0	0	0	0	502	535	181	515	38	0	
6	0	0	0	0	507	531	181	512	38	0	
7	0	0	0	0	502	526	181	511	38	0	
8	0	0	0	0	508	520	181	510	38	0	
9	0	0	0	0	509	515	180	510	38	0	
10	0	0	0	0	512	512	181	509	38	0	
11	0	0	0	0	508	509	181	509	38	0	
12	0	0	0	0	515	506	181	509	38	0	
13	0	0	0	0	519	506	180	508	38	0	
14	0	0	0	0	513	508	181	510	38	0	
15	0	0	0	0	518	512	181	511	38	0	
0	0	0	0	0	512	517	180	516	38	0	
1	0	0	0	0	510	521	180	513	38	0	
2	0	0	0	0	504	524	181	524	38	0	
3	0	0	0	0	502	527	181	531	38	0	
4	0	0	0	0	503	528	180	534	38	0	
5	0	0	0	0	505	527	180	532	38	0	
6	0	0	0	0	496	524	181	529	38	0	
7	0	0	0	0	499	521	181	526	38	0	
8	0	0	0	0	496	516	180	528	38	0	
9	0	0	0	0	506	510	181	520	38	0	
10	0	0	0	0	508	505	181	515	38	0	
11	0	0	0	0	513	502	180	512	38	0	
12	0	0	0	0	509	499	180	509	38	0	
13	0	0	0	0	514	497	181	508	38	0	
14	0	0	0	0	522	499	181	515	38	0	
15	0	0	0	0	521	502	180	509	38	0	
0	0	0	0	0	513	505	181	510	38	0	
1	0	0	0	0	511	510	181	514	38	0	
2	0	0	0	0	501	514	180	515	38	0	
3	0	0	0	0	501	518	180	515	38	0	
4	0	0	0	0	507	519	181	519	38	0	
5	0	0	0	0	501	521	181	516	38	0	
6	0	0	0	0	497	520	180	515	38	0	
7	0	0	0	0	507	518	180	514	38	0	
8	0	0	0	0	502	512	181	512	38	0	
9	0	0	0	0	505	507	181	508	38	0	
10	0	0	0	0	507	501	181	508	38	0	
11	0	0	0	0	500	496	180	513	38	0	
12	0	0	0	0	514	493	181	509	38	0	
13	0	0	0	0	512	491	181	507	38	0	
14	0	0	0	0	523	492	181	507	38	0	
15	0	0	0	0	527	495	180	508	38	0	
0	0	0	0	0	513	500	181	513	38	0	
1	0	0	0	0	512	507	181	517	38	0	
2	0	0	0	0	512	512	180	532	38	0	
3	0	0	0	0	505	518	180	521	38	0	
4	0	0	0	0	505	521	181	525	38	0	
5	0	0	0	0	497	524	181	533	38	0	
6	0	0	0	0	499	524	180	537	38	0	
7	0	0	0	0	497	521	180	535	38	0	
8	0	0	0	0	499	518	181	540	38	0	
9	0	0	0	0	502	511	181	529	38	0	
10	0	0	0	0	504	504	180	524	38	0	
11	0	0	0	0	511	499	181	520	38	0	
12	0	0	0	0	515	496	181	516	38	0	
13	0	0	0	0	508	495	180	512	38	0	
14	0	0	0	0	518	494	181	510	38	0	
15	0	0	0	0	518	495	181	509	38	0	
0	0	0	0	0	519	498	181	508	38	0	
1	0	0	0	0	516	504	180	508	38	0	
2	0	0	0	0	508	509	180	509	38	0	
3	0	0	0	0	511	514	181	510	38	0	
4	0	0	0	0	504	519	181	512	38	0	
5	0	0	0	0	507	523	180	526	38	0	
6	0	0	0	0	505	524	181	515	38	0	
7	0	0	0	0	495	523	181	514	38	0	
8	0	0	0	0	504	520	181	512	38	0	
9	0	0	0	0	499	515	180	511	38	0	
10	0	0	0	0	500	510	181	507	38	0	
11	0	0	0	0	514	505	181	508	38	0	
12	0	0	0	0	503	500	180	502	38	0	
13	0	0	0	0	508	495	180	501	38	0	
14	0	0	0	0	511	492	181	502	38	0	
15	0	0	0	0	515	491	180	502	38	0	
0	0	0	0	0	525	493	180	501	38	0	
1	0	0	0	0	504	497	181	502	38	0	
2	0	0	0	0	516	503	181	505	38	0	
3	0	0	0	0	502	507	180	511	38	0	
4	0	0	0	0	511	513	181	517	38	0	
5	0	0	0	0	509	516	181	519	38	0	
6	0	0	0	0	507	519	181	520	38	0	
7	0	0	0	0	504	521	180	520	38	0	
8	0	0	0	0	500	519	181	517	38	0	
9	0	0	0	0	503	517	180	515	38	0	
10	0	0	0	0	499	514	181	512	38	0	
11	0	0	0	0	510	510	181	508	38	0	
12	0	0	0	0	511	504	180	505	38	0	
13	0	0	0	0	506	499	180	504	38	0	
14	0	0	0	0	508	496	181	503	38	0	
15	0	0	0	0	510	492	180	503	38	0	
0	0	0	0	0	520	492	181	503	38	0	
1	0	0	0	0	521	495	181	504	38	0	
2	0	0	0	0	509	498	181	507	38	0	
3	0	0	0	0	512	503	180	511	38	0	
4	0	0	0	0	512	508	180	513	38	0	
5	0	0	0	0	506	513	181	515	38	0	
6	0	0	0	0	508	516	181	523	38	0	
7	0	0	0	0	507	519	180	517	38	0	
8	0	0	0	0	496	519	181	518	38	0	
9	0	0	0	0	504	517	181	516	38	0	
10	0	0	0	0	503	513	180	514	38	0	
11	0	0	0	0	494	506	181	511	38	0	
12	0	0	0	0	502	501	181	510	38	0	
13	0	0	0	0	511	496	180	509	38	0	
14	0	0	0	0	515	493	181	508	38	0	
15	0	0	0	0	505	492	181	505	38	0	
0	0	0	0	0	520	489	181	505	38	0	
1	0	0	0	0	513	491	180	504	38	0	
2	0	0	0	0	518	493	181	505	38	0	
3	0	0	0	0	513	497	181	507	38	0	
4	0	0	0	0	512	503	181	509	38	0	
5	0	0	0	0	508	508	180	510	38	0	
6	0	0	0	0	507	511	181	511	38	0	
7	0	0	0	0	503	514	181	511	38	0	
8	0	0	0	0	503	515	180	510	38	0	
9	0	0	0	0	496	515	180	510	38	0	
10	0	0	0	0	499	513	181	510	38	0	
11	0	0	0	0	506	508	181	509	38	0	
12	0	0	0	0	509	503	180	508	38	0	
13	0	0	0	0	502	498	181	506	38	0	
14	0	0	0	0	505	494	181	505	38	0	
15	0	0	0	0	514	490	180	504	38	0	
0	0	0	0	0	513	486	181	503	38	0	
1	0	0	0	0	518	486	181	503	38	0	
2	0	0	0	0	519	488	180	505	38	0	
3	0	0	0	0	518	492	181	506	38	0	
4	0	0	0	0	515	496	181	509	38	0	
5	0	0	0	0	506	501	180	513	38	0	
6	0	0	0	0	505	507	181	515	38	0	
7	0	0	0	0	503	510	181	523	38	0	
8	0	0	0	0	506	512	180	519	38	0	
9	0	0	0	0	503	512	180	516	38	0	
10	0	0	0	0	499	512	181	515	38	0	
11	0	0	0	0	499	511	181	512	38	0	
12	0	0	0	0	507	507	180	510	38	0	
13	0	0	0	0	504	503	181	508	38	0	
14	0	0	0	0	505	500	181	506	38	0	
15	0	0	0	0	507	497	181	503	38	0	
0	0	0	0	0	507	496	180	503	38	0	
1	0	0	0	0	513	494	181	503	38	0	
2	0	0	0	0	517	495	181	503	38	0	
3	0	0	0	0	510	500	181	504	38	0	
4	0	0	0	0	518	505	180	507	38	0	
5	0	0	0	0	511	510	180	522	38	0	
6	0	0	0	0	509	515	181	514	38	0	
7	0	0	0	0	505	519	181	515	38	0	
8	0	0	0	0	507	523	180	514	38	0	
9	0	0	0	0	501	524	180	513	38	0	
10	0	0	0	0	502	524	181	513	38	0	
11	0	0	0	0	504	522	181	512	38	0	
12	0	0	0	0	507	517	180	517	38	0	
13	0	0	0	0	498	510	181	508	38	0	
14	0	0	0	0	499	504	181	505	38	0	
15	0	0	0	0	509	499	180	504	38	0	
0	0	0	0	0	507	494	181	502	38	0	
1	0	0	0	0	511	492	181	501	38	0	
2	0	0	0	0	511	491	181	500	38	0	
3	0	0	0	0	521	493	180	502	38	0	
4	0	0	0	0	519	497	181	502	38	0	
5	0	0	0	0	515	503	181	504	38	0	
6	0	0	0	0	512	508	181	508	38	0	
7	0	0	0	0	512	514	180	511	38	0	
8	0	0	0	0	504	519	181	512	38	0	
9	0	0	0	0	497	521	181	514	38	0	
10	0	0	0	0	504	521	180	515	38	0	
11	0	0	0	0	501	519	181	515	38	0	
12	0	0	0	0	496	516	181	514	38	0	
13	0	0	0	0	501	512	180	514	38	0	
14	0	0	0	0	499	508	181	511	38	0	
15	0	0	0	0	508	504	181	508	38	0	
0	0	0	0	0	517	499	181	504	38	0	
1	0	0	0	0	512	498	180	504	38	0	
2	0	0	0	0	516	497	181	502	38	0	
3	0	0	0	0	516	497	181	500	38	0	
4	0	0	0	0	508	499	181	500	38	0	
5	0	0	0	0	512	504	180	503	38	0	
6	0	0	0	0	514	509	180	506	38	0	
7	0	0	0	0	505	513	181	511	38	0	
8	0	0	0	0	510	515	181	517	38	0	
9	0	0	0	0	504	518	180	519	38	0	
10	0	0	0	0	507	520	181	520	38	0	
11	0	0	0	0	506	520	181	521	38	0	
12	0	0	0	0	505	518	180	520	38	0	
13	0	0	0	0	502	514	180	518	38	0	
14	0	0	0	0	503	509	181	516	38	0	
15	0	0	0	0	507	505	181	512	38	0	
0	0	0	0	0	514	501	180	510	38	0	
1	0	0	0	0	514	499	180	514	38	0	
2	0	0	0	0	514	499	181	507	38	0	
3	0	0	0	0	513	497	181	505	38	0	
4	0	0	0	0	509	499	180	504	38	0	
5	0	0	0	0	519	502	181	505	38	0	
6	0	0	0	0	514	506	181	508	38	0	
7	0	0	0	0	511	508	181	512	38	0	
8	0	0	0	0	511	513	180	515	38	0	
9	0	0	0	0	503	517	181	518	38	0	
10	0	0	0	0	504	519	181	519	38	0	
11	0	0	0	0	504	521	181	519	38	0	
12	0	0	0	0	503	524	180	518	38	0	
13	0	0	0	0	498	523	180	518	38	0	
14	0	0	0	0	500	519	181	518	38	0	
15	0	0	0	0	501	513	180	516	38	0	
0	0	0	0	0	510	508	180	512	38	0	
1	0	0	0	0	508	502	181	508	38	0	
2	0	0	0	0	513	497	181	505	38	0	
3	0	0	0	0	511	493	180	504	38	0	
4	0	0	0	0	511	488	181	505	38	0	
5	0	0	0	0	518	488	181	509	38	0	
6	0	0	0	0	518	491	180	510	38	0	
7	0	0	0	0	517	494	181	513	38	0	
8	0	0	0	0	513	496	181	518	38	0	
9	0	0	0	0	514	502	181	523	38	0	
10	0	0	0	0	509	508	180	528	38	0	
11	0	0	0	0	503	513	181	529	38	0	
12	0	0	0	0	499	514	181	528	38	0	
13	0	0	0	0	500	513	180	531	38	0	
14	0	0	0	0	501	511	180	524	38	0	
15	0	0	0	0	501	507	181	519	38	0	
0	0	0	0	0	505	501	181	515	38	0	
1	0	0	0	0	505	495	180	512	38	0	
2	0	0	0	0	510	489	180	508	38	0	
3	0	0	0	0	506	483	181	507	38	0	
4	0	0	0	0	518	481	181	505	38	0	
5	0	0	0	0	512	480	180	504	38	0	
6	0	0	0	0	523	481	181	504	38	0	
7	0	0	0	0	512	485	181	505	38	0	
8	0	0	0	0	511	492	181	507	38	0	
9	0	0	0	0	510	499	180	507	38	0	
10	0	0	0	0	510	506	180	508	38	0	
11	0	0	0	0	508	510	181	519	38	0	
12	0	0	0	0	500	510	181	512	38	0	
13	0	0	0	0	496	509	180	512	38	0	
14	0	0	0	0	495	505	181	511	38	0	
15	0	0	0	0	504	501	181	510	38	0	
0	0	0	0	0	509	496	181	511	38	0	
1	0	0	0	0	503	492	180	510	38	0	
2	0	0	0	0	504	488	181	508	38	0	
3	0	0	0	0	510	484	181	505	38	0	
4	0	0	0	0	516	481	180	504	38	0	
5	0	0	0	0	512	478	181	505	38	0	
6	0	0	0	0	516	478	181	505	38	0	
7	0	0	0	0	513	480	180	507	38	0	
8	0	0	0	0	521	484	180	510	38	0	
9	0	0	0	0	520	488	181	513	38	0	
10	0	0	0	0	509	493	181	515	38	0	
11	0	0	0	0	504	495	180	518	38	0	
12	0	0	0	0	505	498	180	517	38	0	
13	0	0	0	0	495	501	181	515	38	0	
14	0	0	0	0	499	503	181	512	38	0	
15	0	0	0	0	496	504	181	509	38	0	
0	0	0	0	0	504	503	180	506	38	0	
1	0	0	0	0	495	498	180	504	38	0	
2	0	0	0	0	501	492	181	501	38	0	
3	0	0	0	0	512	487	181	499	38	0	
4	0	0	0	0	519	481	180	500	38	0	
5	0	0	0	0	511	478	180	501	38	0	
6	0	0	0	0	523	476	181	504	38	0	
7	0	0	0	0	516	478	181	504	38	0	
8	0	0	0	0	511	480	180	504	38	0	
9	0	0	0	0	518	484	180	510	38	0	
10	0	0	0	0	510	488	181	513	38	0	
11	0	0	0	0	508	491	181	514	38	0	
12	0	0	0	0	499	495	180	515	38	0	
13	0	0	0	0	504	499	180	516	38	0	
14	0	0	0	0	506	500	181	516	38	0	
15	0	0	0	0	500	498	180	516	38	0	
0	0	0	0	0	496	496	180	515	38	0	
1	0	0	0	0	502	492	181	511	38	0	
2	0	0	0	0	503	489	181	510	38	0	
3	0	0	0	0	515	486	180	510	38	0	
4	0	0	0	0	511	482	180	509	38	0	
5	0	0	0	0	507	481	181	509	38	0	
6	0	0	0	0	508	479	181	508	38	0	
7	0	0	0	0	513	477	181	507	38	0	
8	0	0	0	0	525	478	180	509	38	0	
9	0	0	0	0	517	480	181	510	38	0	
10	0	0	0	0	512	486	181	511	38	0	
11	0	0	0	0	507	492	180	516	38	0	
12	0	0	0	0	503	496	181	519	38	0	
13	0	0	0	0	504	498	181	521	38	0	
14	0	0	0	0	500	501	180	521	38	0	
15	0	0	0	0	500	503	181	519	38	0	
0	0	0	0	0	497	503	181	516	38	0	
1	0	0	0	0	500	502	180	515	38	0	
2	0	0	0	0	496	499	181	514	38	0	
3	0	0	0	0	506	496	181	512	38	0	
4	0	0	0	0	508	491	181	512	38	0	
5	0	0	0	0	510	487	180	512	38	0	
6	0	0	0	0	512	484	181	509	38	0	
7	0	0	0	0	508	481	181	508	38	0	
8	0	0	0	0	520	480	181	509	38	0	
9	0	0	0	0	520	484	180	510	38	0	
10	0	0	0	0	510	489	180	516	38	0	
11	0	0	0	0	511	494	181	516	38	0	
12	0	0	0	0	511	499	181	518	38	0	
13	0	0	0	0	512	504	180	519	38	0	
14	0	0	0	0	509	508	181	520	38	0	
15	0	0	0	0	503	511	181	519	38	0	
0	0	0	0	0	500	512	180	518	38	0	
1	0	0	0	0	497	510	181	516	38	0	
2	0	0	0	0	499	506	181	514	38	0	
3	0	0	0	0	500	501	180	509	38	0	
4	0	0	0	0	505	497	181	505	38	0	
5	0	0	0	0	506	492	181	504	38	0	
6	0	0	0	0	512	490	180	504	38	0	
7	0	0	0	0	511	489	181	504	38	0	
8	0	0	0	0	516	487	181	509	38	0	
9	0	0	0	0	520	489	180	505	38	0	
10	0	0	0	0	515	492	181	507	38	0	
11	0	0	0	0	516	496	181	508	38	0	
12	0	0	0	0	507	502	180	510	38	0	
13	0	0	0	0	512	507	181	511	38	0	
14	0	0	0	0	509	512	181	518	38	0	
15	0	0	0	0	498	515	180	524	38	0	
0	0	0	0	0	505	518	180	525	38	0	
1	0	0	0	0	500	518	181	524	38	0	
2	0	0	0	0	498	514	181	520	38	0	
3	0	0	0	0	504	509	180	516	38	0	
4	0	0	0	0	506	502	180	513	38	0	
5	0	0	0	0	512	497	181	510	38	0	
6	0	0	0	0	511	492	181	506	38	0	
7	0	0	0	0	515	487	180	509	38	0	
8	0	0	0	0	505	485	180	501	38	0	
9	0	0	0	0	521	483	181	501	38	0	
10	0	0	0	0	518	484	181	503	38	0	
11	0	0	0	0	515	488	180	506	38	0	
12	0	0	0	0	505	494	181	509	38	0	
13	0	0	0	0	514	498	181	510	38	0	
14	0	0	0	0	508	503	180	511	38	0	
15	0	0	0	0	505	506	180	510	38	0	
0	0	0	0	0	503	508	181	512	38	0	
1	0	0	0	0	510	511	180	515	38	0	
2	0	0	0	0	505	511	180	516	38	0	
3	0	0	0	0	497	510	180	517	38	0	
4	0	0	0	0	504	508	181	516	38	0	
5	0	0	0	0	508	506	181	513	38	0	
6	0	0	0	0	509	504	180	517	38	0	
7	0	0	0	0	512	502	180	507	38	0	
8	0	0	0	0	513	503	181	505	38	0	
9	0	0	0	0	513	504	181	505	38	0	
10	0	0	0	0	509	507	181	504	38	0	
11	0	0	0	0	511	512	180	505	38	0	
12	0	0	0	0	515	519	181	509	38	0	
13	0	0	0	0	508	527	181	514	38	0	
14	0	0	0	0	510	536	180	515	38	0	
15	0	0	0	0	505	543	180	518	38	0	
0	0	0	0	0	504	549	180	519	38	0	
1	0	0	0	0	501	553	180	518	38	0	
2	0	0	0	0	504	555	180	518	38	0	
3	0	0	0	0	495	554	179	516	38	0	
4	0	0	0	0	498	551	181	515	38	0	
5	0	0	0	0	500	546	180	513	38	0	
6	0	0	0	0	506	542	180	510	38	0	
7	0	0	0	0	511	539	180	507	38	0	
8	0	0	0	0	513	536	181	505	38	0	
9	0	0	0	0	511	535	181	504	38	0	
10	0	0	0	0	511	533	180	503	38	0	
11	0	0	0	0	523	536	180	503	38	0	
12	0	0	0	0	522	538	181	512	38	0	
13	0	0	0	0	511	542	180	509	38	0	
14	0	0	0	0	508	547	180	511	38	0	
15	0	0	0	0	502	552	181	513	38	0	
0	0	0	0	0	506	555	180	514	38	0	
1	0	0	0	0	513	557	180	514	38	0	
2	0	0	0	0	506	559	179	513	38	0	
3	0	0	0	0	492	560	181	516	38	0	
4	0	0	0	0	502	555	180	512	38	0	
5	0	0	0	0	494	549	180	511	38	0	
6	0	0	0	0	513	543	181	511	38	0	
7	0	0	0	0	509	535	181	510	38	0	
8	0	0	0	0	508	527	181	508	38	0	
9	0	0	0	0	516	520	180	504	38	0	
10	0	0	0	0	504	515	180	507	38	0	
11	0	0	0	0	515	510	181	504	38	0	
12	0	0	0	0	512	505	181	505	38	0	
13	0	0	0	0	521	502	181	508	38	0	
14	0	0	0	0	514	501	180	509	38	0	
15	0	0	0	0	510	500	181	512	38	0	
0	0	0	0	0	510	497	181	514	38	0	
1	0	0	0	0	508	495	181	515	38	0	
2	0	0	0	0	501	492	180	515	38	0	
3	0	0	0	0	503	489	181	515	38	0	
4	0	0	0	0	493	485	180	516	38	0	
5	0	0	0	0	500	480	181	514	38	0	
6	0	0	0	0	499	473	181	513	38	0	
7	0	0	0	0	499	464	180	510	38	0	
8	0	0	0	0	505	455	181	509	38	0	
9	0	0	0	0	512	447	181	507	38	0	
10	0	0	0	0	515	441	181	506	38	0	
11	0	0	0	0	513	435	180	506	38	0	
12	0	0	0	0	514	434	181	507	38	0	
13	0	0	0	0	514	437	181	509	38	0	
14	0	0	0	0	514	441	181	515	38	0	
15	0	0	0	0	514	444	180	519	38	0	
0	0	0	0	0	520	448	181	520	38	0	
1	0	0	0	0	510	451	181	531	38	0	
2	0	0	0	0	503	454	180	524	38	0	
3	0	0	0	0	499	455	181	521	38	0	
4	0	0	0	0	502	455	181	517	38	0	
5	0	0	0	0	504	454	181	515	38	0	
6	0	0	0	0	496	451	180	512	38	0	
7	0	0	0	0	502	449	181	509	38	0	
8	0	0	0	0	503	448	181	510	38	0	
9	0	0	0	0	504	448	181	507	38	0	
10	0	0	0	0	513	451	180	506	38	0	
11	0	0	0	0	509	456	181	505	38	0	
12	0	0	0	0	514	462	181	507	38	0	
13	0	0	0	0	518	469	180	508	38	0	
14	0	0	0	0	513	479	180	523	38	0	
15	0	0	0	0	521	490	181	514	38	0	
0	0	0	0	0	516	502	181	515	38	0	
1	0	0	0	0	511	511	180	517	38	0	
2	0	0	0	0	509	519	180	517	38	0	
3	0	0	0	0	499	526	181	516	38	0	
4	0	0	0	0	515	531	180	516	38	0	
5	0	0	0	0	493	535	180	516	38	0	
6	0	0	0	0	501	536	180	513	38	0	
7	0	0	0	0	499	534	181	509	38	0	
8	0	0	0	0	499	532	180	506	38	0	
9	0	0	0	0	511	528	180	505	38	0	
10	0	0	0	0	505	524	180	504	38	0	
11	0	0	0	0	516	523	181	504	38	0	
12	0	0	0	0	515	522	181	503	38	0	
13	0	0	0	0	515	523	181	503	38	0	
14	0	0	0	0	520	526	180	503	38	0	
15	0	0	0	0	515	529	180	505	38	0	
0	0	0	0	0	511	535	181	507	38	0	
1	0	0	0	0	508	539	180	519	38	0	
2	0	0	0	0	505	543	180	509	38	0	
3	0	0	0	0	509	546	180	509	38	0	
4	0	0	0	0	501	548	180	510	38	0	
5	0	0	0	0	504	548	179	511	38	0	
6	0	0	0	0	499	546	181	512	38	0	
7	0	0	0	0	504	542	180	515	38	0	
8	0	0	0	0	499	537	180	514	38	0	
9	0	0	0	0	502	532	180	514	38	0	
10	0	0	0	0	510	527	180	513	38	0	
11	0	0	0	0	510	522	181	512	38	0	
12	0	0	0	0	510	519	180	510	38	0	
13	0	0	0	0	515	516	181	511	38	0	
14	0	0	0	0	514	517	180	511	38	0	
15	0	0	0	0	510	519	180	512	38	0	
0	0	0	0	0	514	524	181	513	38	0	
1	0	0	0	0	513	530	181	517	38	0	
2	0	0	0	0	516	536	180	519	38	0	
3	0	0	0	0	507	540	180	521	38	0	
4	0	0	0	0	507	543	180	524	38	0	
5	0	0	0	0	503	544	180	524	38	0	
6	0	0	0	0	504	543	180	523	38	0	
7	0	0	0	0	504	541	180	520	38	0	
8	0	0	0	0	502	537	180	516	38	0	
9	0	0	0	0	503	531	180	512	38	0	
10	0	0	0	0	505	526	181	512	38	0	
11	0	0	0	0	501	520	180	510	38	0	
12	0	0	0	0	515	515	181	508	38	0	
13	0	0	0	0	506	512	181	505	38	0	
14	0	0	0	0	511	509	180	505	38	0	
15	0	0	0	0	522	508	181	505	38	0	
0	0	0	0	0	515	509	180	505	38	0	
1	0	0	0	0	518	513	180	508	38	0	
2	0	0	0	0	514	519	180	512	38	0	
3	0	0	0	0	511	523	181	515	38	0	
4	0	0	0	0	512	526	180	518	38	0	
5	0	0	0	0	506	528	180	520	38	0	
6	0	0	0	0	507	530	180	520	38	0	
7	0	0	0	0	496	530	181	519	38	0	
8	0	0	0	0	500	528	180	519	38	0	
9	0	0	0	0	508	522	180	518	38	0	
10	0	0	0	0	498	517	181	517	38	0	
11	0	0	0	0	507	511	181	513	38	0	
12	0	0	0	0	506	506	180	512	38	0	
13	0	0	0	0	508	505	181	511	38	0	
14	0	0	0	0	511	503	181	509	38	0	
15	0	0	0	0	520	503	180	510	38	0	
0	0	0	0	0	516	504	180	510	38	0	
1	0	0	0	0	509	508	181	510	38	0	
2	0	0	0	0	513	512	181	517	38	0	
3	0	0	0	0	513	515	180	516	38	0	
4	0	0	0	0	502	519	181	519	38	0	
5	0	0	0	0	507	519	181	520	38	0	
6	0	0	0	0	508	520	180	520	38	0	
7	0	0	0	0	496	519	181	520	38	0	
8	0	0	0	0	497	519	180	519	38	0	
9	0	0	0	0	504	515	180	518	38	0	
10	0	0	0	0	501	509	181	516	38	0	
11	0	0	0	0	504	503	181	514	38	0	
12	0	0	0	0	504	497	180	512	38	0	
13	0	0	0	0	509	493	181	509	38	0	
14	0	0	0	0	511	489	181	507	38	0	
15	0	0	0	0	523	487	180	505	38	0	
0	0	0	0	0	518	488	180	504	38	0	
1	0	0	0	0	515	492	181	505	38	0	
2	0	0	0	0	513	498	181	509	38	0	
3	0	0	0	0	506	504	180	511	38	0	
4	0	0	0	0	508	511	180	515	38	0	
5	0	0	0	0	512	517	181	518	38	0	
6	0	0	0	0	506	520	180	519	38	0	
7	0	0	0	0	499	523	180	522	38	0	
8	0	0	0	0	493	524	181	521	38	0	
9	0	0	0	0	503	523	180	519	38	0	
10	0	0	0	0	499	519	180	515	38	0	
11	0	0	0	0	497	515	181	524	38	0	
12	0	0	0	0	508	510	181	511	38	0	
13	0	0	0	0	518	504	180	508	38	0	
14	0	0	0	0	515	499	180	506	38	0	
15	0	0	0	0	509	498	181	506	38	0	
0	0	0	0	0	514	497	180	505	38	0	
1	0	0	0	0	515	500	180	506	38	0	
2	0	0	0	0	514	505	181	505	38	0	
3	0	0	0	0	515	511	180	505	38	0	
4	0	0	0	0	504	516	180	507	38	0	
5	0	0	0	0	508	523	181	512	38	0	
6	0	0	0	0	508	529	180	517	38	0	
7	0	0	0	0	502	533	180	519	38	0	
8	0	0	0	0	509	534	180	520	38	0	
9	0	0	0	0	501	533	180	521	38	0	
10	0	0	0	0	502	531	180	520	38	0	
11	0	0	0	0	493	528	180	519	38	0	
12	0	0	0	0	503	523	180	515	38	0	
13	0	0	0	0	510	518	180	514	38	0	
14	0	0	0	0	514	514	181	512	38	0	
15	0	0	0	0	511	511	181	510	38	0	
0	0	0	0	0	511	508	180	509	38	0	
1	0	0	0	0	515	507	181	507	38	0	
2	0	0	0	0	518	508	181	507	38	0	
3	0	0	0	0	517	512	180	505	38	0	
4	0	0	0	0	509	516	180	505	38	0	
5	0	0	0	0	514	521	181	511	38	0	
6	0	0	0	0	508	526	180	514	38	0	
7	0	0	0	0	504	527	180	517	38	0	
8	0	0	0	0	502	527	180	516	38	0	
9	0	0	0	0	495	527	180	515	38	0	
10	0	0	0	0	498	526	180	514	38	0	
11	0	0	0	0	504	522	180	509	38	0	
12	0	0	0	0	506	517	181	505	38	0	
13	0	0	0	0	505	513	181	505	38	0	
14	0	0	0	0	512	507	180	503	38	0	
15	0	0	0	0	503	503	180	501	38	0	
0	0	0	0	0	508	500	181	502	38	0	
1	0	0	0	0	508	497	180	501	38	0	
2	0	0	0	0	517	496	180	501	38	0	
3	0	0	0	0	519	499	180	504	38	0	
4	0	0	0	0	521	504	180	508	38	0	
5	0	0	0	0	510	508	180	513	38	0	
6	0	0	0	0	508	512	180	518	38	0	
7	0	0	0	0	512	517	180	519	38	0	
8	0	0	0	0	497	521	180	519	38	0	
9	0	0	0	0	505	524	180	518	38	0	
10	0	0	0	0	500	524	180	518	38	0	
11	0	0	0	0	498	523	180	515	38	0	
12	0	0	0	0	503	519	180	512	38	0	
13	0	0	0	0	495	513	181	522	38	0	
14	0	0	0	0	499	507	181	508	38	0	
15	0	0	0	0	508	504	180	507	38	0	
0	0	0	0	0	514	503	180	505	38	0	
1	0	0	0	0	516	504	181	503	38	0	
2	0	0	0	0	525	503	180	502	38	0	
3	0	0	0	0	507	506	180	505	38	0	
4	0	0	0	0	515	509	181	504	38	0	
5	0	0	0	0	515	514	180	506	38	0	
6	0	0	0	0	511	520	180	509	38	0	
7	0	0	0	0	510	525	180	511	38	0	
8	0	0	0	0	504	529	181	513	38	0	
9	0	0	0	0	507	533	180	519	38	0	
10	0	0	0	0	495	536	180	516	38	0	
11	0	0	0	0	507	535	180	517	38	0	
12	0	0	0	0	500	531	180	516	38	0	
13	0	0	0	0	508	526	180	515	38	0	
14	0	0	0	0	504	521	180	513	38	0	
15	0	0	0	0	509	518	180	511	38	0	
0	0	0	0	0	510	515	181	510	38	0	
1	0	0	0	0	508	512	180	510	38	0	
2	0	0	0	0	511	510	180	510	38	0	
3	0	0	0	0	516	509	180	512	38	0	
4	0	0	0	0	514	510	180	512	38	0	
5	0	0	0	0	506	514	181	513	38	0	
6	0	0	0	0	520	519	180	514	38	0	
7	0	0	0	0	511	523	181	517	38	0	
8	0	0	0	0	512	526	180	517	38	0	
9	0	0	0	0	504	528	180	519	38	0	
10	0	0	0	0	502	530	180	519	38	0	
11	0	0	0	0	502	530	181	518	38	0	
12	0	0	0	0	503	527	180	517	38	0	
13	0	0	0	0	508	523	180	515	38	0	
14	0	0	0	0	496	519	180	513	38	0	
15	0	0	0	0	505	516	181	511	38	0	
0	0	0	0	0	507	512	180	508	38	0	
1	0	0	0	0	504	508	180	505	38	0	
2	0	0	0	0	505	505	180	505	38	0	
3	0	0	0	0	513	503	180	504	38	0	
4	0	0	0	0	524	503	180	504	38	0	
5	0	0	0	0	516	505	180	512	38	0	
6	0	0	0	0	511	510	180	508	38	0	
7	0	0	0	0	509	514	180	511	38	0	
8	0	0	0	0	514	519	180	515	38	0	
9	0	0	0	0	504	526	181	517	38	0	
10	0	0	0	0	508	529	180	518	38	0	
11	0	0	0	0	503	532	180	532	38	0	
12	0	0	0	0	508	533	180	521	38	0	
13	0	0	0	0	504	531	181	520	38	0	
14	0	0	0	0	503	526	180	518	38	0	
15	0	0	0	0	503	521	180	514	38	0	
0	0	0	0	0	504	516	180	512	38	0	
1	0	0	0	0	508	512	181	509	38	0	
2	0	0	0	0	508	508	181	508	38	0	
3	0	0	0	0	506	504	180	508	38	0	
4	0	0	0	0	514	502	180	508	38	0	
5	0	0	0	0	511	504	181	507	38	0	
6	0	0	0	0	518	507	181	507	38	0	
7	0	0	0	0	515	511	180	507	38	0	
8	0	0	0	0	510	515	181	509	38	0	
9	0	0	0	0	508	519	180	510	38	0	
10	0	0	0	0	511	523	180	511	38	0	
11	0	0	0	0	502	524	180	516	38	0	
12	0	0	0	0	497	527	181	512	38	0	
13	0	0	0	0	504	526	180	512	38	0	
14	0	0	0	0	502	522	180	510	38	0	
15	0	0	0	0	495	516	181	508	38	0	
0	0	0	0	0	507	510	180	505	38	0	
1	0	0	0	0	515	502	180	505	38	0	
2	0	0	0	0	505	497	181	504	38	0	
3	0	0	0	0	512	493	181	503	38	0	
4	0	0	0	0	516	490	180	502	38	0	
5	0	0	0	0	517	489	180	501	38	0	
6	0	0	0	0	515	492	181	505	38	0	
7	0	0	0	0	516	496	180	508	38	0	
8	0	0	0	0	512	501	180	511	38	0	
9	0	0	0	0	514	505	181	513	38	0	
10	0	0	0	0	509	508	181	516	38	0	
11	0	0	0	0	512	511	180	518	38	0	
12	0	0	0	0	507	513	181	520	38	0	
13	0	0	0	0	498	513	180	521	38	0	
14	0	0	0	0	504	511	180	519	38	0	
15	0	0	0	0	494	507	180	519	38	0	
0	0	0	0	0	497	502	181	518	38	0	
1	0	0	0	0	505	497	181	516	38	0	
2	0	0	0	0	500	492	180	514	38	0	
3	0	0	0	0	517	488	180	511	38	0	
4	0	0	0	0	518	485	181	507	38	0	
5	0	0	0	0	516	483	180	505	38	0	
6	0	0	0	0	518	483	180	504	38	0	
7	0	0	0	0	515	484	181	504	38	0	
8	0	0	0	0	516	488	180	508	38	0	
9	0	0	0	0	504	494	180	512	38	0	
10	0	0	0	0	511	499	181	514	38	0	
11	0	0	0	0	502	504	180	515	38	0	
12	0	0	0	0	506	505	180	514	38	0	
13	0	0	0	0	509	505	181	513	38	0	
14	0	0	0	0	498	505	180	511	38	0	
15	0	0	0	0	501	502	180	512	38	0	
0	0	0	0	0	499	498	180	512	38	0	
1	0	0	0	0	507	494	180	510	38	0	
2	0	0	0	0	504	489	180	507	38	0	
3	0	0	0	0	512	486	181	504	38	0	
4	0	0	0	0	507	483	181	515	38	0	
5	0	0	0	0	521	481	180	504	38	0	
6	0	0	0	0	514	480	180	504	38	0	
7	0	0	0	0	519	481	181	503	38	0	
8	0	0	0	0	513	485	181	504	38	0	
9	0	0	0	0	510	489	180	507	38	0	
10	0	0	0	0	508	494	181	512	38	0	
11	0	0	0	0	510	497	180	515	38	0	
12	0	0	0	0	506	499	180	526	38	0	
13	0	0	0	0	500	502	180	522	38	0	
14	0	0	0	0	503	503	181	523	38	0	
15	0	0	0	0	502	503	181	521	38	0	
0	0	0	0	0	502	501	180	519	38	0	
1	0	0	0	0	503	496	180	516	38	0	
2	0	0	0	0	499	490	181	514	38	0	
3	0	0	0	0	505	484	180	511	38	0	
4	0	0	0	0	510	482	181	508	38	0	
5	0	0	0	0	516	481	180	507	38	0	
6	0	0	0	0	508	480	180	506	38	0	
7	0	0	0	0	517	478	181	504	38	0	
8	0	0	0	0	521	479	180	505	38	0	
9	0	0	0	0	524	481	180	508	38	0	
10	0	0	0	0	521	488	181	520	38	0	
11	0	0	0	0	507	495	180	529	38	0	
12	0	0	0	0	501	500	180	536	38	0	
13	0	0	0	0	504	504	181	538	38	0	
14	0	0	0	0	505	507	180	537	38	0	
15	0	0	0	0	503	509	180	532	38	0	
0	0	0	0	0	498	508	180	528	38	0	
1	0	0	0	0	499	504	180	523	38	0	
2	0	0	0	0	504	499	180	517	38	0	
3	0	0	0	0	506	494	180	514	38	0	
4	0	0	0	0	507	488	181	512	38	0	
5	0	0	0	0	506	484	180	508	38	0	
6	0	0	0	0	511	480	181	509	38	0	
7	0	0	0	0	516	476	181	507	38	0	
8	0	0	0	0	513	476	180	506	38	0	
9	0	0	0	0	513	478	180	506	38	0	
10	0	0	0	0	516	483	181	513	38	0	
11	0	0	0	0	515	487	181	519	38	0	
12	0	0	0	0	505	491	180	523	38	0	
13	0	0	0	0	500	495	181	527	38	0	
14	0	0	0	0	504	498	180	526	38	0	
15	0	0	0	0	504	500	180	525	38	0	
0	0	0	0	0	498	499	181	524	38	0	
1	0	0	0	0	502	499	180	520	38	0	
2	0	0	0	0	504	495	181	518	38	0	
3	0	0	0	0	507	490	180	515	38	0	
4	0	0	0	0	503	486	180	514	38	0	
5	0	0	0	0	513	482	180	512	38	0	
6	0	0	0	0	512	479	181	509	38	0	
7	0	0	0	0	518	477	181	509	38	0	
8	0	0	0	0	512	476	180	509	38	0	
9	0	0	0	0	514	478	181	508	38	0	
10	0	0	0	0	510	483	180	510	38	0	
11	0	0	0	0	516	489	181	512	38	0	
12	0	0	0	0	506	495	181	516	38	0	
13	0	0	0	0	513	501	180	517	38	0	
14	0	0	0	0	508	506	180	518	38	0	
15	0	0	0	0	503	508	181	518	38	0	
0	0	0	0	0	508	509	180	515	38	0	
1	0	0	0	0	504	509	180	512	38	0	
2	0	0	0	0	499	507	181	508	38	0	
3	0	0	0	0	503	503	181	516	38	0	
4	0	0	0	0	508	498	180	507	38	0	
5	0	0	0	0	505	494	180	504	38	0	
6	0	0	0	0	504	490	181	503	38	0	
7	0	0	0	0	510	487	180	504	38	0	
8	0	0	0	0	510	484	180	504	38	0	
9	0	0	0	0	512	484	180	504	38	0	
10	0	0	0	0	521	487	181	516	38	0	
11	0	0	0	0	520	493	181	505	38	0	
12	0	0	0	0	510	499	180	511	38	0	
13	0	0	0	0	511	504	180	518	38	0	
14	0	0	0	0	503	507	181	520	38	0	
15	0	0	0	0	513	510	180	521	38	0	
0	0	0	0	0	510	512	180	520	38	0	
1	0	0	0	0	496	513	180	518	38	0	
2	0	0	0	0	500	511	181	513	38	0	
3	0	0	0	0	498	508	180	510	38	0	
4	0	0	0	0	506	504	180	509	38	0	
5	0	0	0	0	503	499	180	505	38	0	
6	0	0	0	0	505	494	181	504	38	0	
7	0	0	0	0	507	491	180	504	38	0	
8	0	0	0	0	508	489	180	503	38	0	
9	0	0	0	0	517	488	181	504	38	0	
10	0	0	0	0	515	491	181	507	38	0	
11	0	0	0	0	522	494	180	508	38	0	
12	0	0	0	0	515	499	180	513	38	0	
13	0	0	0	0	510	504	181	518	38	0	
14	0	0	0	0	505	507	180	520	38	0	
15	0	0	0	0	508	510	180	520	38	0	
0	0	0	0	0	500	513	180	522	38	0	
1	0	0	0	0	503	516	180	520	38	0	
2	0	0	0	0	499	518	180	519	38	0	
3	0	0	0	0	502	516	180	517	38	0	
4	0	0	0	0	502	513	181	515	38	0	
5	0	0	0	0	504	507	180	513	38	0	
6	0	0	0	0	503	501	180	512	38	0	
7	0	0	0	0	506	496	181	508	38	0	
8	0	0	0	0	515	492	180	508	38	0	
9	0	0	0	0	514	488	180	506	38	0	
10	0	0	0	0	511	487	180	505	38	0	
11	0	0	0	0	513	489	181	506	38	0	
12	0	0	0	0	512	491	180	506	38	0	
13	0	0	0	0	522	495	180	508	38	0	
14	0	0	0	0	512	501	180	511	38	0	
15	0	0	0	0	511	505	180	512	38	0	
0	0	0	0	0	508	510	180	514	38	0	
1	0	0	0	0	504	514	180	513	38	0	
2	0	0	0	0	496	516	180	513	38	0	
3	0	0	0	0	497	517	180	513	38	0	
4	0	0	0	0	499	516	180	510	38	0	
5	0	0	0	0	504	511	180	510	38	0	
6	0	0	0	0	507	506	180	510	38	0	
7	0	0	0	0	508	501	181	509	38	0	
8	0	0	0	0	504	496	180	508	38	0	
9	0	0	0	0	518	493	181	509	38	0	
10	0	0	0	0	511	492	180	508	38	0	
11	0	0	0	0	519	491	180	508	38	0	
12	0	0	0	0	508	494	180	510	38	0	
13	0	0	0	0	514	499	181	511	38	0	
14	0	0	0	0	513	504	180	512	38	0	
15	0	0	0	0	517	510	180	513	38	0	
0	0	0	0	0	509	514	181	515	38	0	
1	0	0	0	0	511	516	180	516	38	0	
2	0	0	0	0	509	519	180	516	38	0	
3	0	0	0	0	504	519	180	519	38	0	
4	0	0	0	0	493	518	181	515	38	0	
5	0	0	0	0	496	513	180	512	38	0	
6	0	0	0	0	499	507	180	509	38	0	
7	0	0	0	0	502	502	181	507	38	0	
8	0	0	0	0	514	497	180	504	38	0	
9	0	0	0	0	507	494	180	502	38	0	
10	0	0	0	0	506	492	180	501	38	0	
11	0	0	0	0	510	491	180	500	38	0	
12	0	0	0	0	515	494	180	502	38	0	
13	0	0	0	0	519	496	181	503	38	0	
14	0	0	0	0	519	499	180	505	38	0	
15	0	0	0	0	507	505	180	509	38	0	
0	0	0	0	0	510	510	180	512	38	0	
1	0	0	0	0	511	515	180	514	38	0	
2	0	0	0	0	510	519	180	515	38	0	
3	0	0	0	0	501	520	180	517	38	0	
4	0	0	0	0	506	519	180	516	38	0	
5	0	0	0	0	497	516	180	515	38	0	
6	0	0	0	0	499	513	181	511	38	0	
7	0	0	0	0	502	507	180	511	38	0	
8	0	0	0	0	507	504	180	505	38	0	
9	0	0	0	0	501	499	181	504	38	0	
10	0	0	0	0	515	496	180	503	38	0	
11	0	0	0	0	515	494	181	502	38	0	
12	0	0	0	0	520	492	180	504	38	0	
13	0	0	0	0	517	495	181	502	38	0	
14	0	0	0	0	509	501	180	502	38	0	
15	0	0	0	0	519	506	180	504	38	0	
0	0	0	0	0	516	511	181	505	38	0	
1	0	0	0	0	502	516	180	507	38	0	
2	0	0	0	0	508	519	180	511	38	0	
3	0	0	0	0	508	523	180	510	38	0	
4	0	0	0	0	499	526	180	512	38	0	
5	0	0	0	0	496	526	180	520	38	0	
6	0	0	0	0	501	524	180	511	38	0	
7	0	0	0	0	500	521	181	510	38	0	
8	0	0	0	0	507	517	180	509	38	0	
9	0	0	0	0	508	512	180	507	38	0	
10	0	0	0	0	511	507	180	506	38	0	
11	0	0	0	0	509	506	180	506	38	0	
12	0	0	0	0	508	505	180	504	38	0	
13	0	0	0	0	512	504	181	506	38	0	
14	0	0	0	0	516	506	180	506	38	0	
15	0	0	0	0	513	511	180	513	38	0	
0	0	0	0	0	509	517	180	511	38	0	
1	0	0	0	0	512	520	180	515	38	0	
2	0	0	0	0	516	524	180	517	38	0	
3	0	0	0	0	509	528	179	517	38	0	
4	0	0	0	0	502	534	181	520	38	0	
5	0	0	0	0	506	536	179	523	38	0	
6	0	0	0	0	499	535	180	522	38	0	
7	0	0	0	0	500	531	180	519	38	0	
8	0	0	0	0	502	525	180	523	38	0	
9	0	0	0	0	504	520	180	513	38	0	
10	0	0	0	0	509	515	181	511	38	0	
11	0	0	0	0	512	512	180	509	38	0	
12	0	0	0	0	507	511	180	508	38	0	
13	0	0	0	0	510	510	181	506	38	0	
14	0	0	0	0	516	511	181	504	38	0	
15	0	0	0	0	516	515	180	504	38	0	
0	0	0	0	0	513	519	180	506	38	0	
1	0	0	0	0	505	523	181	508	38	0	
2	0	0	0	0	513	527	180	510	38	0	
3	0	0	0	0	514	532	180	512	38	0	
4	0	0	0	0	500	535	180	512	38	0	
5	0	0	0	0	504	537	180	512	38	0	
6	0	0	0	0	503	537	180	511	38	0	
7	0	0	0	0	498	535	180	509	38	0	
8	0	0	0	0	498	531	180	508	38	0	
9	0	0	0	0	503	526	180	517	38	0	
10	0	0	0	0	505	520	180	506	38	0	
11	0	0	0	0	512	515	180	504	38	0	
12	0	0	0	0	515	510	180	503	38	0	
13	0	0	0	0	506	507	181	502	38	0	
14	0	0	0	0	508	507	180	501	38	0	
15	0	0	0	0	527	509	181	501	38	0	
0	0	0	0	0	519	512	180	502	38	0	
1	0	0	0	0	514	515	180	504	38	0	
2	0	0	0	0	508	519	181	518	38	0	
3	0	0	0	0	511	522	180	511	38	0	
4	0	0	0	0	508	525	180	514	38	0	
5	0	0	0	0	504	526	179	515	38	0	
6	0	0	0	0	508	527	181	515	38	0	
7	0	0	0	0	501	526	180	512	38	0	
8	0	0	0	0	499	523	180	511	38	0	
9	0	0	0	0	496	519	180	507	38	0	
10	0	0	0	0	502	515	180	507	38	0	
11	0	0	0	0	507	510	180	501	38	0	
12	0	0	0	0	507	507	180	500	38	0	
13	0	0	0	0	513	502	181	499	38	0	
14	0	0	0	0	511	500	180	501	38	0	
15	0	0	0	0	521	499	180	502	38	0	
0	0	0	0	0	527	504	180	504	38	0	
1	0	0	0	0	519	508	181	507	38	0	
2	0	0	0	0	508	513	180	512	38	0	
3	0	0	0	0	507	518	180	523	38	0	
4	0	0	0	0	508	524	180	515	38	0	
5	0	0	0	0	509	527	180	514	38	0	
6	0	0	0	0	506	528	180	515	38	0	
7	0	0	0	0	501	527	180	516	38	0	
8	0	0	0	0	491	524	180	516	38	0	
9	0	0	0	0	499	521	180	513	38	0	
10	0	0	0	0	508	516	180	511	38	0	
11	0	0	0	0	507	511	181	512	38	0	
12	0	0	0	0	503	507	180	509	38	0	
13	0	0	0	0	510	503	180	506	38	0	
14	0	0	0	0	516	500	181	506	38	0	
15	0	0	0	0	514	498	180	506	38	0	
0	0	0	0	0	514	498	180	505	38	0	
1	0	0	0	0	505	499	180	507	38	0	
2	0	0	0	0	517	503	181	508	38	0	
3	0	0	0	0	514	508	180	512	38	0	
4	0	0	0	0	518	514	180	513	38	0	
5	0	0	0	0	509	518	180	515	38	0	
6	0	0	0	0	504	521	180	516	38	0	
7	0	0	0	0	499	523	180	515	38	0	
8	0	0	0	0	499	523	180	514	38	0	
9	0	0	0	0	499	522	180	513	38	0	
10	0	0	0	0	497	518	181	516	38	0	
11	0	0	0	0	500	513	180	512	38	0	
12	0	0	0	0	497	508	180	512	38	0	
13	0	0	0	0	506	505	181	512	38	0	
14	0	0	0	0	513	502	180	511	38	0	
15	0	0	0	0	515	500	180	508	38	0	
0	0	0	0	0	512	498	180	508	38	0	
1	0	0	0	0	520	502	181	511	38	0	
2	0	0	0	0	515	505	180	511	38	0	
3	0	0	0	0	515	511	180	512	38	0	
4	0	0	0	0	512	515	180	513	38	0	
5	0	0	0	0	502	518	180	516	38	0	
6	0	0	0	0	510	522	180	517	38	0	
7	0	0	0	0	506	525	180	519	38	0	
8	0	0	0	0	497	526	180	518	38	0	
9	0	0	0	0	497	526	181	516	38	0	
10	0	0	0	0	495	523	180	516	38	0	
11	0	0	0	0	496	518	180	515	38	0	
12	0	0	0	0	502	513	181	513	38	0	
13	0	0	0	0	511	508	180	509	38	0	
14	0	0	0	0	514	502	180	508	38	0	
15	0	0	0	0	517	496	180	507	38	0	
0	0	0	0	0	511	493	181	505	38	0	
1	0	0	0	0	517	492	180	505	38	0	
2	0	0	0	0	520	493	180	504	38	0	
3	0	0	0	0	519	497	180	507	38	0	
4	0	0	0	0	514	501	180	509	38	0	
5	0	0	0	0	517	505	180	512	38	0	
6	0	0	0	0	507	510	180	518	38	0	
7	0	0	0	0	500	512	181	520	38	0	
8	0	0	0	0	497	514	180	520	38	0	
9	0	0	0	0	497	515	180	521	38	0	
10	0	0	0	0	496	513	180	520	38	0	
11	0	0	0	0	503	508	181	530	38	0	
12	0	0	0	0	509	503	180	515	38	0	
13	0	0	0	0	503	497	180	512	38	0	
14	0	0	0	0	511	492	180	510	38	0	
15	0	0	0	0	509	489	181	508	38	0	
0	0	0	0	0	507	487	180	506	38	0	
1	0	0	0	0	514	485	180	508	38	0	
2	0	0	0	0	511	486	181	507	38	0	
3	0	0	0	0	515	487	181	507	38	0	
4	0	0	0	0	517	491	181	508	38	0	
5	0	0	0	0	511	495	180	509	38	0	
6	0	0	0	0	511	500	181	512	38	0	
7	0	0	0	0	500	505	181	516	38	0	
8	0	0	0	0	506	509	180	522	38	0	
9	0	0	0	0	506	512	180	523	38	0	
10	0	0	0	0	504	513	181	522	38	0	
11	0	0	0	0	500	511	180	519	38	0	
12	0	0	0	0	503	506	180	515	38	0	
13	0	0	0	0	503	500	180	511	38	0	
14	0	0	0	0	502	495	181	507	38	0	
15	0	0	0	0	513	491	181	506	38	0	
0	0	0	0	0	512	487	180	505	38	0	
1	0	0	0	0	506	484	180	508	38	0	
2	0	0	0	0	511	483	180	508	38	0	
3	0	0	0	0	518	485	181	508	38	0	
4	0	0	0	0	521	489	181	510	38	0	
5	0	0	0	0	516	493	180	508	38	0	
6	0	0	0	0	516	498	181	512	38	0	
7	0	0	0	0	510	502	181	514	38	0	
8	0	0	0	0	506	504	181	520	38	0	
9	0	0	0	0	502	506	180	521	38	0	
10	0	0	0	0	494	507	180	522	38	0	
11	0	0	0	0	495	506	180	522	38	0	
12	0	0	0	0	503	503	180	519	38	0	
13	0	0	0	0	497	499	180	514	38	0	
14	0	0	0	0	507	493	181	510	38	0	
15	0	0	0	0	510	487	180	511	38	0	
0	0	0	0	0	508	484	180	507	38	0	
1	0	0	0	0	508	481	180	507	38	0	
2	0	0	0	0	512	480	181	506	38	0	
3	0	0	0	0	513	481	181	507	38	0	
4	0	0	0	0	519	486	180	507	38	0	
5	0	0	0	0	519	491	181	507	38	0	
6	0	0	0	0	512	496	180	513	38	0	
7	0	0	0	0	512	502	180	515	38	0	
8	0	0	0	0	505	508	181	521	38	0	
9	0	0	0	0	503	510	180	523	38	0	
10	0	0	0	0	506	511	180	523	38	0	
11	0	0	0	0	504	511	180	521	38	0	
12	0	0	0	0	498	509	181	521	38	0	
13	0	0	0	0	502	504	180	519	38	0	
14	0	0	0	0	497	499	180	519	38	0	
15	0	0	0	0	503	495	181	515	38	0	
0	0	0	0	0	507	492	180	512	38	0	
1	0	0	0	0	509	488	180	510	38	0	
2	0	0	0	0	513	485	181	507	38	0	
3	0	0	0	0	515	483	181	507	38	0	
4	0	0	0	0	516	483	180	506	38	0	
5	0	0	0	0	516	486	180	507	38	0	
6	0	0	0	0	514	491	181	508	38	0	
7	0	0	0	0	514	494	180	511	38	0	
8	0	0	0	0	510	499	180	512	38	0	
9	0	0	0	0	509	502	181	514	38	0	
10	0	0	0	0	508	505	180	516	38	0	
11	0	0	0	0	507	508	180	518	38	0	
12	0	0	0	0	493	510	180	519	38	0	
13	0	0	0	0	498	508	180	517	38	0	
14	0	0	0	0	504	504	180	514	38	0	
15	0	0	0	0	499	500	181	513	38	0	
0	0	0	0	0	501	496	180	510	38	0	
1	0	0	0	0	507	492	180	508	38	0	
2	0	0	0	0	514	488	180	507	38	0	
3	0	0	0	0	517	486	181	506	38	0	
4	0	0	0	0	521	484	181	505	38	0	
5	0	0	0	0	522	486	181	506	38	0	
6	0	0	0	0	513	487	180	509	38	0	
7	0	0	0	0	513	491	180	512	38	0	
8	0	0	0	0	507	496	181	515	38	0	
9	0	0	0	0	507	502	180	515	38	0	
10	0	0	0	0	512	506	180	515	38	0	
11	0	0	0	0	502	510	181	514	38	0	
12	0	0	0	0	502	513	180	513	38	0	
13	0	0	0	0	502	513	181	511	38	0	
14	0	0	0	0	497	511	180	509	38	0	
15	0	0	0	0	504	508	180	508	38	0	
0	0	0	0	0	509	505	181	507	38	0	
1	0	0	0	0	504	500	181	505	38	0	
2	0	0	0	0	510	496	180	504	38	0	
3	0	0	0	0	507	494	181	504	38	0	
4	0	0	0	0	513	492	181	504	38	0	
5	0	0	0	0	515	492	181	506	38	0	
6	0	0	0	0	519	495	180	519	38	0	
7	0	0	0	0	509	499	181	509	38	0	
8	0	0	0	0	516	502	180	511	38	0	
9	0	0	0	0	515	504	180	513	38	0	
10	0	0	0	0	504	509	180	515	38	0	
11	0	0	0	0	503	514	180	514	38	0	
12	0	0	0	0	504	515	180	513	38	0	
13	0	0	0	0	505	514	180	512	38	0	
14	0	0	0	0	506	514	181	511	38	0	
15	0	0	0	0	496	511	180	510	38	0	
0	0	0	0	0	495	506	180	509	38	0	
1	0	0	0	0	509	500	181	508	38	0	
2	0	0	0	0	508	496	180	506	38	0	
3	0	0	0	0	510	492	180	506	38	0	
4	0	0	0	0	510	491	180	506	38	0	
5	0	0	0	0	509	491	181	505	38	0	
6	0	0	0	0	513	492	181	505	38	0	
7	0	0	0	0	516	497	180	505	38	0	
8	0	0	0	0	511	502	181	506	38	0	
9	0	0	0	0	514	508	180	508	38	0	
10	0	0	0	0	510	513	180	513	38	0	
11	0	0	0	0	505	517	180	517	38	0	
12	0	0	0	0	506	519	181	519	38	0	
13	0	0	0	0	509	520	180	523	38	0	
14	0	0	0	0	499	520	180	524	38	0	
15	0	0	0	0	500	517	181	522	38	0	
0	0	0	0	0	497	514	180	519	38	0	
1	0	0	0	0	500	510	180	516	38	0	
2	0	0	0	0	512	506	180	513	38	0	
3	0	0	0	0	505	501	181	511	38	0	
4	0	0	0	0	510	497	180	509	38	0	
5	0	0	0	0	517	495	180	508	38	0	
6	0	0	0	0	514	492	180	508	38	0	
7	0	0	0	0	520	494	181	509	38	0	
8	0	0	0	0	514	498	180	510	38	0	
9	0	0	0	0	519	503	180	510	38	0	
10	0	0	0	0	513	508	180	512	38	0	
11	0	0	0	0	507	514	181	514	38	0	
12	0	0	0	0	507	519	180	514	38	0	
13	0	0	0	0	505	521	180	514	38	0	
14	0	0	0	0	504	520	180	515	38	0	
15	0	0	0	0	498	519	180	517	38	0	
0	0	0	0	0	504	516	180	515	38	0	
1	0	0	0	0	503	511	181	515	38	0	
2	0	0	0	0	509	506	180	515	38	0	
3	0	0	0	0	501	501	180	513	38	0	
4	0	0	0	0	512	496	181	512	38	0	
5	0	0	0	0	507	494	181	511	38	0	
6	0	0	0	0	513	494	180	509	38	0	
7	0	0	0	0	523	494	180	508	38	0	
8	0	0	0	0	517	498	181	507	38	0	
9	0	0	0	0	520	504	180	507	38	0	
10	0	0	0	0	514	509	180	509	38	0	
11	0	0	0	0	507	513	181	511	38	0	
12	0	0	0	0	504	516	181	515	38	0	
13	0	0	0	0	506	519	180	518	38	0	
14	0	0	0	0	506	520	180	520	38	0	
15	0	0	0	0	503	521	180	521	38	0	
0	0	0	0	0	493	521	181	521	38	0	
1	0	0	0	0	504	519	180	520	38	0	
2	0	0	0	0	506	514	180	519	38	0	
3	0	0	0	0	507	510	180	516	38	0	
4	0	0	0	0	500	505	181	513	38	0	
5	0	0	0	0	504	502	181	513	38	0	
6	0	0	0	0	512	502	180	511	38	0	
7	0	0	0	0	515	501	180	510	38	0	
8	0	0	0	0	514	504	181	511	38	0	
9	0	0	0	0	514	506	180	512	38	0	
10	0	0	0	0	519	511	180	518	38	0	
11	0	0	0	0	511	516	181	523	38	0	
12	0	0	0	0	509	520	180	524	38	0	
13	0	0	0	0	507	523	180	524	38	0	
14	0	0	0	0	499	525	180	523	38	0	
15	0	0	0	0	509	526	181	520	38	0	
0	0	0	0	0	500	525	180	520	38	0	
1	0	0	0	0	505	524	180	518	38	0	
2	0	0	0	0	504	520	181	517	38	0	
3	0	0	0	0	507	515	180	515	38	0	
4	0	0	0	0	507	511	180	513	38	0	
5	0	0	0	0	508	507	181	512	38	0	
6	0	0	0	0	517	503	180	510	38	0	
7	0	0	0	0	508	500	180	508	38	0	
8	0	0	0	0	512	499	181	507	38	0	
9	0	0	0	0	518	502	180	505	38	0	
10	0	0	0	0	515	507	181	507	38	0	
11	0	0	0	0	519	511	180	509	38	0	
12	0	0	0	0	513	515	181	522	38	0	
13	0	0	0	0	507	519	180	520	38	0	
14	0	0	0	0	498	522	180	513	38	0	
15	0	0	0	0	500	526	180	513	38	0	
0	0	0	0	0	508	527	180	513	38	0	
1	0	0	0	0	506	527	180	512	38	0	
2	0	0	0	0	498	523	180	512	38	0	
3	0	0	0	0	503	519	180	510	38	0	
4	0	0	0	0	499	513	180	509	38	0	
5	0	0	0	0	514	509	180	507	38	0	
6	0	0	0	0	513	507	180	506	38	0	
7	0	0	0	0	511	502	181	509	38	0	
8	0	0	0	0	513	499	181	509	38	0	
9	0	0	0	0	515	500	180	509	38	0	
10	0	0	0	0	520	502	181	510	38	0	
11	0	0	0	0	512	505	180	513	38	0	
12	0	0	0	0	515	508	180	514	38	0	
13	0	0	0	0	511	512	180	516	38	0	
14	0	0	0	0	512	517	181	517	38	0	
15	0	0	0	0	492	519	180	517	38	0	
0	0	0	0	0	502	520	180	518	38	0	
1	0	0	0	0	499	521	180	517	38	0	
2	0	0	0	0	503	521	181	516	38	0	
3	0	0	0	0	506	518	180	517	38	0	
4	0	0	0	0	495	513	180	515	38	0	
5	0	0	0	0	506	508	180	513	38	0	
6	0	0	0	0	517	502	180	510	38	0	
7	0	0	0	0	514	499	180	506	38	0	
8	0	0	0	0	513	497	180	504	38	0	
9	0	0	0	0	516	496	180	503	38	0	
10	0	0	0	0	516	497	181	502	38	0	
11	0	0	0	0	511	500	180	505	38	0	
12	0	0	0	0	511	506	180	509	38	0	
13	0	0	0	0	510	511	180	512	38	0	
14	0	0	0	0	508	515	180	514	38	0	
15	0	0	0	0	508	519	180	515	38	0	
0	0	0	0	0	505	520	180	516	38	0	
1	0	0	0	0	508	523	181	517	38	0	
2	0	0	0	0	500	522	180	516	38	0	
3	0	0	0	0	501	521	180	515	38	0	
4	0	0	0	0	497	517	180	513	38	0	
5	0	0	0	0	508	512	181	511	38	0	
6	0	0	0	0	507	508	181	508	38	0	
7	0	0	0	0	505	502	180	506	38	0	
8	0	0	0	0	512	499	180	504	38	0	
9	0	0	0	0	510	496	181	504	38	0	
10	0	0	0	0	513	495	180	504	38	0	
11	0	0	0	0	513	497	180	506	38	0	
12	0	0	0	0	508	502	180	509	38	0	
13	0	0	0	0	518	507	180	511	38	0	
14	0	0	0	0	515	510	180	515	38	0	
15	0	0	0	0	510	511	180	519	38	0	
0	0	0	0	0	504	513	180	521	38	0	
1	0	0	0	0	497	515	180	522	38	0	
2	0	0	0	0	505	518	180	523	38	0	
3	0	0	0	0	497	516	180	521	38	0	
4	0	0	0	0	500	513	180	518	38	0	
5	0	0	0	0	495	509	180	513	38	0	
6	0	0	0	0	503	507	180	509	38	0	
7	0	0	0	0	506	502	180	508	38	0	
8	0	0	0	0	512	499	181	505	38	0	
9	0	0	0	0	512	496	181	506	38	0	
10	0	0	0	0	515	495	180	508	38	0	
11	0	0	0	0	508	496	181	510	38	0	
12	0	0	0	0	514	499	180	512	38	0	
13	0	0	0	0	519	502	180	515	38	0	
14	0	0	0	0	510	505	180	517	38	0	
15	0	0	0	0	511	509	180	521	38	0	
0	0	0	0	0	507	512	180	523	38	0	
1	0	0	0	0	505	515	181	521	38	0	
2	0	0	0	0	502	515	180	520	38	0	
3	0	0	0	0	506	516	180	519	38	0	
4	0	0	0	0	501	514	180	516	38	0	
5	0	0	0	0	506	511	181	513	38	0	
6	0	0	0	0	500	507	180	510	38	0	
7	0	0	0	0	502	504	180	507	38	0	
8	0	0	0	0	507	499	180	517	38	0	
9	0	0	0	0	515	496	181	505	38	0	
10	0	0	0	0	509	494	180	506	38	0	
11	0	0	0	0	513	493	180	507	38	0	
12	0	0	0	0	516	495	180	507	38	0	
13	0	0	0	0	516	498	181	508	38	0	
14	0	0	0	0	512	503	180	514	38	0	
15	0	0	0	0	510	508	180	532	38	0	
0	0	0	0	0	512	511	181	524	38	0	
1	0	0	0	0	510	516	180	524	38	0	
2	0	0	0	0	507	520	180	522	38	0	
3	0	0	0	0	505	522	180	519	38	0	
4	0	0	0	0	496	522	180	517	38	0	
5	0	0	0	0	499	519	180	514	38	0	
6	0	0	0	0	498	515	181	511	38	0	
7	0	0	0	0	502	510	180	513	38	0	
8	0	0	0	0	511	505	180	506	38	0	
9	0	0	0	0	516	502	181	505	38	0	
10	0	0	0	0	510	499	180	505	38	0	
11	0	0	0	0	512	497	180	503	38	0	
12	0	0	0	0	510	496	180	502	38	0	
13	0	0	0	0	522	499	181	501	38	0	
14	0	0	0	0	515	503	180	504	38	0	
15	0	0	0	0	515	507	180	506	38	0	
0	0	0	0	0	512	511	181	508	38	0	
1	0	0	0	0	513	515	180	512	38	0	
2	0	0	0	0	499	519	180	515	38	0	
3	0	0	0	0	501	521	179	516	38	0	
4	0	0	0	0	503	522	180	515	38	0	
5	0	0	0	0	500	521	180	515	38	0	
6	0	0	0	0	504	519	180	514	38	0	
7	0	0	0	0	498	516	180	512	38	0	
8	0	0	0	0	500	512	181	508	38	0	
9	0	0	0	0	511	509	180	506	38	0	
10	0	0	0	0	501	506	180	504	38	0	
11	0	0	0	0	510	504	180	506	38	0	
12	0	0	0	0	513	502	181	505	38	0	
13	0	0	0	0	515	501	180	504	38	0	
14	0	0	0	0	519	503	180	505	38	0	
15	0	0	0	0	516	506	181	506	38	0	
0	0	0	0	0	513	510	180	508	38	0	
1	0	0	0	0	508	513	179	509	38	0	
2	0	0	0	0	509	517	180	512	38	0	
3	0	0	0	0	508	519	180	513	38	0	
4	0	0	0	0	505	520	180	515	38	0	
5	0	0	0	0	504	521	181	515	38	0	
6	0	0	0	0	501	519	180	515	38	0	
7	0	0	0	0	492	515	180	515	38	0	
8	0	0	0	0	506	511	180	512	38	0	
9	0	0	0	0	504	507	180	510	38	0	
10	0	0	0	0	503	504	181	508	38	0	
11	0	0	0	0	505	500	180	506	38	0	
12	0	0	0	0	516	496	180	504	38	0	
13	0	0	0	0	513	494	181	503	38	0	
14	0	0	0	0	519	497	181	502	38	0	
15	0	0	0	0	514	498	180	502	38	0	
0	0	0	0	0	511	502	181	503	38	0	
1	0	0	0	0	510	507	180	505	38	0	
2	0	0	0	0	513	512	180	506	38	0	
3	0	0	0	0	509	517	180	513	38	0	
4	0	0	0	0	507	521	180	511	38	0	
5	0	0	0	0	505	523	180	512	38	0	
6	0	0	0	0	498	524	180	512	38	0	
7	0	0	0	0	499	523	180	513	38	0	
8	0	0	0	0	500	520	180	511	38	0	
9	0	0	0	0	510	517	180	510	38	0	
10	0	0	0	0	502	513	180	508	38	0	
11	0	0	0	0	513	510	180	516	38	0	
12	0	0	0	0	518	507	180	504	38	0	
13	0	0	0	0	508	506	181	504	38	0	
14	0	0	0	0	519	505	180	506	38	0	
15	0	0	0	0	516	509	180	513	38	0	
0	0	0	0	0	513	514	180	518	38	0	
1	0	0	0	0	512	519	180	521	38	0	
2	0	0	0	0	505	523	180	522	38	0	
3	0	0	0	0	506	527	179	524	38	0	
4	0	0	0	0	506	530	180	525	38	0	
5	0	0	0	0	505	532	180	525	38	0	
6	0	0	0	0	505	533	179	525	38	0	
7	0	0	0	0	507	533	180	525	38	0	
8	0	0	0	0	500	533	180	523	38	0	
9	0	0	0	0	495	531	180	519	38	0	
10	0	0	0	0	506	529	179	517	38	0	
11	0	0	0	0	508	526	180	515	38	0	
12	0	0	0	0	510	526	181	514	38	0	
13	0	0	0	0	511	526	180	511	38	0	
14	0	0	0	0	516	525	180	511	38	0	
15	0	0	0	0	518	526	180	509	38	0	
0	0	0	0	0	519	529	180	509	38	0	
1	0	0	0	0	512	535	180	510	38	0	
2	0	0	0	0	516	540	179	511	38	0	
3	0	0	0	0	509	543	180	514	38	0	
4	0	0	0	0	508	545	180	516	38	0	
5	0	0	0	0	504	545	180	517	38	0	
6	0	0	0	0	505	543	180	519	38	0	
7	0	0	0	0	505	539	180	518	38	0	
8	0	0	0	0	497	531	180	524	38	0	
9	0	0	0	0	502	521	180	517	38	0	
10	0	0	0	0	500	510	180	515	38	0	
11	0	0	0	0	505	500	180	512	38	0	
12	0	0	0	0	505	490	181	511	38	0	
13	0	0	0	0	509	481	181	509	38	0	
14	0	0	0	0	510	472	180	508	38	0	
15	0	0	0	0	517	464	180	507	38	0	
0	0	0	0	0	522	462	181	507	38	0	
1	0	0	0	0	516	462	181	507	38	0	
2	0	0	0	0	511	464	180	512	38	0	
3	0	0	0	0	513	467	180	519	38	0	
4	0	0	0	0	507	470	181	520	38	0	
5	0	0	0	0	504	472	181	520	38	0	
6	0	0	0	0	507	469	180	520	38	0	
7	0	0	0	0	506	463	180	519	38	0	
8	0	0	0	0	498	459	181	516	38	0	
9	0	0	0	0	502	455	181	514	38	0	
10	0	0	0	0	495	451	180	510	38	0	
11	0	0	0	0	502	446	180	509	38	0	
12	0	0	0	0	511	442	181	504	38	0	
13	0	0	0	0	505	439	181	502	38	0	
14	0	0	0	0	521	434	180	502	38	0	
15	0	0	0	0	512	432	181	502	38	0	
0	0	0	0	0	515	432	181	502	38	0	
1	0	0	0	0	518	434	181	502	38	0	
2	0	0	0	0	511	436	180	503	38	0	
3	0	0	0	0	523	440	180	505	38	0	
4	0	0	0	0	511	447	181	517	38	0	
5	0	0	0	0	503	454	181	510	38	0	
6	0	0	0	0	503	460	180	514	38	0	
7	0	0	0	0	512	466	180	515	38	0	
8	0	0	0	0	504	472	181	514	38	0	
9	0	0	0	0	494	476	180	514	38	0	
10	0	0	0	0	499	478	180	512	38	0	
11	0	0	0	0	498	479	180	513	38	0	
12	0	0	0	0	499	479	181	510	38	0	
13	0	0	0	0	502	481	180	507	38	0	
14	0	0	0	0	504	483	180	505	38	0	
15	0	0	0	0	517	486	180	504	38	0	
0	0	0	0	0	517	487	181	504	38	0	
1	0	0	0	0	515	492	180	503	38	0	
2	0	0	0	0	513	497	180	507	38	0	
3	0	0	0	0	520	505	180	504	38	0	
4	0	0	0	0	512	512	180	505	38	0	
5	0	0	0	0	508	519	180	507	38	0	
6	0	0	0	0	511	524	180	511	38	0	
7	0	0	0	0	504	529	179	513	38	0	
8	0	0	0	0	506	532	180	515	38	0	
9	0	0	0	0	500	534	180	527	38	0	
10	0	0	0	0	496	534	179	515	38	0	
11	0	0	0	0	503	532	180	513	38	0	
12	0	0	0	0	500	529	180	511	38	0	
13	0	0	0	0	502	525	180	509	38	0	
14	0	0	0	0	508	520	180	507	38	0	
15	0	0	0	0	507	517	180	505	38	0	
0	0	0	0	0	516	516	180	504	38	0	
1	0	0	0	0	528	516	180	513	38	0	
2	0	0	0	0	522	518	180	505	38	0	
3	0	0	0	0	509	520	180	508	38	0	
4	0	0	0	0	516	524	180	513	38	0	
5	0	0	0	0	506	528	180	518	38	0	
6	0	0	0	0	502	531	180	519	38	0	
7	0	0	0	0	505	534	180	521	38	0	
8	0	0	0	0	510	537	179	521	38	0	
9	0	0	0	0	510	539	180	521	38	0	
10	0	0	0	0	502	537	180	521	38	0	
11	0	0	0	0	505	535	180	519	38	0	
12	0	0	0	0	500	532	179	518	38	0	
13	0	0	0	0	499	528	181	516	38	0	
14	0	0	0	0	504	523	180	514	38	0	
15	0	0	0	0	505	519	180	512	38	0	
0	0	0	0	0	515	518	179	511	38	0	
1	0	0	0	0	512	516	181	510	38	0	
2	0	0	0	0	514	516	180	510	38	0	
3	0	0	0	0	524	519	180	513	38	0	
4	0	0	0	0	518	522	179	515	38	0	
5	0	0	0	0	519	525	180	517	38	0	
6	0	0	0	0	507	527	180	517	38	0	
7	0	0	0	0	502	528	180	516	38	0	
8	0	0	0	0	508	529	180	517	38	0	
9	0	0	0	0	507	529	180	516	38	0	
10	0	0	0	0	500	529	180	516	38	0	
11	0	0	0	0	498	528	180	515	38	0	
12	0	0	0	0	499	524	180	513	38	0	
13	0	0	0	0	504	520	180	510	38	0	
14	0	0	0	0	505	514	180	508	38	0	
15	0	0	0	0	508	508	180	505	38	0	
0	0	0	0	0	511	504	180	512	38	0	
1	0	0	0	0	504	501	180	503	38	0	
2	0	0	0	0	503	499	180	503	38	0	
3	0	0	0	0	515	498	180	503	38	0	
4	0	0	0	0	517	500	180	505	38	0	
5	0	0	0	0	516	505	181	507	38	0	
6	0	0	0	0	515	510	180	511	38	0	
7	0	0	0	0	508	513	180	513	38	0	
8	0	0	0	0	508	516	180	516	38	0	
9	0	0	0	0	503	519	180	516	38	0	
10	0	0	0	0	503	520	180	518	38	0	
11	0	0	0	0	499	519	180	516	38	0	
12	0	0	0	0	492	516	180	514	38	0	
13	0	0	0	0	500	512	180	512	38	0	
14	0	0	0	0	505	507	180	511	38	0	
15	0	0	0	0	507	503	180	509	38	0	
0	0	0	0	0	508	500	181	507	38	0	
1	0	0	0	0	513	499	180	504	38	0	
2	0	0	0	0	514	496	180	504	38	0	
3	0	0	0	0	515	494	180	504	38	0	
4	0	0	0	0	514	494	180	504	38	0	
5	0	0	0	0	521	496	180	505	38	0	
6	0	0	0	0	519	500	180	509	38	0	
7	0	0	0	0	508	505	180	512	38	0	
8	0	0	0	0	511	508	180	515	38	0	
9	0	0	0	0	508	510	180	517	38	0	
10	0	0	0	0	500	513	180	517	38	0	
11	0	0	0	0	504	516	181	516	38	0	
12	0	0	0	0	496	515	180	514	38	0	
13	0	0	0	0	499	513	180	514	38	0	
14	0	0	0	0	503	510	180	512	38	0	
15	0	0	0	0	502	505	180	510	38	0	
0	0	0	0	0	504	502	180	510	38	0	
1	0	0	0	0	503	498	180	511	38	0	
2	0	0	0	0	512	496	180	510	38	0	
3	0	0	0	0	519	495	180	509	38	0	
4	0	0	0	0	514	493	180	508	38	0	
5	0	0	0	0	512	495	180	509	38	0	
6	0	0	0	0	522	497	180	513	38	0	
7	0	0	0	0	515	502	180	514	38	0	
8	0	0	0	0	509	507	180	516	38	0	
9	0	0	0	0	511	510	180	515	38	0	
10	0	0	0	0	510	511	180	517	38	0	
11	0	0	0	0	501	512	180	519	38	0	
12	0	0	0	0	507	513	180	519	38	0	
13	0	0	0	0	500	511	181	517	38	0	
14	0	0	0	0	497	509	180	517	38	0	
15	0	0	0	0	497	505	180	516	38	0	
0	0	0	0	0	503	500	180	513	38	0	
1	0	0	0	0	508	496	180	510	38	0	
2	0	0	0	0	507	494	181	507	38	0	
3	0	0	0	0	509	493	180	506	38	0	
4	0	0	0	0	516	491	180	505	38	0	
5	0	0	0	0	513	491	180	505	38	0	
6	0	0	0	0	518	494	181	507	38	0	
7	0	0	0	0	511	498	180	508	38	0	
8	0	0	0	0	508	503	180	510	38	0	
9	0	0	0	0	515	507	180	513	38	0	
10	0	0	0	0	500	511	180	514	38	0	
11	0	0	0	0	513	515	180	515	38	0	
12	0	0	0	0	502	517	180	516	38	0	
13	0	0	0	0	500	515	179	515	38	0	
14	0	0	0	0	498	512	180	516	38	0	
15	0	0	0	0	502	508	180	514	38	0	
0	0	0	0	0	504	503	180	510	38	0	
1	0	0	0	0	504	500	180	510	38	0	
2	0	0	0	0	504	497	180	508	38	0	
3	0	0	0	0	512	495	181	507	38	0	
4	0	0	0	0	507	494	180	507	38	0	
5	0	0	0	0	519	493	180	505	38	0	
6	0	0	0	0	518	495	180	508	38	0	
7	0	0	0	0	523	500	180	510	38	0	
8	0	0	0	0	515	507	180	513	38	0	
9	0	0	0	0	508	511	180	516	38	0	
10	0	0	0	0	511	516	180	519	38	0	
11	0	0	0	0	500	520	180	521	38	0	
12	0	0	0	0	507	524	180	520	38	0	
13	0	0	0	0	506	526	180	519	38	0	
14	0	0	0	0	496	527	180	518	38	0	
15	0	0	0	0	499	527	180	519	38	0	
0	0	0	0	0	505	524	180	514	38	0	
1	0	0	0	0	508	520	180	512	38	0	
2	0	0	0	0	512	516	180	509	38	0	
3	0	0	0	0	508	514	181	507	38	0	
4	0	0	0	0	515	513	180	506	38	0	
5	0	0	0	0	518	512	180	504	38	0	
6	0	0	0	0	512	513	180	505	38	0	
7	0	0	0	0	522	517	180	506	38	0	
8	0	0	0	0	514	522	180	508	38	0	
9	0	0	0	0	517	530	180	510	38	0	
10	0	0	0	0	512	536	180	513	38	0	
11	0	0	0	0	505	539	179	514	38	0	
12	0	0	0	0	505	542	180	515	38	0	
13	0	0	0	0	502	543	180	514	38	0	
14	0	0	0	0	501	544	180	515	38	0	
15	0	0	0	0	499	544	180	513	38	0	
0	0	0	0	0	492	541	179	511	38	0	
1	0	0	0	0	489	536	180	508	38	0	
2	0	0	0	0	502	533	180	507	38	0	
3	0	0	0	0	515	531	180	506	38	0	
4	0	0	0	0	513	531	180	506	38	0	
5	0	0	0	0	520	530	179	506	38	0	
6	0	0	0	0	516	530	180	507	38	0	
7	0	0	0	0	509	531	180	506	38	0	
8	0	0	0	0	517	534	180	508	38	0	
9	0	0	0	0	515	539	179	510	38	0	
10	0	0	0	0	517	543	180	513	38	0	
11	0	0	0	0	511	548	180	517	38	0	
12	0	0	0	0	507	552	179	519	38	0	
13	0	0	0	0	509	555	180	524	38	0	
14	0	0	0	0	505	557	180	522	38	0	
15	0	0	0	0	497	558	180	523	38	0	
0	0	0	0	0	500	557	179	520	38	0	
1	0	0	0	0	500	554	180	518	38	0	
2	0	0	0	0	507	549	180	513	38	0	
3	0	0	0	0	503	544	180	510	38	0	
4	0	0	0	0	512	540	179	508	38	0	
5	0	0	0	0	504	538	180	508	38	0	
6	0	0	0	0	504	537	180	506	38	0	
7	0	0	0	0	515	537	179	505	38	0	
8	0	0	0	0	518	538	180	503	38	0	
9	0	0	0	0	512	541	180	503	38	0	
10	0	0	0	0	520	544	180	505	38	0	
11	0	0	0	0	516	547	179	507	38	0	
12	0	0	0	0	509	548	180	511	38	0	
13	0	0	0	0	506	550	180	513	38	0	
14	0	0	0	0	509	552	179	514	38	0	
15	0	0	0	0	507	554	180	514	38	0	
0	0	0	0	0	496	553	180	512	38	0	
1	0	0	0	0	507	551	180	509	38	0	
2	0	0	0	0	495	547	180	516	38	0	
3	0	0	0	0	512	542	180	509	38	0	
4	0	0	0	0	504	537	180	508	38	0	
5	0	0	0	0	512	533	180	508	38	0	
6	0	0	0	0	514	531	180	507	38	0	
7	0	0	0	0	511	528	179	508	38	0	
8	0	0	0	0	513	527	180	513	38	0	
9	0	0	0	0	519	529	180	512	38	0	
10	0	0	0	0	511	531	180	511	38	0	
11	0	0	0	0	524	535	179	512	38	0	
12	0	0	0	0	515	538	180	514	38	0	
13	0	0	0	0	507	539	180	515	38	0	
14	0	0	0	0	497	540	180	520	38	0	
15	0	0	0	0	499	542	180	517	38	0	
0	0	0	0	0	499	542	180	519	38	0	
1	0	0	0	0	498	539	179	518	38	0	
2	0	0	0	0	499	536	180	517	38	0	
3	0	0	0	0	499	531	180	515	38	0	
4	0	0	0	0	503	527	180	512	38	0	
5	0	0	0	0	508	523	180	509	38	0	
6	0	0	0	0	515	519	180	508	38	0	
7	0	0	0	0	506	518	180	519	38	0	
8	0	0	0	0	511	516	180	507	38	0	
9	0	0	0	0	513	516	181	508	38	0	
10	0	0	0	0	525	518	180	509	38	0	
11	0	0	0	0	516	521	179	509	38	0	
12	0	0	0	0	513	524	180	515	38	0	
13	0	0	0	0	508	526	180	529	38	0	
14	0	0	0	0	519	528	180	539	38	0	
15	0	0	0	0	506	529	179	540	38	0	
0	0	0	0	0	502	531	180	540	38	0	
1	0	0	0	0	503	531	180	538	38	0	
2	0	0	0	0	498	527	180	534	38	0	
3	0	0	0	0	499	522	180	529	38	0	
4	0	0	0	0	508	518	180	525	38	0	
5	0	0	0	0	505	513	180	520	38	0	
6	0	0	0	0	507	507	180	515	38	0	
7	0	0	0	0	510	504	180	511	38	0	
8	0	0	0	0	508	503	180	509	38	0	
9	0	0	0	0	516	501	180	506	38	0	
10	0	0	0	0	518	503	180	505	38	0	
11	0	0	0	0	512	505	180	506	38	0	
12	0	0	0	0	515	508	180	509	38	0	
13	0	0	0	0	507	510	180	511	38	0	
14	0	0	0	0	514	513	180	512	38	0	
15	0	0	0	0	513	516	180	513	38	0	
0	0	0	0	0	503	518	180	514	38	0	
1	0	0	0	0	499	518	180	516	38	0	
2	0	0	0	0	498	516	180	517	38	0	
3	0	0	0	0	505	513	180	515	38	0	
4	0	0	0	0	496	508	180	513	38	0	
5	0	0	0	0	504	504	181	509	38	0	
6	0	0	0	0	509	499	180	505	38	0	
7	0	0	0	0	508	494	180	504	38	0	
8	0	0	0	0	505	489	180	503	38	0	
9	0	0	0	0	512	487	180	503	38	0	
10	0	0	0	0	516	486	180	501	38	0	
11	0	0	0	0	518	487	180	500	38	0	
12	0	0	0	0	518	489	180	500	38	0	
13	0	0	0	0	524	492	180	501	38	0	
14	0	0	0	0	512	497	180	502	38	0	
15	0	0	0	0	503	501	180	502	38	0	
0	0	0	0	0	507	502	180	504	38	0	
1	0	0	0	0	499	505	180	507	38	0	
2	0	0	0	0	496	506	180	509	38	0	
3	0	0	0	0	503	504	180	511	38	0	
4	0	0	0	0	502	500	180	512	38	0	
5	0	0	0	0	500	496	180	512	38	0	
6	0	0	0	0	502	492	180	510	38	0	
7	0	0	0	0	508	487	181	508	38	0	
8	0	0	0	0	511	483	180	507	38	0	
9	0	0	0	0	510	482	180	505	38	0	
10	0	0	0	0	508	480	181	505	38	0	
11	0	0	0	0	524	480	180	504	38	0	
12	0	0	0	0	525	482	180	505	38	0	
13	0	0	0	0	514	486	181	508	38	0	
14	0	0	0	0	515	490	180	516	38	0	
15	0	0	0	0	511	493	180	526	38	0	
0	0	0	0	0	511	496	180	528	38	0	
1	0	0	0	0	502	499	180	529	38	0	
2	0	0	0	0	500	501	180	528	38	0	
3	0	0	0	0	492	499	180	528	38	0	
4	0	0	0	0	496	497	180	523	38	0	
5	0	0	0	0	506	494	180	519	38	0	
6	0	0	0	0	503	489	180	515	38	0	
7	0	0	0	0	503	485	180	513	38	0	
8	0	0	0	0	506	480	180	511	38	0	
9	0	0	0	0	507	476	180	509	38	0	
10	0	0	0	0	509	472	181	506	38	0	
11	0	0	0	0	516	471	180	506	38	0	
12	0	0	0	0	521	472	180	505	38	0	
13	0	0	0	0	517	476	180	505	38	0	
14	0	0	0	0	510	481	181	515	38	0	
15	0	0	0	0	511	486	180	511	38	0	
0	0	0	0	0	511	491	180	518	38	0	
1	0	0	0	0	509	494	181	522	38	0	
2	0	0	0	0	505	496	180	524	38	0	
3	0	0	0	0	505	498	180	525	38	0	
4	0	0	0	0	500	497	180	523	38	0	
5	0	0	0	0	504	494	180	519	38	0	
6	0	0	0	0	500	492	181	514	38	0	
7	0	0	0	0	504	488	180	509	38	0	
8	0	0	0	0	502	484	180	507	38	0	
9	0	0	0	0	506	481	181	505	38	0	
10	0	0	0	0	511	480	180	504	38	0	
11	0	0	0	0	513	482	180	502	38	0	
12	0	0	0	0	515	483	181	500	38	0	
13	0	0	0	0	521	487	180	502	38	0	
14	0	0	0	0	512	492	180	503	38	0	
15	0	0	0	0	513	497	180	504	38	0	
0	0	0	0	0	510	502	180	507	38	0	
1	0	0	0	0	513	506	180	507	38	0	
2	0	0	0	0	513	509	180	512	38	0	
3	0	0	0	0	505	511	179	518	38	0	
4	0	0	0	0	503	512	180	518	38	0	
5	0	0	0	0	492	510	180	515	38	0	
6	0	0	0	0	490	508	179	513	38	0	
7	0	0	0	0	500	504	180	510	38	0	
8	0	0	0	0	503	500	180	507	38	0	
9	0	0	0	0	500	497	180	505	38	0	
10	0	0	0	0	509	495	180	505	38	0	
11	0	0	0	0	516	493	181	506	38	0	
12	0	0	0	0	513	491	180	507	38	0	
13	0	0	0	0	524	491	180	506	38	0	
14	0	0	0	0	514	494	181	508	38	0	
15	0	0	0	0	509	499	180	508	38	0	
0	0	0	0	0	509	504	180	510	38	0	
1	0	0	0	0	508	508	180	514	38	0	
2	0	0	0	0	505	511	180	517	38	0	
3	0	0	0	0	505	512	180	519	38	0	
4	0	0	0	0	503	515	180	517	38	0	
5	0	0	0	0	505	517	180	516	38	0	
6	0	0	0	0	504	516	180	513	38	0	
7	0	0	0	0	497	515	180	510	38	0	
8	0	0	0	0	505	512	180	507	38	0	
9	0	0	0	0	507	509	180	505	38	0	
10	0	0	0	0	508	506	180	504	38	0	
11	0	0	0	0	509	505	180	503	38	0	
12	0	0	0	0	513	505	180	504	38	0	
13	0	0	0	0	510	505	180	504	38	0	
14	0	0	0	0	524	506	180	504	38	0	
15	0	0	0	0	515	508	180	504	38	0	
0	0	0	0	0	515	512	180	506	38	0	
1	0	0	0	0	510	515	180	510	38	0	
2	0	0	0	0	512	519	180	515	38	0	
3	0	0	0	0	507	520	180	519	38	0	
4	0	0	0	0	504	522	180	521	38	0	
5	0	0	0	0	503	522	180	522	38	0	
6	0	0	0	0	498	520	180	522	38	0	
7	0	0	0	0	492	519	180	519	38	0	
8	0	0	0	0	500	516	180	515	38	0	
9	0	0	0	0	505	512	180	511	38	0	
10	0	0	0	0	502	509	181	507	38	0	
11	0	0	0	0	511	507	180	504	38	0	
12	0	0	0	0	515	505	180	503	38	0	
13	0	0	0	0	515	504	181	500	38	0	
14	0	0	0	0	519	504	180	508	38	0	
15	0	0	0	0	512	507	180	503	38	0	
0	0	0	0	0	504	511	180	501	38	0	
1	0	0	0	0	523	515	180	503	38	0	
2	0	0	0	0	515	520	180	505	38	0	
3	0	0	0	0	512	524	180	508	38	0	
4	0	0	0	0	503	526	180	510	38	0	
5	0	0	0	0	505	527	180	510	38	0	
6	0	0	0	0	498	528	180	511	38	0	
7	0	0	0	0	499	527	180	508	38	0	
8	0	0	0	0	507	524	180	505	38	0	
9	0	0	0	0	492	520	180	505	38	0	
10	0	0	0	0	503	516	180	503	38	0	
11	0	0	0	0	509	513	180	502	38	0	
12	0	0	0	0	512	510	180	503	38	0	
13	0	0	0	0	507	506	180	504	38	0	
14	0	0	0	0	512	505	180	504	38	0	
15	0	0	0	0	518	507	180	506	38	0	
0	0	0	0	0	520	509	180	508	38	0	
1	0	0	0	0	520	512	181	509	38	0	
2	0	0	0	0	507	514	180	512	38	0	
3	0	0	0	0	507	518	179	515	38	0	
4	0	0	0	0	513	519	181	517	38	0	
5	0	0	0	0	502	521	180	517	38	0	
6	0	0	0	0	508	523	180	517	38	0	
7	0	0	0	0	496	525	179	521	38	0	
8	0	0	0	0	504	524	180	515	38	0	
9	0	0	0	0	501	521	180	513	38	0	
10	0	0	0	0	493	516	180	511	38	0	
11	0	0	0	0	504	511	180	509	38	0	
12	0	0	0	0	505	506	180	506	38	0	
13	0	0	0	0	518	503	180	503	38	0	
14	0	0	0	0	511	499	181	505	38	0	
15	0	0	0	0	519	498	180	501	38	0	
0	0	0	0	0	524	499	180	502	38	0	
1	0	0	0	0	513	501	180	504	38	0	
2	0	0	0	0	514	505	180	507	38	0	
3	0	0	0	0	508	508	180	508	38	0	
4	0	0	0	0	508	510	179	510	38	0	
5	0	0	0	0	514	514	181	513	38	0	
6	0	0	0	0	505	515	180	513	38	0	
7	0	0	0	0	510	517	180	514	38	0	
8	0	0	0	0	499	516	180	514	38	0	
9	0	0	0	0	499	514	180	515	38	0	
10	0	0	0	0	500	510	180	514	38	0	
11	0	0	0	0	503	507	181	513	38	0	
12	0	0	0	0	502	502	180	513	38	0	
13	0	0	0	0	507	499	180	511	38	0	
14	0	0	0	0	514	496	180	510	38	0	
15	0	0	0	0	509	494	180	509	38	0	
0	0	0	0	0	514	494	180	509	38	0	
1	0	0	0	0	520	496	180	509	38	0	
2	0	0	0	0	512	498	180	513	38	0	
3	0	0	0	0	519	501	180	516	38	0	
4	0	0	0	0	510	505	180	519	38	0	
5	0	0	0	0	508	508	180	521	38	0	
6	0	0	0	0	503	510	180	522	38	0	
7	0	0	0	0	508	510	180	521	38	0	
8	0	0	0	0	497	511	179	519	38	0	
9	0	0	0	0	494	510	181	524	38	0	
10	0	0	0	0	502	508	180	513	38	0	
11	0	0	0	0	502	504	180	510	38	0	
12	0	0	0	0	510	498	180	508	38	0	
13	0	0	0	0	509	493	180	505	38	0	
14	0	0	0	0	511	491	180	504	38	0	
15	0	0	0	0	510	491	180	504	38	0	
0	0	0	0	0	511	491	181	503	38	0	
1	0	0	0	0	519	492	180	502	38	0	
2	0	0	0	0	524	494	180	504	38	0	
3	0	0	0	0	511	498	180	505	38	0	
4	0	0	0	0	511	503	180	507	38	0	
5	0	0	0	0	510	507	180	515	38	0	
6	0	0	0	0	509	510	180	523	38	0	
7	0	0	0	0	510	512	180	526	38	0	
8	0	0	0	0	499	516	180	524	38	0	
9	0	0	0	0	509	517	179	524	38	0	
10	0	0	0	0	502	515	181	520	38	0	
11	0	0	0	0	497	512	180	517	38	0	
12	0	0	0	0	500	508	180	514	38	0	
13	0	0	0	0	508	504	180	511	38	0	
14	0	0	0	0	508	501	180	512	38	0	
15	0	0	0	0	512	499	180	507	38	0	
0	0	0	0	0	510	497	180	506	38	0	
1	0	0	0	0	511	496	181	506	38	0	
2	0	0	0	0	518	497	180	507	38	0	
3	0	0	0	0	516	500	180	508	38	0	
4	0	0	0	0	520	505	180	510	38	0	
5	0	0	0	0	504	510	180	511	38	0	
6	0	0	0	0	504	515	180	513	38	0	
7	0	0	0	0	504	519	180	514	38	0	
8	0	0	0	0	508	522	180	516	38	0	
9	0	0	0	0	492	524	180	517	38	0	
10	0	0	0	0	497	523	180	518	38	0	
11	0	0	0	0	505	520	179	515	38	0	
12	0	0	0	0	501	518	181	513	38	0	
13	0	0	0	0	504	514	180	511	38	0	
14	0	0	0	0	505	510	180	508	38	0	
15	0	0	0	0	513	507	180	505	38	0	
0	0	0	0	0	518	506	180	506	38	0	
1	0	0	0	0	513	506	180	507	38	0	
2	0	0	0	0	516	507	180	508	38	0	
3	0	0	0	0	518	509	180	508	38	0	
4	0	0	0	0	515	513	180	508	38	0	
5	0	0	0	0	516	519	180	510	38	0	
6	0	0	0	0	509	523	180	512	38	0	
7	0	0	0	0	505	527	180	516	38	0	
8	0	0	0	0	501	531	180	515	38	0	
9	0	0	0	0	502	534	179	515	38	0	
10	0	0	0	0	497	535	180	516	38	0	
11	0	0	0	0	500	534	180	515	38	0	
12	0	0	0	0	506	532	180	512	38	0	
13	0	0	0	0	498	528	180	510	38	0	
14	0	0	0	0	510	524	180	519	38	0	
15	0	0	0	0	514	519	180	508	38	0	
0	0	0	0	0	511	516	179	507	38	0	
1	0	0	0	0	510	514	180	506	38	0	
2	0	0	0	0	515	513	180	505	38	0	
3	0	0	0	0	510	515	179	504	38	0	
