# OpenSignals Text File Format. Version 1
# {"98:D3:B1:FD:3D:90": {"position": 0, "device": "bitalino_rev", "device name": "98:D3:B1:FD:3D:90", "device connection": "/dev/tty.BITalino-DevB", "sampling rate": 1000, "resolution": [4, 1, 1, 1, 1, 10, 10, 10, 10, 6, 6], "firmware version": 1281, "comments": "", "keywords": "", "mode": 0, "sync interval": 2, "date": "2022-4-6", "time": "22:16:22.157", "channels": [1, 2, 3, 4, 5, 6], "sensor": ["RAW", "ECGBIT", "EDABITREV", "RAW", "RAW", "RAW"], "label": ["A1", "A2", "A3", "A4", "A5", "A6"], "column": ["nSeq", "I1", "I2", "O1", "O2", "A1", "A2", "A3", "A4", "A5", "A6"], "special": [{}, {}, {}, {}, {}, {}], "digital IO": [0, 0, 1, 1]}}
# EndOfHeader
0	0	0	0	0	505	534	177	511	38	0	
1	0	0	0	0	505	531	177	515	38	0	
2	0	0	0	0	507	528	177	512	38	0	
3	0	0	0	0	507	524	176	511	38	0	
4	0	0	0	0	511	521	177	510	38	0	
5	0	0	0	0	510	520	177	508	38	0	
6	0	0	0	0	501	517	177	507	38	0	
7	0	0	0	0	502	515	177	506	38	0	
8	0	0	0	0	508	513	176	506	38	0	
9	0	0	0	0	503	512	177	507	38	0	
10	0	0	0	0	509	512	177	508	38	0	
11	0	0	0	0	506	514	176	510	38	0	
12	0	0	0	0	510	515	176	515	38	0	
13	0	0	0	0	505	516	177	519	38	0	
14	0	0	0	0	514	516	177	532	38	0	
15	0	0	0	0	511	515	177	523	38	0	
0	0	0	0	0	510	516	176	523	38	0	
1	0	0	0	0	509	517	177	530	38	0	
2	0	0	0	0	509	518	177	519	38	0	
3	0	0	0	0	499	517	176	517	38	0	
4	0	0	0	0	509	515	177	514	38	0	
5	0	0	0	0	512	513	177	511	38	0	
6	0	0	0	0	512	512	177	508	38	0	
7	0	0	0	0	512	511	176	507	38	0	
8	0	0	0	0	503	511	177	505	38	0	
9	0	0	0	0	508	510	177	505	38	0	
10	0	0	0	0	507	509	176	505	38	0	
11	0	0	0	0	507	508	177	508	38	0	
12	0	0	0	0	508	509	177	510	38	0	
13	0	0	0	0	506	510	177	512	38	0	
14	0	0	0	0	509	510	177	516	38	0	
15	0	0	0	0	510	509	176	518	38	0	
0	0	0	0	0	505	507	177	519	38	0	
1	0	0	0	0	515	506	177	518	38	0	
2	0	0	0	0	514	505	176	517	38	0	
3	0	0	0	0	501	503	177	516	38	0	
4	0	0	0	0	511	500	177	513	38	0	
5	0	0	0	0	512	499	177	510	38	0	
6	0	0	0	0	514	497	176	504	38	0	
7	0	0	0	0	511	496	177	502	38	0	
8	0	0	0	0	498	496	177	500	38	0	
9	0	0	0	0	502	494	177	500	38	0	
10	0	0	0	0	503	492	177	502	38	0	
11	0	0	0	0	507	492	176	501	38	0	
12	0	0	0	0	507	493	177	503	38	0	
13	0	0	0	0	511	494	177	508	38	0	
14	0	0	0	0	506	494	177	509	38	0	
15	0	0	0	0	515	495	177	513	38	0	
0	0	0	0	0	510	496	176	518	38	0	
1	0	0	0	0	514	496	177	519	38	0	
2	0	0	0	0	510	496	177	521	38	0	
3	0	0	0	0	512	496	177	521	38	0	
4	0	0	0	0	505	495	177	519	38	0	
5	0	0	0	0	505	494	177	517	38	0	
6	0	0	0	0	504	493	176	513	38	0	
7	0	0	0	0	512	493	177	511	38	0	
8	0	0	0	0	504	492	177	508	38	0	
9	0	0	0	0	505	491	177	509	38	0	
10	0	0	0	0	502	489	176	506	38	0	
11	0	0	0	0	504	487	177	505	38	0	
12	0	0	0	0	516	488	177	507	38	0	
13	0	0	0	0	511	489	177	508	38	0	
14	0	0	0	0	505	492	176	512	38	0	
15	0	0	0	0	497	494	177	522	38	0	
0	0	0	0	0	515	494	177	519	38	0	
1	0	0	0	0	512	494	177	522	38	0	
2	0	0	0	0	506	494	176	534	38	0	
3	0	0	0	0	520	494	177	522	38	0	
4	0	0	0	0	500	494	177	521	38	0	
5	0	0	0	0	505	492	177	519	38	0	
6	0	0	0	0	504	489	177	517	38	0	
7	0	0	0	0	509	488	177	512	38	0	
8	0	0	0	0	503	487	177	512	38	0	
9	0	0	0	0	507	487	176	509	38	0	
10	0	0	0	0	507	487	176	508	38	0	
11	0	0	0	0	511	486	177	510	38	0	
12	0	0	0	0	502	486	177	507	38	0	
13	0	0	0	0	513	487	177	512	38	0	
14	0	0	0	0	517	488	177	514	38	0	
15	0	0	0	0	501	490	177	516	38	0	
0	0	0	0	0	512	492	176	517	38	0	
1	0	0	0	0	512	494	176	519	38	0	
2	0	0	0	0	515	495	177	520	38	0	
3	0	0	0	0	511	496	177	520	38	0	
4	0	0	0	0	508	497	177	521	38	0	
5	0	0	0	0	508	497	176	519	38	0	
6	0	0	0	0	503	496	177	514	38	0	
7	0	0	0	0	507	496	177	510	38	0	
8	0	0	0	0	514	496	177	506	38	0	
9	0	0	0	0	509	494	176	505	38	0	
10	0	0	0	0	509	494	177	506	38	0	
11	0	0	0	0	505	495	177	507	38	0	
12	0	0	0	0	506	494	177	508	38	0	
13	0	0	0	0	500	495	176	510	38	0	
14	0	0	0	0	509	495	177	511	38	0	
15	0	0	0	0	505	496	177	519	38	0	
0	0	0	0	0	504	496	177	525	38	0	
1	0	0	0	0	508	496	176	526	38	0	
2	0	0	0	0	511	496	177	529	38	0	
3	0	0	0	0	515	496	177	528	38	0	
4	0	0	0	0	508	497	177	525	38	0	
5	0	0	0	0	515	497	176	522	38	0	
6	0	0	0	0	504	497	176	519	38	0	
7	0	0	0	0	509	497	177	516	38	0	
8	0	0	0	0	510	496	177	512	38	0	
9	0	0	0	0	506	496	177	507	38	0	
10	0	0	0	0	505	497	176	504	38	0	
11	0	0	0	0	510	498	177	503	38	0	
12	0	0	0	0	497	499	177	510	38	0	
13	0	0	0	0	504	500	177	503	38	0	
14	0	0	0	0	509	503	177	504	38	0	
15	0	0	0	0	508	506	176	507	38	0	
0	0	0	0	0	505	510	176	511	38	0	
1	0	0	0	0	512	512	177	517	38	0	
2	0	0	0	0	513	515	177	519	38	0	
3	0	0	0	0	512	517	176	519	38	0	
4	0	0	0	0	512	519	176	520	38	0	
5	0	0	0	0	513	519	177	519	38	0	
6	0	0	0	0	511	519	177	518	38	0	
7	0	0	0	0	511	519	176	515	38	0	
8	0	0	0	0	500	518	176	511	38	0	
9	0	0	0	0	511	516	177	509	38	0	
10	0	0	0	0	505	515	177	506	38	0	
11	0	0	0	0	501	515	177	503	38	0	
12	0	0	0	0	507	515	176	502	38	0	
13	0	0	0	0	509	515	176	502	38	0	
14	0	0	0	0	508	517	177	502	38	0	
15	0	0	0	0	513	518	177	503	38	0	
0	0	0	0	0	513	521	176	507	38	0	
1	0	0	0	0	504	523	176	511	38	0	
2	0	0	0	0	505	525	177	516	38	0	
3	0	0	0	0	508	527	177	519	38	0	
4	0	0	0	0	510	528	177	521	38	0	
5	0	0	0	0	507	529	176	523	38	0	
6	0	0	0	0	510	530	176	524	38	0	
7	0	0	0	0	510	529	177	521	38	0	
8	0	0	0	0	504	528	177	518	38	0	
9	0	0	0	0	502	527	176	516	38	0	
10	0	0	0	0	512	526	176	512	38	0	
11	0	0	0	0	511	526	177	510	38	0	
12	0	0	0	0	511	527	177	508	38	0	
13	0	0	0	0	510	526	177	504	38	0	
14	0	0	0	0	501	525	177	504	38	0	
15	0	0	0	0	510	526	176	503	38	0	
0	0	0	0	0	508	527	177	503	38	0	
1	0	0	0	0	514	530	177	505	38	0	
2	0	0	0	0	505	531	177	507	38	0	
3	0	0	0	0	507	532	176	509	38	0	
4	0	0	0	0	512	532	177	512	38	0	
5	0	0	0	0	508	534	177	514	38	0	
6	0	0	0	0	512	536	177	516	38	0	
7	0	0	0	0	514	538	177	518	38	0	
8	0	0	0	0	504	538	176	516	38	0	
9	0	0	0	0	505	537	177	514	38	0	
10	0	0	0	0	514	536	177	512	38	0	
11	0	0	0	0	507	535	177	508	38	0	
12	0	0	0	0	501	533	176	505	38	0	
13	0	0	0	0	502	533	177	504	38	0	
14	0	0	0	0	511	534	177	503	38	0	
15	0	0	0	0	504	535	177	503	38	0	
0	0	0	0	0	506	536	177	505	38	0	
1	0	0	0	0	499	538	176	507	38	0	
2	0	0	0	0	507	540	177	520	38	0	
3	0	0	0	0	508	541	177	517	38	0	
4	0	0	0	0	511	542	176	521	38	0	
5	0	0	0	0	510	544	176	522	38	0	
6	0	0	0	0	515	545	177	523	38	0	
7	0	0	0	0	514	546	177	523	38	0	
8	0	0	0	0	513	546	176	520	38	0	
9	0	0	0	0	507	546	177	515	38	0	
10	0	0	0	0	507	545	177	511	38	0	
11	0	0	0	0	514	544	177	508	38	0	
12	0	0	0	0	513	543	176	508	38	0	
13	0	0	0	0	503	542	176	505	38	0	
14	0	0	0	0	502	542	177	504	38	0	
15	0	0	0	0	516	541	177	504	38	0	
0	0	0	0	0	509	540	177	504	38	0	
1	0	0	0	0	502	540	176	506	38	0	
2	0	0	0	0	511	542	177	508	38	0	
3	0	0	0	0	511	543	177	515	38	0	
4	0	0	0	0	505	543	177	516	38	0	
5	0	0	0	0	512	543	176	519	38	0	
6	0	0	0	0	506	543	177	521	38	0	
7	0	0	0	0	513	544	177	520	38	0	
8	0	0	0	0	515	545	176	520	38	0	
9	0	0	0	0	506	545	177	519	38	0	
10	0	0	0	0	506	545	177	519	38	0	
11	0	0	0	0	502	544	177	515	38	0	
12	0	0	0	0	501	544	176	511	38	0	
13	0	0	0	0	513	544	176	508	38	0	
14	0	0	0	0	513	544	177	505	38	0	
15	0	0	0	0	508	543	177	504	38	0	
0	0	0	0	0	499	543	176	504	38	0	
1	0	0	0	0	504	543	176	503	38	0	
2	0	0	0	0	504	542	177	504	38	0	
3	0	0	0	0	512	543	177	505	38	0	
4	0	0	0	0	503	542	176	509	38	0	
5	0	0	0	0	504	542	177	510	38	0	
6	0	0	0	0	514	542	177	512	38	0	
7	0	0	0	0	513	542	177	515	38	0	
8	0	0	0	0	509	543	176	516	38	0	
9	0	0	0	0	505	543	176	516	38	0	
10	0	0	0	0	506	542	177	516	38	0	
11	0	0	0	0	504	540	177	519	38	0	
12	0	0	0	0	512	540	176	511	38	0	
13	0	0	0	0	508	540	177	508	38	0	
14	0	0	0	0	508	539	177	507	38	0	
15	0	0	0	0	504	538	176	506	38	0	
0	0	0	0	0	516	537	177	505	38	0	
1	0	0	0	0	502	538	177	505	38	0	
2	0	0	0	0	505	539	177	505	38	0	
3	0	0	0	0	506	540	176	508	38	0	
4	0	0	0	0	503	542	176	513	38	0	
5	0	0	0	0	505	543	177	516	38	0	
6	0	0	0	0	511	543	177	519	38	0	
7	0	0	0	0	508	542	177	520	38	0	
8	0	0	0	0	506	541	176	519	38	0	
9	0	0	0	0	521	540	176	518	38	0	
10	0	0	0	0	507	539	177	516	38	0	
11	0	0	0	0	507	538	177	514	38	0	
12	0	0	0	0	504	537	177	512	38	0	
13	0	0	0	0	515	537	176	508	38	0	
14	0	0	0	0	509	538	177	504	38	0	
15	0	0	0	0	499	539	177	503	38	0	
0	0	0	0	0	503	539	177	501	38	0	
1	0	0	0	0	501	539	176	500	38	0	
2	0	0	0	0	512	540	176	502	38	0	
3	0	0	0	0	516	540	177	503	38	0	
4	0	0	0	0	503	542	177	507	38	0	
5	0	0	0	0	505	542	176	511	38	0	
6	0	0	0	0	508	542	176	512	38	0	
7	0	0	0	0	513	542	177	516	38	0	
8	0	0	0	0	512	541	177	518	38	0	
9	0	0	0	0	511	541	176	518	38	0	
10	0	0	0	0	512	541	176	517	38	0	
11	0	0	0	0	507	541	177	517	38	0	
12	0	0	0	0	515	540	177	515	38	0	
13	0	0	0	0	510	539	176	512	38	0	
14	0	0	0	0	516	539	176	511	38	0	
15	0	0	0	0	502	539	177	508	38	0	
0	0	0	0	0	504	538	177	507	38	0	
1	0	0	0	0	503	536	176	505	38	0	
2	0	0	0	0	507	536	176	504	38	0	
3	0	0	0	0	500	536	177	505	38	0	
4	0	0	0	0	512	536	177	508	38	0	
5	0	0	0	0	509	537	176	512	38	0	
6	0	0	0	0	508	536	177	517	38	0	
7	0	0	0	0	512	536	177	523	38	0	
8	0	0	0	0	506	536	177	525	38	0	
9	0	0	0	0	514	536	176	526	38	0	
10	0	0	0	0	502	539	176	526	38	0	
11	0	0	0	0	506	540	177	522	38	0	
12	0	0	0	0	504	538	177	521	38	0	
13	0	0	0	0	512	536	177	518	38	0	
14	0	0	0	0	513	534	176	514	38	0	
15	0	0	0	0	510	532	176	511	38	0	
0	0	0	0	0	504	529	177	509	38	0	
1	0	0	0	0	505	529	177	506	38	0	
2	0	0	0	0	504	527	176	505	38	0	
3	0	0	0	0	503	526	176	514	38	0	
4	0	0	0	0	511	527	177	511	38	0	
5	0	0	0	0	507	527	177	514	38	0	
6	0	0	0	0	505	527	176	516	38	0	
7	0	0	0	0	512	527	176	520	38	0	
8	0	0	0	0	519	528	177	521	38	0	
9	0	0	0	0	510	528	177	525	38	0	
10	0	0	0	0	506	525	176	523	38	0	
11	0	0	0	0	505	522	176	521	38	0	
12	0	0	0	0	510	520	177	519	38	0	
13	0	0	0	0	511	519	177	517	38	0	
14	0	0	0	0	505	516	177	513	38	0	
15	0	0	0	0	508	514	176	509	38	0	
0	0	0	0	0	508	513	176	507	38	0	
1	0	0	0	0	505	512	177	505	38	0	
2	0	0	0	0	508	512	177	503	38	0	
3	0	0	0	0	516	513	176	502	38	0	
4	0	0	0	0	503	513	177	502	38	0	
5	0	0	0	0	508	513	177	503	38	0	
6	0	0	0	0	515	514	176	504	38	0	
7	0	0	0	0	505	515	176	507	38	0	
8	0	0	0	0	502	515	177	510	38	0	
9	0	0	0	0	507	513	177	512	38	0	
10	0	0	0	0	512	512	176	515	38	0	
11	0	0	0	0	512	511	176	516	38	0	
12	0	0	0	0	508	510	176	516	38	0	
13	0	0	0	0	506	508	177	515	38	0	
14	0	0	0	0	509	507	177	512	38	0	
15	0	0	0	0	511	504	177	510	38	0	
0	0	0	0	0	508	503	176	506	38	0	
1	0	0	0	0	503	503	176	515	38	0	
2	0	0	0	0	504	502	177	503	38	0	
3	0	0	0	0	499	500	177	500	38	0	
4	0	0	0	0	505	499	177	499	38	0	
5	0	0	0	0	508	500	176	500	38	0	
6	0	0	0	0	511	501	177	504	38	0	
7	0	0	0	0	510	502	177	508	38	0	
8	0	0	0	0	511	502	177	510	38	0	
9	0	0	0	0	507	503	176	514	38	0	
10	0	0	0	0	514	501	176	515	38	0	
11	0	0	0	0	513	502	177	518	38	0	
12	0	0	0	0	509	504	177	520	38	0	
13	0	0	0	0	508	503	177	519	38	0	
14	0	0	0	0	506	504	176	517	38	0	
15	0	0	0	0	505	503	176	515	38	0	
0	0	0	0	0	508	503	177	511	38	0	
1	0	0	0	0	511	504	177	509	38	0	
2	0	0	0	0	505	504	176	507	38	0	
3	0	0	0	0	504	502	177	507	38	0	
4	0	0	0	0	507	502	177	511	38	0	
5	0	0	0	0	507	502	177	504	38	0	
6	0	0	0	0	504	502	177	507	38	0	
7	0	0	0	0	508	503	177	510	38	0	
8	0	0	0	0	516	504	176	510	38	0	
9	0	0	0	0	509	505	177	512	38	0	
10	0	0	0	0	505	504	177	520	38	0	
11	0	0	0	0	508	504	177	518	38	0	
12	0	0	0	0	508	505	176	519	38	0	
13	0	0	0	0	519	507	176	518	38	0	
14	0	0	0	0	508	508	177	515	38	0	
15	0	0	0	0	512	508	177	514	38	0	
0	0	0	0	0	508	506	176	511	38	0	
1	0	0	0	0	513	504	176	508	38	0	
2	0	0	0	0	507	504	177	505	38	0	
3	0	0	0	0	508	504	177	505	38	0	
4	0	0	0	0	504	505	177	503	38	0	
5	0	0	0	0	512	507	176	504	38	0	
6	0	0	0	0	503	508	177	506	38	0	
7	0	0	0	0	505	508	177	510	38	0	
8	0	0	0	0	506	509	176	511	38	0	
9	0	0	0	0	510	511	176	515	38	0	
10	0	0	0	0	510	511	177	516	38	0	
11	0	0	0	0	510	511	177	516	38	0	
12	0	0	0	0	508	510	176	518	38	0	
13	0	0	0	0	511	510	176	519	38	0	
14	0	0	0	0	511	510	177	519	38	0	
15	0	0	0	0	511	511	177	518	38	0	
0	0	0	0	0	511	511	176	517	38	0	
1	0	0	0	0	511	511	176	515	38	0	
2	0	0	0	0	516	512	177	512	38	0	
3	0	0	0	0	505	512	177	508	38	0	
4	0	0	0	0	503	513	177	506	38	0	
5	0	0	0	0	504	513	176	503	38	0	
6	0	0	0	0	499	513	177	501	38	0	
7	0	0	0	0	508	513	177	502	38	0	
8	0	0	0	0	507	513	177	502	38	0	
9	0	0	0	0	509	516	176	504	38	0	
10	0	0	0	0	506	517	177	518	38	0	
11	0	0	0	0	512	517	177	513	38	0	
12	0	0	0	0	507	517	176	519	38	0	
13	0	0	0	0	514	516	176	524	38	0	
14	0	0	0	0	511	516	177	524	38	0	
15	0	0	0	0	514	515	177	522	38	0	
0	0	0	0	0	505	516	177	520	38	0	
1	0	0	0	0	511	516	176	516	38	0	
2	0	0	0	0	514	516	176	515	38	0	
3	0	0	0	0	504	516	177	525	38	0	
4	0	0	0	0	494	515	177	510	38	0	
5	0	0	0	0	505	515	177	509	38	0	
6	0	0	0	0	507	514	176	508	38	0	
7	0	0	0	0	504	515	177	506	38	0	
8	0	0	0	0	508	516	177	508	38	0	
9	0	0	0	0	512	517	177	511	38	0	
10	0	0	0	0	510	519	176	516	38	0	
11	0	0	0	0	509	520	176	521	38	0	
12	0	0	0	0	519	520	177	524	38	0	
13	0	0	0	0	512	519	177	527	38	0	
14	0	0	0	0	502	520	177	526	38	0	
15	0	0	0	0	508	521	176	524	38	0	
0	0	0	0	0	506	521	177	524	38	0	
1	0	0	0	0	513	521	177	521	38	0	
2	0	0	0	0	504	523	176	515	38	0	
3	0	0	0	0	516	523	176	511	38	0	
4	0	0	0	0	508	521	177	506	38	0	
5	0	0	0	0	504	519	177	505	38	0	
6	0	0	0	0	504	518	176	504	38	0	
7	0	0	0	0	503	516	176	503	38	0	
8	0	0	0	0	505	516	177	503	38	0	
9	0	0	0	0	510	516	177	504	38	0	
10	0	0	0	0	503	518	177	505	38	0	
11	0	0	0	0	504	519	176	508	38	0	
12	0	0	0	0	502	520	177	512	38	0	
13	0	0	0	0	520	520	177	516	38	0	
14	0	0	0	0	517	521	177	517	38	0	
15	0	0	0	0	515	521	176	518	38	0	
0	0	0	0	0	512	521	177	518	38	0	
1	0	0	0	0	508	523	177	519	38	0	
2	0	0	0	0	516	521	176	518	38	0	
3	0	0	0	0	510	519	176	515	38	0	
4	0	0	0	0	510	519	176	511	38	0	
5	0	0	0	0	502	519	177	510	38	0	
6	0	0	0	0	502	519	177	507	38	0	
7	0	0	0	0	505	518	176	504	38	0	
8	0	0	0	0	502	518	177	506	38	0	
9	0	0	0	0	502	519	177	506	38	0	
10	0	0	0	0	507	519	177	506	38	0	
11	0	0	0	0	509	520	176	509	38	0	
12	0	0	0	0	508	520	176	510	38	0	
13	0	0	0	0	509	520	177	515	38	0	
14	0	0	0	0	514	521	177	520	38	0	
15	0	0	0	0	518	522	176	516	38	0	
0	0	0	0	0	504	523	176	518	38	0	
1	0	0	0	0	509	522	177	519	38	0	
2	0	0	0	0	505	522	177	516	38	0	
3	0	0	0	0	513	521	176	514	38	0	
4	0	0	0	0	511	521	176	511	38	0	
5	0	0	0	0	508	522	176	510	38	0	
6	0	0	0	0	504	523	177	508	38	0	
7	0	0	0	0	509	524	177	507	38	0	
8	0	0	0	0	506	524	177	507	38	0	
9	0	0	0	0	504	525	176	508	38	0	
10	0	0	0	0	503	526	177	518	38	0	
11	0	0	0	0	500	527	177	509	38	0	
12	0	0	0	0	514	529	176	514	38	0	
13	0	0	0	0	509	530	176	528	38	0	
14	0	0	0	0	518	529	177	520	38	0	
15	0	0	0	0	511	529	177	522	38	0	
0	0	0	0	0	511	529	176	531	38	0	
1	0	0	0	0	510	531	176	521	38	0	
2	0	0	0	0	500	532	177	520	38	0	
3	0	0	0	0	501	534	176	518	38	0	
4	0	0	0	0	511	535	176	515	38	0	
5	0	0	0	0	507	536	177	513	38	0	
6	0	0	0	0	508	537	177	512	38	0	
7	0	0	0	0	508	539	177	508	38	0	
8	0	0	0	0	505	543	176	506	38	0	
9	0	0	0	0	502	545	176	504	38	0	
10	0	0	0	0	513	545	177	503	38	0	
11	0	0	0	0	505	546	177	505	38	0	
12	0	0	0	0	509	548	177	508	38	0	
13	0	0	0	0	504	550	176	517	38	0	
14	0	0	0	0	513	551	176	523	38	0	
15	0	0	0	0	515	551	177	528	38	0	
0	0	0	0	0	508	552	176	542	38	0	
1	0	0	0	0	510	552	176	532	38	0	
2	0	0	0	0	515	550	177	530	38	0	
3	0	0	0	0	506	547	177	526	38	0	
4	0	0	0	0	509	543	176	522	38	0	
5	0	0	0	0	503	536	177	519	38	0	
6	0	0	0	0	515	530	177	515	38	0	
7	0	0	0	0	513	524	176	512	38	0	
8	0	0	0	0	500	520	176	509	38	0	
9	0	0	0	0	504	515	177	505	38	0	
10	0	0	0	0	508	509	177	504	38	0	
11	0	0	0	0	502	504	176	505	38	0	
12	0	0	0	0	504	500	177	508	38	0	
13	0	0	0	0	504	499	177	511	38	0	
14	0	0	0	0	510	496	176	513	38	0	
15	0	0	0	0	508	495	176	517	38	0	
0	0	0	0	0	510	492	177	520	38	0	
1	0	0	0	0	512	486	177	521	38	0	
2	0	0	0	0	514	481	177	521	38	0	
3	0	0	0	0	514	477	177	519	38	0	
4	0	0	0	0	505	473	176	515	38	0	
5	0	0	0	0	505	469	177	515	38	0	
6	0	0	0	0	511	464	177	513	38	0	
7	0	0	0	0	514	461	177	511	38	0	
8	0	0	0	0	501	459	177	508	38	0	
9	0	0	0	0	503	458	177	513	38	0	
10	0	0	0	0	503	455	177	503	38	0	
11	0	0	0	0	504	454	177	503	38	0	
12	0	0	0	0	511	454	177	505	38	0	
13	0	0	0	0	518	452	177	506	38	0	
14	0	0	0	0	508	452	177	508	38	0	
15	0	0	0	0	507	452	177	510	38	0	
0	0	0	0	0	511	452	176	511	38	0	
1	0	0	0	0	507	453	177	514	38	0	
2	0	0	0	0	505	455	177	516	38	0	
3	0	0	0	0	505	460	177	518	38	0	
4	0	0	0	0	512	464	176	516	38	0	
5	0	0	0	0	512	469	177	513	38	0	
6	0	0	0	0	511	473	177	511	38	0	
7	0	0	0	0	515	478	177	519	38	0	
8	0	0	0	0	506	482	176	504	38	0	
9	0	0	0	0	508	486	177	502	38	0	
10	0	0	0	0	499	489	177	500	38	0	
11	0	0	0	0	502	494	176	498	38	0	
12	0	0	0	0	499	497	176	499	38	0	
13	0	0	0	0	513	502	177	501	38	0	
14	0	0	0	0	507	508	177	504	38	0	
15	0	0	0	0	506	513	177	507	38	0	
0	0	0	0	0	511	517	176	510	38	0	
1	0	0	0	0	513	519	177	511	38	0	
2	0	0	0	0	507	521	177	515	38	0	
3	0	0	0	0	510	523	177	519	38	0	
4	0	0	0	0	516	524	176	521	38	0	
5	0	0	0	0	503	525	177	519	38	0	
6	0	0	0	0	496	526	177	517	38	0	
7	0	0	0	0	508	525	177	512	38	0	
8	0	0	0	0	510	525	176	509	38	0	
9	0	0	0	0	513	525	176	507	38	0	
10	0	0	0	0	507	527	177	504	38	0	
11	0	0	0	0	505	528	177	502	38	0	
12	0	0	0	0	504	528	176	502	38	0	
13	0	0	0	0	507	529	176	503	38	0	
14	0	0	0	0	511	529	177	506	38	0	
15	0	0	0	0	509	531	176	510	38	0	
0	0	0	0	0	504	531	176	511	38	0	
1	0	0	0	0	503	532	177	514	38	0	
2	0	0	0	0	513	532	177	514	38	0	
3	0	0	0	0	510	534	176	513	38	0	
4	0	0	0	0	508	537	176	513	38	0	
5	0	0	0	0	515	538	177	512	38	0	
6	0	0	0	0	516	538	177	511	38	0	
7	0	0	0	0	508	537	176	509	38	0	
8	0	0	0	0	510	536	176	508	38	0	
9	0	0	0	0	510	535	176	506	38	0	
10	0	0	0	0	502	536	177	505	38	0	
11	0	0	0	0	508	536	177	504	38	0	
12	0	0	0	0	505	535	176	501	38	0	
13	0	0	0	0	500	535	176	503	38	0	
14	0	0	0	0	508	536	177	503	38	0	
15	0	0	0	0	511	537	177	506	38	0	
0	0	0	0	0	508	539	176	509	38	0	
1	0	0	0	0	512	541	176	512	38	0	
2	0	0	0	0	502	542	176	515	38	0	
3	0	0	0	0	517	543	177	518	38	0	
4	0	0	0	0	509	544	176	518	38	0	
5	0	0	0	0	508	545	176	519	38	0	
6	0	0	0	0	513	544	177	519	38	0	
7	0	0	0	0	509	542	177	519	38	0	
8	0	0	0	0	505	540	176	516	38	0	
9	0	0	0	0	511	537	176	513	38	0	
10	0	0	0	0	513	537	177	507	38	0	
11	0	0	0	0	503	537	177	506	38	0	
12	0	0	0	0	502	537	176	504	38	0	
13	0	0	0	0	510	536	176	503	38	0	
14	0	0	0	0	504	537	177	503	38	0	
15	0	0	0	0	508	537	177	508	38	0	
0	0	0	0	0	506	538	176	514	38	0	
1	0	0	0	0	513	536	176	523	38	0	
2	0	0	0	0	502	536	177	527	38	0	
3	0	0	0	0	514	537	177	528	38	0	
4	0	0	0	0	517	536	177	530	38	0	
5	0	0	0	0	514	536	176	529	38	0	
6	0	0	0	0	511	536	176	527	38	0	
7	0	0	0	0	503	533	177	524	38	0	
8	0	0	0	0	504	532	177	521	38	0	
9	0	0	0	0	512	532	176	515	38	0	
10	0	0	0	0	510	531	176	512	38	0	
11	0	0	0	0	514	532	176	508	38	0	
12	0	0	0	0	505	533	177	504	38	0	
13	0	0	0	0	504	533	177	504	38	0	
14	0	0	0	0	500	532	176	512	38	0	
15	0	0	0	0	501	531	176	502	38	0	
0	0	0	0	0	511	532	177	504	38	0	
1	0	0	0	0	505	532	177	515	38	0	
2	0	0	0	0	508	532	176	510	38	0	
3	0	0	0	0	504	532	176	512	38	0	
4	0	0	0	0	507	531	177	515	38	0	
5	0	0	0	0	515	531	177	513	38	0	
6	0	0	0	0	512	530	176	514	38	0	
7	0	0	0	0	513	530	176	513	38	0	
8	0	0	0	0	514	530	177	511	38	0	
9	0	0	0	0	509	528	177	510	38	0	
10	0	0	0	0	505	527	176	509	38	0	
11	0	0	0	0	512	526	177	505	38	0	
12	0	0	0	0	510	527	177	504	38	0	
13	0	0	0	0	506	528	177	502	38	0	
14	0	0	0	0	509	528	176	500	38	0	
15	0	0	0	0	499	528	176	501	38	0	
0	0	0	0	0	505	528	177	504	38	0	
1	0	0	0	0	509	529	177	508	38	0	
2	0	0	0	0	512	531	177	512	38	0	
3	0	0	0	0	508	532	176	516	38	0	
4	0	0	0	0	513	532	177	519	38	0	
5	0	0	0	0	511	534	177	519	38	0	
6	0	0	0	0	513	533	176	521	38	0	
7	0	0	0	0	507	534	176	524	38	0	
8	0	0	0	0	512	534	177	521	38	0	
9	0	0	0	0	507	534	177	520	38	0	
10	0	0	0	0	513	533	177	521	38	0	
11	0	0	0	0	511	532	176	512	38	0	
12	0	0	0	0	511	531	177	508	38	0	
13	0	0	0	0	503	531	177	507	38	0	
14	0	0	0	0	511	530	177	503	38	0	
15	0	0	0	0	514	528	177	502	38	0	
0	0	0	0	0	508	526	176	501	38	0	
1	0	0	0	0	510	526	176	504	38	0	
2	0	0	0	0	504	526	177	508	38	0	
3	0	0	0	0	504	526	177	510	38	0	
4	0	0	0	0	502	527	177	514	38	0	
5	0	0	0	0	511	526	176	515	38	0	
6	0	0	0	0	512	525	177	516	38	0	
7	0	0	0	0	508	525	177	519	38	0	
8	0	0	0	0	510	527	177	520	38	0	
9	0	0	0	0	504	527	177	518	38	0	
10	0	0	0	0	507	527	176	513	38	0	
11	0	0	0	0	504	527	176	510	38	0	
12	0	0	0	0	521	525	177	505	38	0	
13	0	0	0	0	511	523	177	503	38	0	
14	0	0	0	0	497	524	176	500	38	0	
15	0	0	0	0	499	523	176	501	38	0	
0	0	0	0	0	502	522	177	500	38	0	
1	0	0	0	0	504	522	177	501	38	0	
2	0	0	0	0	508	520	176	502	38	0	
3	0	0	0	0	503	520	177	504	38	0	
4	0	0	0	0	504	521	177	508	38	0	
5	0	0	0	0	511	521	177	517	38	0	
6	0	0	0	0	509	520	176	525	38	0	
7	0	0	0	0	514	521	177	528	38	0	
8	0	0	0	0	507	522	177	526	38	0	
9	0	0	0	0	513	522	177	524	38	0	
10	0	0	0	0	511	521	176	523	38	0	
11	0	0	0	0	508	520	177	516	38	0	
12	0	0	0	0	514	519	177	510	38	0	
13	0	0	0	0	506	519	177	510	38	0	
14	0	0	0	0	504	518	176	503	38	0	
15	0	0	0	0	504	518	176	500	38	0	
0	0	0	0	0	504	518	177	498	38	0	
1	0	0	0	0	504	517	177	498	38	0	
2	0	0	0	0	507	518	177	499	38	0	
3	0	0	0	0	504	519	176	501	38	0	
4	0	0	0	0	510	521	176	505	38	0	
5	0	0	0	0	510	522	177	509	38	0	
6	0	0	0	0	510	521	177	512	38	0	
7	0	0	0	0	511	521	177	515	38	0	
8	0	0	0	0	513	522	176	515	38	0	
9	0	0	0	0	509	524	176	515	38	0	
10	0	0	0	0	511	524	177	515	38	0	
11	0	0	0	0	511	524	177	513	38	0	
12	0	0	0	0	507	522	176	509	38	0	
13	0	0	0	0	508	520	176	506	38	0	
14	0	0	0	0	503	520	177	506	38	0	
15	0	0	0	0	505	521	177	504	38	0	
0	0	0	0	0	505	522	177	507	38	0	
1	0	0	0	0	507	522	177	508	38	0	
2	0	0	0	0	506	522	176	508	38	0	
3	0	0	0	0	508	523	176	508	38	0	
4	0	0	0	0	505	524	177	511	38	0	
5	0	0	0	0	509	525	177	514	38	0	
6	0	0	0	0	505	525	177	515	38	0	
7	0	0	0	0	513	525	176	514	38	0	
8	0	0	0	0	510	527	176	516	38	0	
9	0	0	0	0	513	529	177	515	38	0	
10	0	0	0	0	511	531	177	514	38	0	
11	0	0	0	0	510	532	176	513	38	0	
12	0	0	0	0	504	532	176	512	38	0	
13	0	0	0	0	502	531	177	509	38	0	
14	0	0	0	0	512	530	177	505	38	0	
15	0	0	0	0	515	529	177	504	38	0	
0	0	0	0	0	499	530	176	501	38	0	
1	0	0	0	0	509	529	177	500	38	0	
2	0	0	0	0	508	529	177	501	38	0	
3	0	0	0	0	508	530	177	503	38	0	
4	0	0	0	0	513	531	176	506	38	0	
5	0	0	0	0	510	532	176	510	38	0	
6	0	0	0	0	513	534	177	515	38	0	
7	0	0	0	0	509	535	177	524	38	0	
8	0	0	0	0	512	536	176	530	38	0	
9	0	0	0	0	508	536	176	532	38	0	
10	0	0	0	0	515	535	177	531	38	0	
11	0	0	0	0	515	534	177	527	38	0	
12	0	0	0	0	505	534	176	525	38	0	
13	0	0	0	0	507	532	177	521	38	0	
14	0	0	0	0	509	530	177	518	38	0	
15	0	0	0	0	509	529	177	516	38	0	
0	0	0	0	0	508	528	176	513	38	0	
1	0	0	0	0	498	528	177	508	38	0	
2	0	0	0	0	507	528	177	508	38	0	
3	0	0	0	0	501	527	176	506	38	0	
4	0	0	0	0	504	527	176	504	38	0	
5	0	0	0	0	512	527	177	506	38	0	
6	0	0	0	0	502	529	177	508	38	0	
7	0	0	0	0	498	529	176	513	38	0	
8	0	0	0	0	508	529	176	513	38	0	
9	0	0	0	0	513	529	177	514	38	0	
10	0	0	0	0	516	528	177	515	38	0	
11	0	0	0	0	510	528	177	514	38	0	
12	0	0	0	0	511	526	176	513	38	0	
13	0	0	0	0	503	525	177	510	38	0	
14	0	0	0	0	506	524	177	507	38	0	
15	0	0	0	0	508	523	177	505	38	0	
0	0	0	0	0	503	522	176	504	38	0	
1	0	0	0	0	505	521	176	503	38	0	
2	0	0	0	0	509	519	177	502	38	0	
3	0	0	0	0	499	518	177	500	38	0	
4	0	0	0	0	507	517	177	503	38	0	
5	0	0	0	0	509	517	176	504	38	0	
6	0	0	0	0	505	517	177	506	38	0	
7	0	0	0	0	512	518	177	508	38	0	
8	0	0	0	0	510	518	177	512	38	0	
9	0	0	0	0	512	517	176	515	38	0	
10	0	0	0	0	506	517	177	516	38	0	
11	0	0	0	0	511	516	177	518	38	0	
12	0	0	0	0	510	517	177	518	38	0	
13	0	0	0	0	510	516	176	515	38	0	
14	0	0	0	0	509	515	176	513	38	0	
15	0	0	0	0	511	514	177	510	38	0	
0	0	0	0	0	515	513	177	508	38	0	
1	0	0	0	0	500	512	176	506	38	0	
2	0	0	0	0	503	512	177	507	38	0	
3	0	0	0	0	504	511	177	507	38	0	
4	0	0	0	0	508	509	177	507	38	0	
5	0	0	0	0	508	508	177	507	38	0	
6	0	0	0	0	513	507	176	508	38	0	
7	0	0	0	0	511	507	177	512	38	0	
8	0	0	0	0	503	508	177	515	38	0	
9	0	0	0	0	504	508	176	516	38	0	
10	0	0	0	0	510	509	177	516	38	0	
11	0	0	0	0	516	509	177	515	38	0	
12	0	0	0	0	515	509	177	524	38	0	
13	0	0	0	0	503	508	176	513	38	0	
14	0	0	0	0	513	507	177	514	38	0	
15	0	0	0	0	510	506	177	513	38	0	
0	0	0	0	0	510	504	177	512	38	0	
1	0	0	0	0	508	504	176	511	38	0	
2	0	0	0	0	503	502	176	510	38	0	
3	0	0	0	0	504	501	177	507	38	0	
4	0	0	0	0	508	499	177	505	38	0	
5	0	0	0	0	510	498	176	502	38	0	
6	0	0	0	0	510	499	176	503	38	0	
7	0	0	0	0	507	499	177	503	38	0	
8	0	0	0	0	512	501	177	505	38	0	
9	0	0	0	0	502	503	176	507	38	0	
10	0	0	0	0	507	503	176	509	38	0	
11	0	0	0	0	513	503	177	511	38	0	
12	0	0	0	0	509	503	177	512	38	0	
13	0	0	0	0	511	503	176	515	38	0	
14	0	0	0	0	509	504	177	516	38	0	
15	0	0	0	0	511	503	177	514	38	0	
0	0	0	0	0	511	501	176	516	38	0	
1	0	0	0	0	512	499	176	510	38	0	
2	0	0	0	0	510	497	177	507	38	0	
3	0	0	0	0	503	496	177	507	38	0	
4	0	0	0	0	503	496	177	505	38	0	
5	0	0	0	0	505	494	177	504	38	0	
6	0	0	0	0	505	492	176	504	38	0	
7	0	0	0	0	507	493	177	509	38	0	
8	0	0	0	0	514	494	177	511	38	0	
9	0	0	0	0	516	496	177	515	38	0	
10	0	0	0	0	503	496	176	519	38	0	
11	0	0	0	0	512	495	177	520	38	0	
12	0	0	0	0	505	494	177	522	38	0	
13	0	0	0	0	512	496	177	520	38	0	
14	0	0	0	0	515	496	176	519	38	0	
15	0	0	0	0	508	496	176	518	38	0	
0	0	0	0	0	503	495	177	515	38	0	
1	0	0	0	0	508	492	177	512	38	0	
2	0	0	0	0	514	490	177	511	38	0	
3	0	0	0	0	509	489	176	508	38	0	
4	0	0	0	0	504	488	177	504	38	0	
5	0	0	0	0	503	487	177	503	38	0	
6	0	0	0	0	504	486	177	503	38	0	
7	0	0	0	0	511	487	176	501	38	0	
8	0	0	0	0	510	487	177	502	38	0	
9	0	0	0	0	510	489	177	506	38	0	
10	0	0	0	0	505	490	176	508	38	0	
11	0	0	0	0	509	492	176	516	38	0	
12	0	0	0	0	517	493	177	519	38	0	
13	0	0	0	0	507	493	177	521	38	0	
14	0	0	0	0	505	494	176	521	38	0	
15	0	0	0	0	508	495	177	518	38	0	
0	0	0	0	0	510	495	177	516	38	0	
1	0	0	0	0	503	494	177	515	38	0	
2	0	0	0	0	507	493	176	513	38	0	
3	0	0	0	0	506	492	176	508	38	0	
4	0	0	0	0	517	490	177	505	38	0	
5	0	0	0	0	515	488	177	504	38	0	
6	0	0	0	0	500	488	177	504	38	0	
7	0	0	0	0	499	487	176	502	38	0	
8	0	0	0	0	503	488	176	504	38	0	
9	0	0	0	0	513	489	177	508	38	0	
10	0	0	0	0	504	490	177	511	38	0	
11	0	0	0	0	510	491	176	515	38	0	
12	0	0	0	0	506	491	176	516	38	0	
13	0	0	0	0	512	491	177	519	38	0	
14	0	0	0	0	515	491	177	519	38	0	
15	0	0	0	0	510	492	176	519	38	0	
0	0	0	0	0	512	493	176	519	38	0	
1	0	0	0	0	510	493	177	516	38	0	
2	0	0	0	0	501	492	177	513	38	0	
3	0	0	0	0	504	492	176	509	38	0	
4	0	0	0	0	507	491	177	505	38	0	
5	0	0	0	0	510	490	177	504	38	0	
6	0	0	0	0	510	491	177	504	38	0	
7	0	0	0	0	502	491	176	504	38	0	
8	0	0	0	0	504	490	176	503	38	0	
9	0	0	0	0	508	491	177	505	38	0	
10	0	0	0	0	512	492	177	511	38	0	
11	0	0	0	0	504	494	177	512	38	0	
12	0	0	0	0	501	496	176	514	38	0	
13	0	0	0	0	511	496	177	513	38	0	
14	0	0	0	0	510	498	177	515	38	0	
15	0	0	0	0	506	499	176	515	38	0	
0	0	0	0	0	511	499	176	515	38	0	
1	0	0	0	0	509	499	177	515	38	0	
2	0	0	0	0	509	498	177	514	38	0	
3	0	0	0	0	505	496	176	509	38	0	
4	0	0	0	0	509	496	177	506	38	0	
5	0	0	0	0	504	495	177	503	38	0	
6	0	0	0	0	508	495	176	503	38	0	
7	0	0	0	0	502	496	176	502	38	0	
8	0	0	0	0	507	496	177	502	38	0	
9	0	0	0	0	507	498	177	502	38	0	
10	0	0	0	0	514	498	176	501	38	0	
11	0	0	0	0	512	499	176	503	38	0	
12	0	0	0	0	507	501	177	505	38	0	
13	0	0	0	0	508	502	177	508	38	0	
14	0	0	0	0	511	502	177	513	38	0	
15	0	0	0	0	511	503	176	515	38	0	
0	0	0	0	0	508	504	177	516	38	0	
1	0	0	0	0	514	505	177	516	38	0	
2	0	0	0	0	503	505	177	515	38	0	
3	0	0	0	0	509	504	176	513	38	0	
4	0	0	0	0	508	503	177	510	38	0	
5	0	0	0	0	512	503	177	507	38	0	
6	0	0	0	0	510	503	176	503	38	0	
7	0	0	0	0	504	502	176	501	38	0	
8	0	0	0	0	504	502	177	499	38	0	
9	0	0	0	0	503	502	177	499	38	0	
10	0	0	0	0	508	503	176	502	38	0	
11	0	0	0	0	504	504	177	506	38	0	
12	0	0	0	0	512	507	177	512	38	0	
13	0	0	0	0	509	508	177	515	38	0	
14	0	0	0	0	511	509	176	519	38	0	
15	0	0	0	0	517	510	176	524	38	0	
0	0	0	0	0	515	511	177	522	38	0	
1	0	0	0	0	504	512	177	521	38	0	
2	0	0	0	0	507	513	176	517	38	0	
3	0	0	0	0	508	514	176	515	38	0	
4	0	0	0	0	510	514	177	514	38	0	
5	0	0	0	0	506	513	177	512	38	0	
6	0	0	0	0	509	512	176	510	38	0	
7	0	0	0	0	504	512	177	508	38	0	
8	0	0	0	0	497	513	177	508	38	0	
9	0	0	0	0	503	513	177	507	38	0	
10	0	0	0	0	505	512	176	505	38	0	
11	0	0	0	0	513	511	176	507	38	0	
12	0	0	0	0	505	512	177	510	38	0	
13	0	0	0	0	509	513	177	512	38	0	
14	0	0	0	0	509	513	177	524	38	0	
15	0	0	0	0	510	514	176	532	38	0	
0	0	0	0	0	509	514	177	534	38	0	
1	0	0	0	0	515	513	177	533	38	0	
2	0	0	0	0	516	514	177	531	38	0	
3	0	0	0	0	507	514	176	532	38	0	
4	0	0	0	0	504	514	176	521	38	0	
5	0	0	0	0	500	513	177	516	38	0	
6	0	0	0	0	508	514	177	512	38	0	
7	0	0	0	0	509	514	177	509	38	0	
8	0	0	0	0	512	515	177	508	38	0	
9	0	0	0	0	503	515	176	505	38	0	
10	0	0	0	0	504	515	176	504	38	0	
11	0	0	0	0	498	516	177	503	38	0	
12	0	0	0	0	509	518	177	503	38	0	
13	0	0	0	0	515	520	176	503	38	0	
14	0	0	0	0	506	523	176	507	38	0	
15	0	0	0	0	502	523	177	517	38	0	
0	0	0	0	0	511	524	177	524	38	0	
1	0	0	0	0	516	525	176	527	38	0	
2	0	0	0	0	512	526	176	526	38	0	
3	0	0	0	0	515	526	177	524	38	0	
4	0	0	0	0	510	525	177	523	38	0	
5	0	0	0	0	496	523	176	519	38	0	
6	0	0	0	0	505	519	176	513	38	0	
7	0	0	0	0	514	518	177	511	38	0	
8	0	0	0	0	511	516	177	510	38	0	
9	0	0	0	0	505	515	176	507	38	0	
10	0	0	0	0	507	514	176	504	38	0	
11	0	0	0	0	504	513	177	502	38	0	
12	0	0	0	0	505	515	176	506	38	0	
13	0	0	0	0	502	516	176	505	38	0	
14	0	0	0	0	518	516	177	509	38	0	
15	0	0	0	0	507	518	177	511	38	0	
0	0	0	0	0	503	519	176	513	38	0	
1	0	0	0	0	513	522	176	516	38	0	
2	0	0	0	0	510	524	176	518	38	0	
3	0	0	0	0	510	525	177	517	38	0	
4	0	0	0	0	508	525	177	516	38	0	
5	0	0	0	0	504	524	176	514	38	0	
6	0	0	0	0	505	524	176	510	38	0	
7	0	0	0	0	508	523	177	508	38	0	
8	0	0	0	0	504	521	177	507	38	0	
9	0	0	0	0	505	520	176	505	38	0	
10	0	0	0	0	504	519	176	505	38	0	
11	0	0	0	0	509	518	177	504	38	0	
12	0	0	0	0	510	515	177	506	38	0	
13	0	0	0	0	511	514	176	507	38	0	
14	0	0	0	0	509	515	176	509	38	0	
15	0	0	0	0	506	516	177	510	38	0	
0	0	0	0	0	510	518	177	512	38	0	
1	0	0	0	0	503	518	176	514	38	0	
2	0	0	0	0	512	517	176	516	38	0	
3	0	0	0	0	511	517	177	515	38	0	
4	0	0	0	0	513	517	177	514	38	0	
5	0	0	0	0	508	516	176	513	38	0	
6	0	0	0	0	500	515	176	512	38	0	
7	0	0	0	0	509	514	177	508	38	0	
8	0	0	0	0	516	514	177	505	38	0	
9	0	0	0	0	517	513	177	503	38	0	
10	0	0	0	0	512	514	176	502	38	0	
11	0	0	0	0	500	513	177	502	38	0	
12	0	0	0	0	503	511	177	502	38	0	
13	0	0	0	0	505	511	177	502	38	0	
14	0	0	0	0	508	511	176	503	38	0	
15	0	0	0	0	510	512	176	505	38	0	
0	0	0	0	0	513	511	177	508	38	0	
1	0	0	0	0	503	511	177	512	38	0	
2	0	0	0	0	508	512	177	515	38	0	
3	0	0	0	0	515	513	176	515	38	0	
4	0	0	0	0	512	512	177	514	38	0	
5	0	0	0	0	510	512	177	514	38	0	
6	0	0	0	0	503	512	177	513	38	0	
7	0	0	0	0	503	512	176	511	38	0	
8	0	0	0	0	506	512	176	507	38	0	
9	0	0	0	0	512	512	177	503	38	0	
10	0	0	0	0	506	512	177	500	38	0	
11	0	0	0	0	497	513	177	499	38	0	
12	0	0	0	0	508	513	176	499	38	0	
13	0	0	0	0	503	513	177	498	38	0	
14	0	0	0	0	505	514	177	500	38	0	
15	0	0	0	0	509	515	177	503	38	0	
0	0	0	0	0	507	515	176	506	38	0	
1	0	0	0	0	508	516	176	508	38	0	
2	0	0	0	0	515	517	177	510	38	0	
3	0	0	0	0	516	519	177	513	38	0	
4	0	0	0	0	518	519	176	514	38	0	
5	0	0	0	0	504	519	176	514	38	0	
6	0	0	0	0	502	520	177	514	38	0	
7	0	0	0	0	512	520	177	521	38	0	
8	0	0	0	0	505	521	177	511	38	0	
9	0	0	0	0	513	519	177	508	38	0	
10	0	0	0	0	503	518	176	509	38	0	
11	0	0	0	0	505	518	177	507	38	0	
12	0	0	0	0	508	518	177	506	38	0	
13	0	0	0	0	502	518	177	506	38	0	
14	0	0	0	0	506	518	176	505	38	0	
15	0	0	0	0	500	520	177	506	38	0	
0	0	0	0	0	512	523	177	507	38	0	
1	0	0	0	0	510	525	177	509	38	0	
2	0	0	0	0	505	527	176	512	38	0	
3	0	0	0	0	514	527	176	515	38	0	
4	0	0	0	0	513	527	176	517	38	0	
5	0	0	0	0	514	528	177	519	38	0	
6	0	0	0	0	508	529	177	518	38	0	
7	0	0	0	0	504	529	177	516	38	0	
8	0	0	0	0	512	529	176	512	38	0	
9	0	0	0	0	511	529	177	510	38	0	
10	0	0	0	0	504	529	177	507	38	0	
11	0	0	0	0	507	528	176	503	38	0	
12	0	0	0	0	502	528	176	502	38	0	
13	0	0	0	0	503	527	177	501	38	0	
14	0	0	0	0	514	525	177	511	38	0	
15	0	0	0	0	511	524	177	505	38	0	
0	0	0	0	0	507	525	176	508	38	0	
1	0	0	0	0	512	527	176	519	38	0	
2	0	0	0	0	502	528	177	511	38	0	
3	0	0	0	0	508	530	177	519	38	0	
4	0	0	0	0	510	530	176	523	38	0	
5	0	0	0	0	507	530	176	525	38	0	
6	0	0	0	0	510	531	177	526	38	0	
7	0	0	0	0	507	531	177	525	38	0	
8	0	0	0	0	512	530	176	523	38	0	
9	0	0	0	0	509	529	176	520	38	0	
10	0	0	0	0	506	527	177	516	38	0	
11	0	0	0	0	512	526	177	512	38	0	
12	0	0	0	0	510	525	176	510	38	0	
13	0	0	0	0	496	525	176	506	38	0	
14	0	0	0	0	501	525	177	502	38	0	
15	0	0	0	0	506	524	177	501	38	0	
0	0	0	0	0	509	525	177	500	38	0	
1	0	0	0	0	510	525	176	500	38	0	
2	0	0	0	0	511	527	176	506	38	0	
3	0	0	0	0	508	529	177	512	38	0	
4	0	0	0	0	511	531	176	525	38	0	
5	0	0	0	0	508	532	177	517	38	0	
6	0	0	0	0	507	533	176	519	38	0	
7	0	0	0	0	509	534	176	521	38	0	
8	0	0	0	0	506	534	176	520	38	0	
9	0	0	0	0	509	533	176	521	38	0	
10	0	0	0	0	510	532	177	519	38	0	
11	0	0	0	0	512	531	176	515	38	0	
12	0	0	0	0	503	531	177	512	38	0	
13	0	0	0	0	511	531	177	510	38	0	
14	0	0	0	0	506	532	177	521	38	0	
15	0	0	0	0	504	532	176	509	38	0	
0	0	0	0	0	496	532	176	509	38	0	
1	0	0	0	0	507	533	177	508	38	0	
2	0	0	0	0	516	535	177	507	38	0	
3	0	0	0	0	508	536	176	509	38	0	
4	0	0	0	0	505	536	176	511	38	0	
5	0	0	0	0	515	536	176	521	38	0	
6	0	0	0	0	513	536	177	517	38	0	
7	0	0	0	0	505	535	176	519	38	0	
8	0	0	0	0	512	536	176	519	38	0	
9	0	0	0	0	511	534	176	519	38	0	
10	0	0	0	0	511	533	177	518	38	0	
11	0	0	0	0	507	531	177	516	38	0	
12	0	0	0	0	508	528	176	512	38	0	
13	0	0	0	0	507	528	177	510	38	0	
14	0	0	0	0	500	527	177	509	38	0	
15	0	0	0	0	506	527	176	507	38	0	
0	0	0	0	0	503	527	176	506	38	0	
1	0	0	0	0	500	527	177	505	38	0	
2	0	0	0	0	515	527	177	505	38	0	
3	0	0	0	0	510	528	177	508	38	0	
4	0	0	0	0	507	527	176	523	38	0	
5	0	0	0	0	505	526	177	535	38	0	
6	0	0	0	0	514	526	177	540	38	0	
7	0	0	0	0	511	524	177	540	38	0	
8	0	0	0	0	518	524	176	547	38	0	
9	0	0	0	0	511	522	176	532	38	0	
10	0	0	0	0	508	521	177	528	38	0	
11	0	0	0	0	508	520	177	523	38	0	
12	0	0	0	0	506	518	176	518	38	0	
13	0	0	0	0	512	517	177	513	38	0	
14	0	0	0	0	503	515	177	508	38	0	
15	0	0	0	0	510	514	177	504	38	0	
0	0	0	0	0	501	513	177	501	38	0	
1	0	0	0	0	500	512	176	500	38	0	
2	0	0	0	0	501	513	177	503	38	0	
3	0	0	0	0	507	514	177	502	38	0	
4	0	0	0	0	508	515	177	507	38	0	
5	0	0	0	0	510	516	176	511	38	0	
6	0	0	0	0	512	517	177	513	38	0	
7	0	0	0	0	514	517	177	516	38	0	
8	0	0	0	0	510	517	176	519	38	0	
9	0	0	0	0	507	517	176	519	38	0	
10	0	0	0	0	511	516	177	518	38	0	
11	0	0	0	0	504	515	177	517	38	0	
12	0	0	0	0	504	513	177	512	38	0	
13	0	0	0	0	508	511	176	510	38	0	
14	0	0	0	0	508	510	176	508	38	0	
15	0	0	0	0	504	509	177	499	38	0	
0	0	0	0	0	506	509	177	499	38	0	
1	0	0	0	0	504	509	176	499	38	0	
2	0	0	0	0	504	509	177	499	38	0	
3	0	0	0	0	514	509	177	503	38	0	
4	0	0	0	0	513	509	177	506	38	0	
5	0	0	0	0	511	510	176	509	38	0	
6	0	0	0	0	507	511	176	513	38	0	
7	0	0	0	0	515	511	177	517	38	0	
8	0	0	0	0	512	511	177	522	38	0	
9	0	0	0	0	511	511	177	524	38	0	
10	0	0	0	0	506	511	177	524	38	0	
11	0	0	0	0	506	510	176	525	38	0	
12	0	0	0	0	508	509	176	522	38	0	
13	0	0	0	0	509	508	177	517	38	0	
14	0	0	0	0	504	508	177	512	38	0	
15	0	0	0	0	516	507	177	509	38	0	
0	0	0	0	0	506	505	176	505	38	0	
1	0	0	0	0	499	504	177	504	38	0	
2	0	0	0	0	498	504	177	503	38	0	
3	0	0	0	0	500	504	176	503	38	0	
4	0	0	0	0	510	504	176	504	38	0	
5	0	0	0	0	512	506	177	507	38	0	
6	0	0	0	0	508	507	177	512	38	0	
7	0	0	0	0	509	507	176	514	38	0	
8	0	0	0	0	513	508	177	518	38	0	
9	0	0	0	0	510	508	177	519	38	0	
10	0	0	0	0	510	508	176	519	38	0	
11	0	0	0	0	511	509	176	517	38	0	
12	0	0	0	0	506	510	177	516	38	0	
13	0	0	0	0	506	510	177	512	38	0	
14	0	0	0	0	514	508	176	511	38	0	
15	0	0	0	0	511	508	176	508	38	0	
0	0	0	0	0	511	507	177	504	38	0	
1	0	0	0	0	500	508	177	502	38	0	
2	0	0	0	0	505	507	177	500	38	0	
3	0	0	0	0	506	506	176	498	38	0	
4	0	0	0	0	514	507	177	500	38	0	
5	0	0	0	0	508	508	177	502	38	0	
6	0	0	0	0	502	510	176	505	38	0	
7	0	0	0	0	509	512	176	510	38	0	
8	0	0	0	0	510	514	177	515	38	0	
9	0	0	0	0	510	515	177	525	38	0	
10	0	0	0	0	507	516	176	518	38	0	
11	0	0	0	0	509	518	176	518	38	0	
12	0	0	0	0	519	518	177	518	38	0	
13	0	0	0	0	505	518	177	514	38	0	
14	0	0	0	0	504	515	176	510	38	0	
15	0	0	0	0	510	513	176	508	38	0	
0	0	0	0	0	510	512	177	505	38	0	
1	0	0	0	0	508	512	177	505	38	0	
2	0	0	0	0	504	512	177	504	38	0	
3	0	0	0	0	503	513	176	504	38	0	
4	0	0	0	0	500	515	177	504	38	0	
5	0	0	0	0	507	515	177	507	38	0	
6	0	0	0	0	509	515	177	510	38	0	
7	0	0	0	0	511	517	176	514	38	0	
8	0	0	0	0	502	518	176	515	38	0	
9	0	0	0	0	512	519	177	518	38	0	
10	0	0	0	0	511	521	177	531	38	0	
11	0	0	0	0	517	523	177	519	38	0	
12	0	0	0	0	515	523	176	519	38	0	
13	0	0	0	0	507	524	176	522	38	0	
14	0	0	0	0	510	522	177	518	38	0	
15	0	0	0	0	501	521	177	515	38	0	
0	0	0	0	0	511	519	177	523	38	0	
1	0	0	0	0	510	518	176	509	38	0	
2	0	0	0	0	502	518	176	507	38	0	
3	0	0	0	0	505	517	177	507	38	0	
4	0	0	0	0	499	516	177	505	38	0	
5	0	0	0	0	502	516	176	506	38	0	
6	0	0	0	0	507	516	176	507	38	0	
7	0	0	0	0	509	518	177	508	38	0	
8	0	0	0	0	506	518	177	511	38	0	
9	0	0	0	0	508	518	176	512	38	0	
10	0	0	0	0	516	518	177	514	38	0	
11	0	0	0	0	513	519	177	515	38	0	
12	0	0	0	0	512	520	176	515	38	0	
13	0	0	0	0	509	520	176	514	38	0	
14	0	0	0	0	509	520	177	513	38	0	
15	0	0	0	0	510	519	177	510	38	0	
0	0	0	0	0	512	519	176	507	38	0	
1	0	0	0	0	509	518	177	505	38	0	
2	0	0	0	0	504	518	177	501	38	0	
3	0	0	0	0	505	519	176	500	38	0	
4	0	0	0	0	501	519	176	501	38	0	
5	0	0	0	0	503	518	177	500	38	0	
6	0	0	0	0	508	518	177	502	38	0	
7	0	0	0	0	505	517	176	505	38	0	
8	0	0	0	0	505	519	177	506	38	0	
9	0	0	0	0	501	520	177	510	38	0	
10	0	0	0	0	512	521	177	513	38	0	
11	0	0	0	0	506	521	176	517	38	0	
12	0	0	0	0	516	521	177	518	38	0	
13	0	0	0	0	513	521	177	518	38	0	
14	0	0	0	0	511	520	177	516	38	0	
15	0	0	0	0	510	520	176	514	38	0	
0	0	0	0	0	510	520	177	514	38	0	
1	0	0	0	0	512	518	177	513	38	0	
2	0	0	0	0	507	518	177	509	38	0	
3	0	0	0	0	504	516	177	508	38	0	
4	0	0	0	0	506	515	176	504	38	0	
5	0	0	0	0	503	514	177	504	38	0	
6	0	0	0	0	499	513	177	501	38	0	
7	0	0	0	0	509	513	176	503	38	0	
8	0	0	0	0	511	513	176	506	38	0	
9	0	0	0	0	508	513	177	509	38	0	
10	0	0	0	0	498	513	177	512	38	0	
11	0	0	0	0	510	512	176	516	38	0	
12	0	0	0	0	510	511	176	519	38	0	
13	0	0	0	0	513	512	177	519	38	0	
14	0	0	0	0	511	512	177	519	38	0	
15	0	0	0	0	515	512	176	519	38	0	
0	0	0	0	0	508	510	176	516	38	0	
1	0	0	0	0	509	508	177	514	38	0	
2	0	0	0	0	515	508	177	512	38	0	
3	0	0	0	0	510	507	177	507	38	0	
4	0	0	0	0	501	508	177	504	38	0	
5	0	0	0	0	505	507	176	502	38	0	
6	0	0	0	0	511	507	177	504	38	0	
7	0	0	0	0	500	506	177	504	38	0	
8	0	0	0	0	506	505	177	506	38	0	
9	0	0	0	0	506	506	176	509	38	0	
10	0	0	0	0	507	506	176	513	38	0	
11	0	0	0	0	503	505	177	516	38	0	
12	0	0	0	0	512	505	177	519	38	0	
13	0	0	0	0	505	505	177	519	38	0	
14	0	0	0	0	508	505	176	519	38	0	
15	0	0	0	0	513	504	176	518	38	0	
0	0	0	0	0	516	503	177	515	38	0	
1	0	0	0	0	512	502	177	515	38	0	
2	0	0	0	0	505	499	176	513	38	0	
3	0	0	0	0	509	497	176	511	38	0	
4	0	0	0	0	503	496	177	511	38	0	
5	0	0	0	0	500	495	177	509	38	0	
6	0	0	0	0	504	495	176	507	38	0	
7	0	0	0	0	504	493	176	505	38	0	
8	0	0	0	0	500	493	177	504	38	0	
9	0	0	0	0	511	493	177	506	38	0	
10	0	0	0	0	515	494	177	512	38	0	
11	0	0	0	0	504	494	177	515	38	0	
12	0	0	0	0	513	494	176	518	38	0	
13	0	0	0	0	511	493	176	518	38	0	
14	0	0	0	0	513	492	177	520	38	0	
15	0	0	0	0	511	492	177	530	38	0	
0	0	0	0	0	514	491	176	520	38	0	
1	0	0	0	0	507	489	176	518	38	0	
2	0	0	0	0	512	488	177	517	38	0	
3	0	0	0	0	507	487	177	513	38	0	
4	0	0	0	0	513	486	176	512	38	0	
5	0	0	0	0	504	485	177	510	38	0	
6	0	0	0	0	498	485	177	507	38	0	
7	0	0	0	0	504	484	177	505	38	0	
8	0	0	0	0	504	483	177	504	38	0	
9	0	0	0	0	504	483	176	504	38	0	
10	0	0	0	0	516	484	177	506	38	0	
11	0	0	0	0	512	485	177	509	38	0	
12	0	0	0	0	506	486	177	512	38	0	
13	0	0	0	0	509	486	176	515	38	0	
14	0	0	0	0	509	486	176	523	38	0	
15	0	0	0	0	514	486	176	527	38	0	
0	0	0	0	0	515	486	177	531	38	0	
1	0	0	0	0	509	486	177	532	38	0	
2	0	0	0	0	504	486	177	527	38	0	
3	0	0	0	0	510	484	177	523	38	0	
4	0	0	0	0	508	484	176	517	38	0	
5	0	0	0	0	507	483	177	512	38	0	
6	0	0	0	0	503	483	177	510	38	0	
7	0	0	0	0	503	482	176	509	38	0	
8	0	0	0	0	500	482	176	507	38	0	
9	0	0	0	0	502	482	177	508	38	0	
10	0	0	0	0	511	482	177	510	38	0	
11	0	0	0	0	511	485	176	511	38	0	
12	0	0	0	0	516	487	177	515	38	0	
13	0	0	0	0	505	488	177	521	38	0	
14	0	0	0	0	512	488	176	527	38	0	
15	0	0	0	0	506	489	176	528	38	0	
0	0	0	0	0	514	489	177	528	38	0	
1	0	0	0	0	512	491	177	526	38	0	
2	0	0	0	0	505	492	177	524	38	0	
3	0	0	0	0	509	491	176	521	38	0	
4	0	0	0	0	506	491	177	515	38	0	
5	0	0	0	0	507	492	177	510	38	0	
6	0	0	0	0	499	491	176	506	38	0	
7	0	0	0	0	499	491	177	502	38	0	
8	0	0	0	0	506	491	177	502	38	0	
9	0	0	0	0	506	491	177	500	38	0	
10	0	0	0	0	515	492	176	502	38	0	
11	0	0	0	0	511	492	177	504	38	0	
12	0	0	0	0	507	494	177	508	38	0	
13	0	0	0	0	512	496	177	512	38	0	
14	0	0	0	0	516	497	176	515	38	0	
15	0	0	0	0	517	500	177	519	38	0	
0	0	0	0	0	509	503	177	525	38	0	
1	0	0	0	0	509	504	177	519	38	0	
2	0	0	0	0	508	506	176	519	38	0	
3	0	0	0	0	507	507	176	529	38	0	
4	0	0	0	0	506	507	177	517	38	0	
5	0	0	0	0	505	508	177	513	38	0	
6	0	0	0	0	507	508	177	511	38	0	
7	0	0	0	0	506	509	176	509	38	0	
8	0	0	0	0	510	510	177	507	38	0	
9	0	0	0	0	503	511	177	509	38	0	
10	0	0	0	0	507	512	177	505	38	0	
11	0	0	0	0	504	512	176	508	38	0	
12	0	0	0	0	508	514	177	511	38	0	
13	0	0	0	0	512	515	177	511	38	0	
14	0	0	0	0	504	516	177	515	38	0	
15	0	0	0	0	511	516	176	518	38	0	
0	0	0	0	0	500	515	176	516	38	0	
1	0	0	0	0	512	516	177	517	38	0	
2	0	0	0	0	511	517	177	518	38	0	
3	0	0	0	0	518	518	177	515	38	0	
4	0	0	0	0	506	517	177	515	38	0	
5	0	0	0	0	505	515	176	511	38	0	
6	0	0	0	0	509	513	177	507	38	0	
7	0	0	0	0	511	512	177	504	38	0	
8	0	0	0	0	505	512	177	504	38	0	
9	0	0	0	0	504	511	176	502	38	0	
10	0	0	0	0	499	510	176	502	38	0	
11	0	0	0	0	505	511	177	501	38	0	
12	0	0	0	0	512	511	177	502	38	0	
13	0	0	0	0	511	513	176	505	38	0	
14	0	0	0	0	510	513	176	507	38	0	
15	0	0	0	0	506	514	177	516	38	0	
0	0	0	0	0	511	514	177	518	38	0	
1	0	0	0	0	510	515	176	521	38	0	
2	0	0	0	0	515	518	176	522	38	0	
3	0	0	0	0	513	520	176	519	38	0	
4	0	0	0	0	514	521	177	518	38	0	
5	0	0	0	0	511	521	177	513	38	0	
6	0	0	0	0	514	521	176	511	38	0	
7	0	0	0	0	514	519	176	510	38	0	
8	0	0	0	0	501	518	177	508	38	0	
9	0	0	0	0	497	518	177	505	38	0	
10	0	0	0	0	502	518	177	503	38	0	
11	0	0	0	0	508	516	176	501	38	0	
12	0	0	0	0	511	517	176	502	38	0	
13	0	0	0	0	511	518	177	506	38	0	
14	0	0	0	0	505	519	177	511	38	0	
15	0	0	0	0	502	521	177	516	38	0	
0	0	0	0	0	508	521	176	521	38	0	
1	0	0	0	0	507	521	176	523	38	0	
2	0	0	0	0	518	522	177	524	38	0	
3	0	0	0	0	516	524	177	522	38	0	
4	0	0	0	0	510	525	177	519	38	0	
5	0	0	0	0	508	525	176	523	38	0	
6	0	0	0	0	503	524	177	512	38	0	
7	0	0	0	0	508	523	177	509	38	0	
8	0	0	0	0	513	523	177	507	38	0	
9	0	0	0	0	514	522	176	503	38	0	
10	0	0	0	0	511	523	176	502	38	0	
11	0	0	0	0	501	523	177	500	38	0	
12	0	0	0	0	502	523	177	499	38	0	
13	0	0	0	0	504	523	176	502	38	0	
14	0	0	0	0	510	522	176	504	38	0	
15	0	0	0	0	510	522	177	506	38	0	
0	0	0	0	0	503	523	177	510	38	0	
1	0	0	0	0	503	523	177	512	38	0	
2	0	0	0	0	513	524	176	512	38	0	
3	0	0	0	0	522	524	177	515	38	0	
4	0	0	0	0	507	524	177	516	38	0	
5	0	0	0	0	508	524	177	515	38	0	
6	0	0	0	0	508	522	176	514	38	0	
7	0	0	0	0	510	521	176	519	38	0	
8	0	0	0	0	505	520	176	512	38	0	
9	0	0	0	0	513	520	176	510	38	0	
10	0	0	0	0	498	520	176	516	38	0	
11	0	0	0	0	508	519	177	508	38	0	
12	0	0	0	0	510	518	177	506	38	0	
13	0	0	0	0	506	517	177	518	38	0	
14	0	0	0	0	512	517	177	506	38	0	
15	0	0	0	0	512	516	177	508	38	0	
0	0	0	0	0	509	516	177	513	38	0	
1	0	0	0	0	500	515	177	518	38	0	
2	0	0	0	0	505	513	177	523	38	0	
3	0	0	0	0	511	511	176	525	38	0	
4	0	0	0	0	515	510	176	525	38	0	
5	0	0	0	0	514	509	177	524	38	0	
6	0	0	0	0	507	508	177	520	38	0	
7	0	0	0	0	510	507	177	516	38	0	
8	0	0	0	0	508	504	177	512	38	0	
9	0	0	0	0	511	504	177	521	38	0	
10	0	0	0	0	506	503	177	507	38	0	
11	0	0	0	0	504	503	176	503	38	0	
12	0	0	0	0	508	502	177	502	38	0	
13	0	0	0	0	508	501	177	499	38	0	
14	0	0	0	0	510	501	176	502	38	0	
15	0	0	0	0	507	501	177	504	38	0	
0	0	0	0	0	510	503	177	508	38	0	
1	0	0	0	0	504	503	177	512	38	0	
2	0	0	0	0	506	505	176	514	38	0	
3	0	0	0	0	512	508	177	516	38	0	
4	0	0	0	0	508	508	177	516	38	0	
5	0	0	0	0	513	509	177	517	38	0	
6	0	0	0	0	503	510	176	516	38	0	
7	0	0	0	0	507	510	176	514	38	0	
8	0	0	0	0	513	508	176	512	38	0	
9	0	0	0	0	508	505	177	507	38	0	
10	0	0	0	0	513	504	177	505	38	0	
11	0	0	0	0	512	504	177	505	38	0	
12	0	0	0	0	505	504	176	503	38	0	
13	0	0	0	0	504	506	177	504	38	0	
14	0	0	0	0	498	505	177	504	38	0	
15	0	0	0	0	504	505	177	504	38	0	
0	0	0	0	0	506	505	177	507	38	0	
1	0	0	0	0	512	505	176	511	38	0	
2	0	0	0	0	501	505	177	515	38	0	
3	0	0	0	0	505	504	177	517	38	0	
4	0	0	0	0	511	504	177	519	38	0	
5	0	0	0	0	513	505	177	519	38	0	
6	0	0	0	0	512	505	176	519	38	0	
7	0	0	0	0	510	505	177	524	38	0	
8	0	0	0	0	504	504	177	514	38	0	
9	0	0	0	0	513	504	176	512	38	0	
10	0	0	0	0	515	503	176	511	38	0	
11	0	0	0	0	507	502	177	508	38	0	
12	0	0	0	0	502	502	177	506	38	0	
13	0	0	0	0	507	502	177	505	38	0	
14	0	0	0	0	496	503	177	504	38	0	
15	0	0	0	0	500	504	176	505	38	0	
0	0	0	0	0	513	504	177	506	38	0	
1	0	0	0	0	513	505	177	508	38	0	
2	0	0	0	0	507	507	176	512	38	0	
3	0	0	0	0	509	508	176	515	38	0	
4	0	0	0	0	510	508	177	520	38	0	
5	0	0	0	0	508	508	177	519	38	0	
6	0	0	0	0	507	509	176	519	38	0	
7	0	0	0	0	512	509	177	527	38	0	
8	0	0	0	0	516	508	177	517	38	0	
9	0	0	0	0	504	508	176	515	38	0	
10	0	0	0	0	513	507	176	515	38	0	
11	0	0	0	0	508	507	177	511	38	0	
12	0	0	0	0	514	507	177	510	38	0	
13	0	0	0	0	504	506	176	508	38	0	
14	0	0	0	0	498	506	176	508	38	0	
15	0	0	0	0	503	505	177	505	38	0	
0	0	0	0	0	500	505	177	506	38	0	
1	0	0	0	0	514	504	177	510	38	0	
2	0	0	0	0	510	506	176	512	38	0	
3	0	0	0	0	500	507	176	516	38	0	
4	0	0	0	0	510	508	177	521	38	0	
5	0	0	0	0	516	508	177	522	38	0	
6	0	0	0	0	514	508	177	521	38	0	
7	0	0	0	0	511	509	176	520	38	0	
8	0	0	0	0	509	510	176	519	38	0	
9	0	0	0	0	505	509	177	517	38	0	
10	0	0	0	0	510	507	177	513	38	0	
11	0	0	0	0	508	505	176	511	38	0	
12	0	0	0	0	510	505	176	507	38	0	
13	0	0	0	0	499	505	177	504	38	0	
14	0	0	0	0	505	506	177	502	38	0	
15	0	0	0	0	507	507	177	502	38	0	
0	0	0	0	0	508	507	176	500	38	0	
1	0	0	0	0	512	508	177	500	38	0	
2	0	0	0	0	510	508	177	504	38	0	
3	0	0	0	0	509	510	176	505	38	0	
4	0	0	0	0	502	511	176	508	38	0	
5	0	0	0	0	510	511	177	508	38	0	
6	0	0	0	0	506	512	177	510	38	0	
7	0	0	0	0	515	512	176	512	38	0	
8	0	0	0	0	517	512	177	512	38	0	
9	0	0	0	0	510	513	177	512	38	0	
10	0	0	0	0	511	512	177	512	38	0	
11	0	0	0	0	507	512	176	509	38	0	
12	0	0	0	0	512	511	177	508	38	0	
13	0	0	0	0	508	510	177	507	38	0	
14	0	0	0	0	499	511	177	509	38	0	
15	0	0	0	0	504	511	176	504	38	0	
0	0	0	0	0	496	511	177	503	38	0	
1	0	0	0	0	496	512	177	504	38	0	
2	0	0	0	0	508	511	176	504	38	0	
3	0	0	0	0	515	513	177	509	38	0	
4	0	0	0	0	507	515	177	512	38	0	
5	0	0	0	0	501	516	177	516	38	0	
6	0	0	0	0	515	517	176	521	38	0	
7	0	0	0	0	517	518	177	524	38	0	
8	0	0	0	0	512	519	177	523	38	0	
9	0	0	0	0	514	519	177	522	38	0	
10	0	0	0	0	513	519	176	518	38	0	
11	0	0	0	0	506	517	177	514	38	0	
12	0	0	0	0	509	515	177	511	38	0	
13	0	0	0	0	510	515	177	508	38	0	
14	0	0	0	0	505	513	177	506	38	0	
15	0	0	0	0	499	513	177	504	38	0	
0	0	0	0	0	504	513	176	502	38	0	
1	0	0	0	0	505	512	176	503	38	0	
2	0	0	0	0	501	511	177	504	38	0	
3	0	0	0	0	504	511	177	506	38	0	
4	0	0	0	0	508	512	177	508	38	0	
5	0	0	0	0	504	513	176	512	38	0	
6	0	0	0	0	510	514	176	516	38	0	
7	0	0	0	0	522	515	177	520	38	0	
8	0	0	0	0	512	515	177	522	38	0	
9	0	0	0	0	504	516	177	522	38	0	
10	0	0	0	0	512	516	177	521	38	0	
11	0	0	0	0	509	515	176	518	38	0	
12	0	0	0	0	504	515	177	515	38	0	
13	0	0	0	0	509	513	177	512	38	0	
14	0	0	0	0	508	512	177	508	38	0	
15	0	0	0	0	511	512	176	505	38	0	
0	0	0	0	0	503	511	177	504	38	0	
1	0	0	0	0	507	510	177	503	38	0	
2	0	0	0	0	500	509	177	503	38	0	
3	0	0	0	0	505	510	176	507	38	0	
4	0	0	0	0	513	510	177	507	38	0	
5	0	0	0	0	510	511	177	510	38	0	
6	0	0	0	0	504	512	176	512	38	0	
7	0	0	0	0	513	513	176	515	38	0	
8	0	0	0	0	508	513	177	515	38	0	
9	0	0	0	0	503	513	177	516	38	0	
10	0	0	0	0	511	515	177	516	38	0	
11	0	0	0	0	508	519	177	517	38	0	
12	0	0	0	0	507	519	176	515	38	0	
13	0	0	0	0	505	519	177	513	38	0	
14	0	0	0	0	509	519	177	510	38	0	
15	0	0	0	0	515	517	176	509	38	0	
0	0	0	0	0	514	516	177	508	38	0	
1	0	0	0	0	502	515	177	507	38	0	
2	0	0	0	0	513	517	177	506	38	0	
3	0	0	0	0	502	518	176	506	38	0	
4	0	0	0	0	508	518	177	508	38	0	
5	0	0	0	0	504	519	177	508	38	0	
6	0	0	0	0	507	521	177	512	38	0	
7	0	0	0	0	510	522	176	515	38	0	
8	0	0	0	0	510	524	177	516	38	0	
9	0	0	0	0	511	524	177	516	38	0	
10	0	0	0	0	515	526	177	516	38	0	
11	0	0	0	0	512	529	176	516	38	0	
12	0	0	0	0	505	529	177	518	38	0	
13	0	0	0	0	508	531	177	516	38	0	
14	0	0	0	0	509	531	177	515	38	0	
15	0	0	0	0	506	533	176	512	38	0	
0	0	0	0	0	509	535	177	507	38	0	
1	0	0	0	0	500	536	177	504	38	0	
2	0	0	0	0	501	538	176	502	38	0	
3	0	0	0	0	511	539	176	500	38	0	
4	0	0	0	0	509	539	177	503	38	0	
5	0	0	0	0	513	539	177	505	38	0	
6	0	0	0	0	506	540	176	508	38	0	
7	0	0	0	0	507	539	177	511	38	0	
8	0	0	0	0	515	536	177	514	38	0	
9	0	0	0	0	511	535	176	518	38	0	
10	0	0	0	0	515	532	176	519	38	0	
11	0	0	0	0	511	530	177	521	38	0	
12	0	0	0	0	506	525	177	521	38	0	
13	0	0	0	0	507	520	176	518	38	0	
14	0	0	0	0	508	515	177	514	38	0	
15	0	0	0	0	508	508	177	515	38	0	
0	0	0	0	0	503	501	177	506	38	0	
1	0	0	0	0	508	495	176	504	38	0	
2	0	0	0	0	504	491	177	506	38	0	
3	0	0	0	0	504	488	177	503	38	0	
4	0	0	0	0	502	485	177	503	38	0	
5	0	0	0	0	513	481	177	504	38	0	
6	0	0	0	0	504	477	177	505	38	0	
7	0	0	0	0	511	473	177	508	38	0	
8	0	0	0	0	516	469	177	511	38	0	
9	0	0	0	0	510	465	177	514	38	0	
10	0	0	0	0	515	463	177	516	38	0	
11	0	0	0	0	515	462	177	518	38	0	
12	0	0	0	0	505	460	177	518	38	0	
13	0	0	0	0	507	457	177	519	38	0	
14	0	0	0	0	509	455	177	516	38	0	
15	0	0	0	0	507	452	177	513	38	0	
0	0	0	0	0	509	451	177	512	38	0	
1	0	0	0	0	508	450	177	509	38	0	
2	0	0	0	0	504	449	177	507	38	0	
3	0	0	0	0	504	447	177	507	38	0	
4	0	0	0	0	509	444	177	505	38	0	
5	0	0	0	0	509	442	177	505	38	0	
6	0	0	0	0	506	443	177	506	38	0	
7	0	0	0	0	506	444	177	506	38	0	
8	0	0	0	0	507	448	177	508	38	0	
9	0	0	0	0	508	451	177	512	38	0	
10	0	0	0	0	511	457	177	515	38	0	
11	0	0	0	0	505	462	177	518	38	0	
12	0	0	0	0	514	467	177	519	38	0	
13	0	0	0	0	516	473	177	519	38	0	
14	0	0	0	0	500	476	177	519	38	0	
15	0	0	0	0	508	479	177	521	38	0	
0	0	0	0	0	505	481	177	517	38	0	
1	0	0	0	0	509	484	177	516	38	0	
2	0	0	0	0	511	487	177	513	38	0	
3	0	0	0	0	509	491	177	508	38	0	
4	0	0	0	0	511	494	177	504	38	0	
5	0	0	0	0	508	497	177	502	38	0	
6	0	0	0	0	502	500	177	503	38	0	
7	0	0	0	0	506	503	177	505	38	0	
8	0	0	0	0	509	506	177	508	38	0	
9	0	0	0	0	504	508	177	511	38	0	
10	0	0	0	0	504	510	176	514	38	0	
11	0	0	0	0	512	512	177	517	38	0	
12	0	0	0	0	514	515	177	518	38	0	
13	0	0	0	0	512	518	177	520	38	0	
14	0	0	0	0	509	521	177	521	38	0	
15	0	0	0	0	511	523	176	520	38	0	
0	0	0	0	0	509	524	177	518	38	0	
1	0	0	0	0	507	524	177	514	38	0	
2	0	0	0	0	510	525	177	512	38	0	
3	0	0	0	0	507	525	176	507	38	0	
4	0	0	0	0	502	526	177	506	38	0	
5	0	0	0	0	504	527	177	506	38	0	
6	0	0	0	0	510	527	176	505	38	0	
7	0	0	0	0	503	528	177	508	38	0	
8	0	0	0	0	511	529	177	513	38	0	
9	0	0	0	0	510	531	177	518	38	0	
10	0	0	0	0	505	534	176	523	38	0	
11	0	0	0	0	504	535	177	525	38	0	
12	0	0	0	0	515	536	177	526	38	0	
13	0	0	0	0	511	536	176	525	38	0	
14	0	0	0	0	514	538	177	525	38	0	
15	0	0	0	0	518	539	177	523	38	0	
0	0	0	0	0	508	537	177	520	38	0	
1	0	0	0	0	516	537	176	516	38	0	
2	0	0	0	0	505	535	177	511	38	0	
3	0	0	0	0	500	535	177	508	38	0	
4	0	0	0	0	498	536	176	506	38	0	
5	0	0	0	0	507	536	177	505	38	0	
6	0	0	0	0	506	537	177	504	38	0	
7	0	0	0	0	503	537	176	507	38	0	
8	0	0	0	0	505	537	177	506	38	0	
9	0	0	0	0	506	538	177	509	38	0	
10	0	0	0	0	506	539	177	511	38	0	
11	0	0	0	0	512	537	176	517	38	0	
12	0	0	0	0	514	536	176	523	38	0	
13	0	0	0	0	513	536	177	524	38	0	
14	0	0	0	0	511	536	177	525	38	0	
15	0	0	0	0	511	536	176	524	38	0	
0	0	0	0	0	512	536	177	522	38	0	
1	0	0	0	0	507	535	177	520	38	0	
2	0	0	0	0	505	532	176	514	38	0	
3	0	0	0	0	508	531	177	512	38	0	
4	0	0	0	0	509	531	177	508	38	0	
5	0	0	0	0	500	532	177	506	38	0	
6	0	0	0	0	499	534	176	504	38	0	
7	0	0	0	0	510	532	177	504	38	0	
8	0	0	0	0	506	532	177	502	38	0	
9	0	0	0	0	500	532	177	503	38	0	
10	0	0	0	0	513	532	176	507	38	0	
11	0	0	0	0	506	534	177	510	38	0	
12	0	0	0	0	511	535	177	513	38	0	
13	0	0	0	0	515	536	177	513	38	0	
14	0	0	0	0	510	537	177	515	38	0	
15	0	0	0	0	513	537	176	518	38	0	
0	0	0	0	0	518	537	177	516	38	0	
1	0	0	0	0	506	535	177	514	38	0	
2	0	0	0	0	510	532	177	512	38	0	
3	0	0	0	0	501	530	177	508	38	0	
4	0	0	0	0	509	527	177	505	38	0	
5	0	0	0	0	506	526	177	503	38	0	
6	0	0	0	0	502	525	176	500	38	0	
7	0	0	0	0	504	527	177	501	38	0	
8	0	0	0	0	500	527	177	502	38	0	
9	0	0	0	0	505	528	177	504	38	0	
10	0	0	0	0	511	530	177	506	38	0	
11	0	0	0	0	516	531	177	508	38	0	
12	0	0	0	0	504	530	177	512	38	0	
13	0	0	0	0	506	531	176	516	38	0	
14	0	0	0	0	511	530	177	521	38	0	
15	0	0	0	0	512	530	177	522	38	0	
0	0	0	0	0	514	528	177	520	38	0	
1	0	0	0	0	507	527	177	518	38	0	
2	0	0	0	0	500	525	176	515	38	0	
3	0	0	0	0	510	524	177	512	38	0	
4	0	0	0	0	509	523	177	507	38	0	
5	0	0	0	0	516	523	177	504	38	0	
6	0	0	0	0	505	521	177	502	38	0	
7	0	0	0	0	509	519	176	501	38	0	
8	0	0	0	0	507	519	177	501	38	0	
9	0	0	0	0	502	519	177	502	38	0	
10	0	0	0	0	513	519	177	504	38	0	
11	0	0	0	0	511	519	176	509	38	0	
12	0	0	0	0	507	520	177	511	38	0	
13	0	0	0	0	494	520	177	517	38	0	
14	0	0	0	0	513	519	177	522	38	0	
15	0	0	0	0	517	519	176	526	38	0	
0	0	0	0	0	507	518	177	526	38	0	
1	0	0	0	0	518	518	177	525	38	0	
2	0	0	0	0	509	515	177	523	38	0	
3	0	0	0	0	509	513	176	520	38	0	
4	0	0	0	0	510	512	177	515	38	0	
5	0	0	0	0	510	512	177	512	38	0	
6	0	0	0	0	505	512	177	510	38	0	
7	0	0	0	0	503	511	176	507	38	0	
8	0	0	0	0	501	511	177	505	38	0	
9	0	0	0	0	507	510	177	504	38	0	
10	0	0	0	0	508	509	177	504	38	0	
11	0	0	0	0	510	510	176	507	38	0	
12	0	0	0	0	511	511	177	507	38	0	
13	0	0	0	0	515	513	177	508	38	0	
14	0	0	0	0	508	513	177	510	38	0	
15	0	0	0	0	506	514	177	512	38	0	
0	0	0	0	0	507	514	176	513	38	0	
1	0	0	0	0	508	514	176	514	38	0	
2	0	0	0	0	511	513	177	513	38	0	
3	0	0	0	0	508	513	177	512	38	0	
4	0	0	0	0	508	513	177	510	38	0	
5	0	0	0	0	510	511	177	512	38	0	
6	0	0	0	0	513	511	176	506	38	0	
7	0	0	0	0	503	509	177	504	38	0	
8	0	0	0	0	502	507	177	503	38	0	
9	0	0	0	0	510	508	177	503	38	0	
10	0	0	0	0	500	508	177	503	38	0	
11	0	0	0	0	508	508	177	502	38	0	
12	0	0	0	0	511	509	177	504	38	0	
13	0	0	0	0	513	510	177	508	38	0	
14	0	0	0	0	508	512	177	514	38	0	
15	0	0	0	0	511	513	176	520	38	0	
0	0	0	0	0	509	514	177	524	38	0	
1	0	0	0	0	511	514	177	524	38	0	
2	0	0	0	0	513	514	177	524	38	0	
3	0	0	0	0	511	514	177	522	38	0	
4	0	0	0	0	514	513	177	519	38	0	
5	0	0	0	0	506	513	177	515	38	0	
6	0	0	0	0	510	513	177	512	38	0	
7	0	0	0	0	507	512	177	509	38	0	
8	0	0	0	0	502	512	177	507	38	0	
9	0	0	0	0	502	512	177	505	38	0	
10	0	0	0	0	509	512	177	504	38	0	
11	0	0	0	0	505	513	177	505	38	0	
12	0	0	0	0	509	514	176	507	38	0	
13	0	0	0	0	502	515	177	507	38	0	
14	0	0	0	0	503	518	177	509	38	0	
15	0	0	0	0	506	520	177	513	38	0	
0	0	0	0	0	509	520	177	518	38	0	
1	0	0	0	0	513	521	176	520	38	0	
2	0	0	0	0	520	521	177	527	38	0	
3	0	0	0	0	519	522	177	521	38	0	
4	0	0	0	0	510	520	177	521	38	0	
5	0	0	0	0	512	520	177	519	38	0	
6	0	0	0	0	515	519	177	515	38	0	
7	0	0	0	0	504	520	177	512	38	0	
8	0	0	0	0	501	520	177	508	38	0	
9	0	0	0	0	501	520	177	507	38	0	
10	0	0	0	0	499	521	177	506	38	0	
11	0	0	0	0	506	521	177	504	38	0	
12	0	0	0	0	506	521	177	504	38	0	
13	0	0	0	0	502	523	177	504	38	0	
14	0	0	0	0	511	525	177	509	38	0	
15	0	0	0	0	510	527	177	519	38	0	
0	0	0	0	0	507	527	177	524	38	0	
1	0	0	0	0	517	527	176	525	38	0	
2	0	0	0	0	515	529	177	527	38	0	
3	0	0	0	0	514	531	177	525	38	0	
4	0	0	0	0	505	532	177	520	38	0	
5	0	0	0	0	509	532	176	518	38	0	
6	0	0	0	0	505	533	177	514	38	0	
7	0	0	0	0	504	532	177	509	38	0	
8	0	0	0	0	511	531	177	508	38	0	
9	0	0	0	0	505	532	176	507	38	0	
10	0	0	0	0	504	532	177	504	38	0	
11	0	0	0	0	509	532	177	504	38	0	
12	0	0	0	0	502	531	177	503	38	0	
13	0	0	0	0	508	530	177	503	38	0	
14	0	0	0	0	512	530	177	505	38	0	
15	0	0	0	0	515	531	177	509	38	0	
0	0	0	0	0	512	533	177	512	38	0	
1	0	0	0	0	507	534	176	513	38	0	
2	0	0	0	0	514	532	177	517	38	0	
3	0	0	0	0	512	532	177	520	38	0	
4	0	0	0	0	513	533	177	521	38	0	
5	0	0	0	0	512	535	176	519	38	0	
6	0	0	0	0	503	533	177	516	38	0	
7	0	0	0	0	505	532	177	513	38	0	
8	0	0	0	0	503	532	177	508	38	0	
9	0	0	0	0	509	533	177	506	38	0	
10	0	0	0	0	505	534	177	502	38	0	
11	0	0	0	0	508	536	177	500	38	0	
12	0	0	0	0	503	535	176	505	38	0	
13	0	0	0	0	504	534	177	500	38	0	
14	0	0	0	0	505	533	177	502	38	0	
15	0	0	0	0	508	533	177	504	38	0	
0	0	0	0	0	508	533	177	505	38	0	
1	0	0	0	0	512	533	176	517	38	0	
2	0	0	0	0	514	533	177	527	38	0	
3	0	0	0	0	507	531	177	529	38	0	
4	0	0	0	0	504	530	177	530	38	0	
5	0	0	0	0	518	529	176	528	38	0	
6	0	0	0	0	512	528	177	523	38	0	
7	0	0	0	0	507	527	177	516	38	0	
8	0	0	0	0	502	524	177	510	38	0	
9	0	0	0	0	512	522	177	505	38	0	
10	0	0	0	0	507	520	177	504	38	0	
11	0	0	0	0	504	518	177	502	38	0	
12	0	0	0	0	502	518	177	501	38	0	
13	0	0	0	0	512	517	177	502	38	0	
14	0	0	0	0	513	516	177	504	38	0	
15	0	0	0	0	508	516	177	504	38	0	
0	0	0	0	0	508	516	177	507	38	0	
1	0	0	0	0	512	517	177	512	38	0	
2	0	0	0	0	507	518	177	512	38	0	
3	0	0	0	0	507	518	177	515	38	0	
4	0	0	0	0	504	518	177	515	38	0	
5	0	0	0	0	516	516	177	515	38	0	
6	0	0	0	0	509	514	177	516	38	0	
7	0	0	0	0	513	512	177	514	38	0	
8	0	0	0	0	507	512	177	513	38	0	
9	0	0	0	0	508	510	177	510	38	0	
10	0	0	0	0	508	509	177	508	38	0	
11	0	0	0	0	507	508	177	505	38	0	
12	0	0	0	0	504	507	177	504	38	0	
13	0	0	0	0	505	507	177	505	38	0	
14	0	0	0	0	502	504	177	506	38	0	
15	0	0	0	0	511	503	177	507	38	0	
0	0	0	0	0	511	503	177	508	38	0	
1	0	0	0	0	507	503	177	510	38	0	
2	0	0	0	0	507	504	177	512	38	0	
3	0	0	0	0	510	505	177	515	38	0	
4	0	0	0	0	521	505	177	517	38	0	
5	0	0	0	0	506	505	177	518	38	0	
6	0	0	0	0	515	505	177	516	38	0	
7	0	0	0	0	509	504	177	515	38	0	
8	0	0	0	0	507	503	177	514	38	0	
9	0	0	0	0	506	503	177	510	38	0	
10	0	0	0	0	507	502	177	508	38	0	
11	0	0	0	0	512	499	177	504	38	0	
12	0	0	0	0	509	498	177	503	38	0	
13	0	0	0	0	502	496	177	501	38	0	
14	0	0	0	0	511	495	177	501	38	0	
15	0	0	0	0	503	495	177	500	38	0	
0	0	0	0	0	504	496	177	501	38	0	
1	0	0	0	0	511	496	177	505	38	0	
2	0	0	0	0	515	495	177	507	38	0	
3	0	0	0	0	502	495	177	514	38	0	
4	0	0	0	0	513	493	177	519	38	0	
5	0	0	0	0	510	493	177	521	38	0	
6	0	0	0	0	509	494	177	521	38	0	
7	0	0	0	0	512	495	177	520	38	0	
8	0	0	0	0	511	494	177	518	38	0	
9	0	0	0	0	503	493	177	515	38	0	
10	0	0	0	0	508	489	177	512	38	0	
11	0	0	0	0	505	487	177	510	38	0	
12	0	0	0	0	502	486	178	506	38	0	
13	0	0	0	0	507	486	177	504	38	0	
14	0	0	0	0	502	487	177	504	38	0	
15	0	0	0	0	505	487	177	503	38	0	
0	0	0	0	0	504	487	178	503	38	0	
1	0	0	0	0	518	488	177	505	38	0	
2	0	0	0	0	511	489	177	508	38	0	
3	0	0	0	0	504	489	177	515	38	0	
4	0	0	0	0	507	488	177	513	38	0	
5	0	0	0	0	516	490	177	515	38	0	
6	0	0	0	0	510	489	177	514	38	0	
7	0	0	0	0	511	489	177	515	38	0	
8	0	0	0	0	509	490	177	516	38	0	
9	0	0	0	0	507	491	177	513	38	0	
10	0	0	0	0	504	491	177	512	38	0	
11	0	0	0	0	510	489	177	508	38	0	
12	0	0	0	0	513	487	177	504	38	0	
13	0	0	0	0	508	486	177	503	38	0	
14	0	0	0	0	506	485	177	500	38	0	
15	0	0	0	0	505	484	177	498	38	0	
0	0	0	0	0	503	485	177	499	38	0	
1	0	0	0	0	510	486	177	503	38	0	
2	0	0	0	0	507	487	177	504	38	0	
3	0	0	0	0	513	487	177	507	38	0	
4	0	0	0	0	506	487	177	510	38	0	
5	0	0	0	0	508	486	177	513	38	0	
6	0	0	0	0	517	486	177	518	38	0	
7	0	0	0	0	511	488	177	521	38	0	
8	0	0	0	0	511	489	177	519	38	0	
9	0	0	0	0	509	490	177	519	38	0	
10	0	0	0	0	509	488	177	515	38	0	
11	0	0	0	0	509	487	177	513	38	0	
12	0	0	0	0	504	486	177	513	38	0	
13	0	0	0	0	509	486	177	509	38	0	
14	0	0	0	0	505	487	177	507	38	0	
15	0	0	0	0	504	488	177	506	38	0	
0	0	0	0	0	495	488	177	504	38	0	
1	0	0	0	0	505	486	177	504	38	0	
2	0	0	0	0	508	485	177	505	38	0	
3	0	0	0	0	515	486	177	507	38	0	
4	0	0	0	0	510	488	177	509	38	0	
5	0	0	0	0	510	491	177	514	38	0	
6	0	0	0	0	507	494	177	517	38	0	
7	0	0	0	0	511	494	177	519	38	0	
8	0	0	0	0	514	495	177	522	38	0	
9	0	0	0	0	514	496	177	516	38	0	
10	0	0	0	0	514	497	177	515	38	0	
11	0	0	0	0	502	497	177	516	38	0	
12	0	0	0	0	512	494	177	513	38	0	
13	0	0	0	0	504	493	177	511	38	0	
14	0	0	0	0	508	493	178	507	38	0	
15	0	0	0	0	512	492	177	506	38	0	
0	0	0	0	0	501	491	177	503	38	0	
1	0	0	0	0	506	489	177	500	38	0	
2	0	0	0	0	504	488	177	502	38	0	
3	0	0	0	0	507	490	178	503	38	0	
4	0	0	0	0	512	491	177	505	38	0	
5	0	0	0	0	508	492	177	510	38	0	
6	0	0	0	0	512	492	177	510	38	0	
7	0	0	0	0	509	491	177	511	38	0	
8	0	0	0	0	504	491	178	513	38	0	
9	0	0	0	0	511	490	177	515	38	0	
10	0	0	0	0	515	491	177	515	38	0	
11	0	0	0	0	504	489	177	516	38	0	
12	0	0	0	0	507	488	178	516	38	0	
13	0	0	0	0	510	486	177	514	38	0	
14	0	0	0	0	511	486	177	514	38	0	
15	0	0	0	0	501	485	177	512	38	0	
0	0	0	0	0	504	485	177	510	38	0	
1	0	0	0	0	502	486	177	509	38	0	
2	0	0	0	0	499	487	177	508	38	0	
3	0	0	0	0	505	487	178	508	38	0	
4	0	0	0	0	513	488	177	511	38	0	
5	0	0	0	0	514	490	177	514	38	0	
6	0	0	0	0	507	491	177	517	38	0	
7	0	0	0	0	512	490	177	520	38	0	
8	0	0	0	0	510	490	178	523	38	0	
9	0	0	0	0	507	491	177	523	38	0	
10	0	0	0	0	506	492	177	522	38	0	
11	0	0	0	0	517	492	177	521	38	0	
12	0	0	0	0	508	492	178	518	38	0	
13	0	0	0	0	507	491	177	515	38	0	
14	0	0	0	0	513	490	177	512	38	0	
15	0	0	0	0	515	489	177	506	38	0	
0	0	0	0	0	508	489	178	504	38	0	
1	0	0	0	0	510	489	177	503	38	0	
2	0	0	0	0	508	488	177	500	38	0	
3	0	0	0	0	495	488	177	499	38	0	
4	0	0	0	0	500	489	178	500	38	0	
5	0	0	0	0	505	489	177	502	38	0	
6	0	0	0	0	509	489	177	506	38	0	
7	0	0	0	0	507	489	177	511	38	0	
8	0	0	0	0	509	492	177	514	38	0	
9	0	0	0	0	513	494	177	519	38	0	
10	0	0	0	0	514	494	177	529	38	0	
11	0	0	0	0	507	495	177	523	38	0	
12	0	0	0	0	512	494	177	523	38	0	
13	0	0	0	0	512	494	178	520	38	0	
14	0	0	0	0	508	492	177	517	38	0	
15	0	0	0	0	507	490	177	514	38	0	
0	0	0	0	0	502	490	177	510	38	0	
1	0	0	0	0	508	491	178	508	38	0	
2	0	0	0	0	503	491	177	507	38	0	
3	0	0	0	0	511	491	177	508	38	0	
4	0	0	0	0	505	491	177	508	38	0	
5	0	0	0	0	507	492	178	508	38	0	
6	0	0	0	0	511	494	177	511	38	0	
7	0	0	0	0	510	495	177	513	38	0	
8	0	0	0	0	515	495	177	516	38	0	
9	0	0	0	0	512	496	177	519	38	0	
10	0	0	0	0	511	496	177	518	38	0	
11	0	0	0	0	512	497	177	519	38	0	
12	0	0	0	0	516	499	177	520	38	0	
13	0	0	0	0	504	499	177	520	38	0	
14	0	0	0	0	507	499	178	519	38	0	
15	0	0	0	0	503	499	177	516	38	0	
0	0	0	0	0	511	499	177	511	38	0	
1	0	0	0	0	512	498	177	510	38	0	
2	0	0	0	0	500	498	177	508	38	0	
3	0	0	0	0	510	499	177	506	38	0	
4	0	0	0	0	505	499	177	505	38	0	
5	0	0	0	0	510	500	177	506	38	0	
6	0	0	0	0	512	501	178	509	38	0	
7	0	0	0	0	508	501	177	510	38	0	
8	0	0	0	0	504	501	177	513	38	0	
9	0	0	0	0	516	501	177	515	38	0	
10	0	0	0	0	514	501	177	515	38	0	
11	0	0	0	0	510	502	177	515	38	0	
12	0	0	0	0	504	503	177	516	38	0	
13	0	0	0	0	516	503	177	516	38	0	
14	0	0	0	0	505	502	177	515	38	0	
15	0	0	0	0	502	501	178	513	38	0	
0	0	0	0	0	507	500	177	511	38	0	
1	0	0	0	0	508	498	177	508	38	0	
2	0	0	0	0	505	497	178	507	38	0	
3	0	0	0	0	513	497	178	505	38	0	
4	0	0	0	0	505	497	177	503	38	0	
5	0	0	0	0	514	497	177	504	38	0	
6	0	0	0	0	505	497	177	507	38	0	
7	0	0	0	0	504	498	177	510	38	0	
8	0	0	0	0	516	499	178	513	38	0	
9	0	0	0	0	505	500	177	518	38	0	
10	0	0	0	0	507	500	177	520	38	0	
11	0	0	0	0	511	500	177	523	38	0	
12	0	0	0	0	510	502	178	524	38	0	
13	0	0	0	0	512	503	177	521	38	0	
14	0	0	0	0	510	502	177	520	38	0	
15	0	0	0	0	507	502	177	518	38	0	
0	0	0	0	0	505	501	177	514	38	0	
1	0	0	0	0	511	500	178	511	38	0	
2	0	0	0	0	506	498	177	514	38	0	
3	0	0	0	0	508	497	177	506	38	0	
4	0	0	0	0	504	497	177	507	38	0	
5	0	0	0	0	508	496	178	506	38	0	
6	0	0	0	0	508	497	177	504	38	0	
7	0	0	0	0	511	497	177	504	38	0	
8	0	0	0	0	518	497	177	507	38	0	
9	0	0	0	0	499	497	178	511	38	0	
10	0	0	0	0	500	497	177	515	38	0	
11	0	0	0	0	510	497	177	516	38	0	
12	0	0	0	0	515	498	177	520	38	0	
13	0	0	0	0	509	499	177	521	38	0	
14	0	0	0	0	510	499	177	522	38	0	
15	0	0	0	0	511	499	177	521	38	0	
0	0	0	0	0	510	497	177	519	38	0	
1	0	0	0	0	511	495	178	515	38	0	
2	0	0	0	0	511	495	178	512	38	0	
3	0	0	0	0	509	495	177	508	38	0	
4	0	0	0	0	505	495	177	507	38	0	
5	0	0	0	0	507	497	178	504	38	0	
6	0	0	0	0	497	497	177	503	38	0	
7	0	0	0	0	506	497	178	503	38	0	
8	0	0	0	0	512	497	177	503	38	0	
9	0	0	0	0	505	498	177	506	38	0	
10	0	0	0	0	503	498	178	509	38	0	
11	0	0	0	0	512	498	178	511	38	0	
12	0	0	0	0	515	499	177	514	38	0	
13	0	0	0	0	515	499	177	515	38	0	
14	0	0	0	0	521	500	177	516	38	0	
15	0	0	0	0	507	501	178	515	38	0	
0	0	0	0	0	500	500	178	512	38	0	
1	0	0	0	0	507	500	177	510	38	0	
2	0	0	0	0	513	498	177	509	38	0	
3	0	0	0	0	514	498	177	507	38	0	
4	0	0	0	0	499	498	178	507	38	0	
5	0	0	0	0	509	499	178	505	38	0	
6	0	0	0	0	500	500	177	503	38	0	
7	0	0	0	0	501	501	177	502	38	0	
8	0	0	0	0	508	502	177	507	38	0	
9	0	0	0	0	512	504	178	513	38	0	
10	0	0	0	0	512	505	177	516	38	0	
11	0	0	0	0	495	507	177	522	38	0	
12	0	0	0	0	507	508	177	524	38	0	
13	0	0	0	0	507	509	177	524	38	0	
14	0	0	0	0	511	511	178	525	38	0	
15	0	0	0	0	515	511	177	524	38	0	
0	0	0	0	0	514	511	177	520	38	0	
1	0	0	0	0	508	511	177	518	38	0	
2	0	0	0	0	510	509	177	513	38	0	
3	0	0	0	0	512	508	178	510	38	0	
4	0	0	0	0	508	505	178	507	38	0	
5	0	0	0	0	500	504	177	503	38	0	
6	0	0	0	0	509	502	177	502	38	0	
7	0	0	0	0	500	500	177	501	38	0	
8	0	0	0	0	509	501	178	502	38	0	
9	0	0	0	0	505	502	178	502	38	0	
10	0	0	0	0	519	504	177	503	38	0	
11	0	0	0	0	512	505	177	507	38	0	
12	0	0	0	0	505	506	177	511	38	0	
13	0	0	0	0	509	508	178	516	38	0	
14	0	0	0	0	509	510	177	513	38	0	
15	0	0	0	0	507	511	177	513	38	0	
0	0	0	0	0	513	511	177	512	38	0	
1	0	0	0	0	512	510	178	510	38	0	
2	0	0	0	0	507	510	177	510	38	0	
3	0	0	0	0	498	509	177	509	38	0	
4	0	0	0	0	510	508	178	508	38	0	
5	0	0	0	0	507	506	178	507	38	0	
6	0	0	0	0	503	505	177	507	38	0	
7	0	0	0	0	503	506	177	506	38	0	
8	0	0	0	0	506	505	177	507	38	0	
9	0	0	0	0	510	506	178	509	38	0	
10	0	0	0	0	505	507	178	511	38	0	
11	0	0	0	0	506	508	177	524	38	0	
12	0	0	0	0	515	508	177	513	38	0	
13	0	0	0	0	507	509	177	515	38	0	
14	0	0	0	0	508	510	177	525	38	0	
15	0	0	0	0	513	512	178	521	38	0	
0	0	0	0	0	512	512	177	521	38	0	
1	0	0	0	0	514	513	177	521	38	0	
2	0	0	0	0	509	513	177	519	38	0	
3	0	0	0	0	507	512	178	516	38	0	
4	0	0	0	0	506	511	177	513	38	0	
5	0	0	0	0	501	511	177	511	38	0	
6	0	0	0	0	504	511	178	508	38	0	
7	0	0	0	0	512	509	177	503	38	0	
8	0	0	0	0	504	508	177	501	38	0	
9	0	0	0	0	505	507	177	502	38	0	
10	0	0	0	0	515	506	178	501	38	0	
11	0	0	0	0	518	506	178	504	38	0	
12	0	0	0	0	506	506	177	517	38	0	
13	0	0	0	0	503	507	177	511	38	0	
14	0	0	0	0	506	508	178	516	38	0	
15	0	0	0	0	512	508	177	521	38	0	
0	0	0	0	0	515	508	177	521	38	0	
1	0	0	0	0	514	509	177	522	38	0	
2	0	0	0	0	516	508	178	521	38	0	
3	0	0	0	0	509	507	177	519	38	0	
4	0	0	0	0	505	504	177	516	38	0	
5	0	0	0	0	515	502	178	511	38	0	
6	0	0	0	0	509	501	178	509	38	0	
7	0	0	0	0	500	500	177	507	38	0	
8	0	0	0	0	508	499	177	508	38	0	
9	0	0	0	0	499	498	177	509	38	0	
10	0	0	0	0	505	497	178	511	38	0	
11	0	0	0	0	502	498	177	511	38	0	
12	0	0	0	0	509	498	178	513	38	0	
13	0	0	0	0	503	499	178	513	38	0	
14	0	0	0	0	511	499	178	517	38	0	
15	0	0	0	0	511	499	178	519	38	0	
0	0	0	0	0	511	501	177	520	38	0	
1	0	0	0	0	515	503	177	521	38	0	
2	0	0	0	0	508	506	177	520	38	0	
3	0	0	0	0	512	507	178	517	38	0	
4	0	0	0	0	508	508	177	514	38	0	
5	0	0	0	0	504	507	177	510	38	0	
6	0	0	0	0	509	505	178	507	38	0	
7	0	0	0	0	507	504	178	505	38	0	
8	0	0	0	0	505	502	177	505	38	0	
9	0	0	0	0	511	503	178	508	38	0	
10	0	0	0	0	503	501	178	507	38	0	
11	0	0	0	0	502	499	178	509	38	0	
12	0	0	0	0	511	498	178	516	38	0	
13	0	0	0	0	507	499	177	510	38	0	
14	0	0	0	0	507	501	178	512	38	0	
15	0	0	0	0	506	501	178	512	38	0	
0	0	0	0	0	515	501	177	515	38	0	
1	0	0	0	0	513	500	177	516	38	0	
2	0	0	0	0	506	500	178	518	38	0	
3	0	0	0	0	509	500	178	517	38	0	
4	0	0	0	0	504	499	178	515	38	0	
5	0	0	0	0	511	497	177	514	38	0	
6	0	0	0	0	512	496	177	513	38	0	
7	0	0	0	0	507	496	178	510	38	0	
8	0	0	0	0	506	495	178	508	38	0	
9	0	0	0	0	504	493	177	505	38	0	
10	0	0	0	0	496	493	178	503	38	0	
11	0	0	0	0	508	492	178	502	38	0	
12	0	0	0	0	504	491	178	503	38	0	
13	0	0	0	0	509	491	177	505	38	0	
14	0	0	0	0	512	493	177	506	38	0	
15	0	0	0	0	516	493	178	508	38	0	
0	0	0	0	0	507	493	178	511	38	0	
1	0	0	0	0	511	492	178	513	38	0	
2	0	0	0	0	509	492	177	515	38	0	
3	0	0	0	0	513	492	177	516	38	0	
4	0	0	0	0	507	493	178	517	38	0	
5	0	0	0	0	507	492	178	515	38	0	
6	0	0	0	0	507	491	177	512	38	0	
7	0	0	0	0	509	492	177	508	38	0	
8	0	0	0	0	506	492	178	505	38	0	
9	0	0	0	0	507	491	178	503	38	0	
10	0	0	0	0	509	490	178	503	38	0	
11	0	0	0	0	504	489	177	502	38	0	
12	0	0	0	0	497	489	177	503	38	0	
13	0	0	0	0	508	490	177	505	38	0	
14	0	0	0	0	510	491	178	507	38	0	
15	0	0	0	0	509	492	178	510	38	0	
0	0	0	0	0	510	492	178	512	38	0	
1	0	0	0	0	515	493	177	516	38	0	
2	0	0	0	0	508	494	177	519	38	0	
3	0	0	0	0	513	495	177	521	38	0	
4	0	0	0	0	515	495	178	521	38	0	
5	0	0	0	0	508	494	178	519	38	0	
6	0	0	0	0	499	492	178	515	38	0	
7	0	0	0	0	512	491	178	511	38	0	
8	0	0	0	0	511	492	178	509	38	0	
9	0	0	0	0	514	492	177	507	38	0	
10	0	0	0	0	509	491	177	504	38	0	
11	0	0	0	0	499	492	178	503	38	0	
12	0	0	0	0	509	492	178	501	38	0	
13	0	0	0	0	495	495	178	501	38	0	
14	0	0	0	0	506	497	178	502	38	0	
15	0	0	0	0	502	498	177	508	38	0	
0	0	0	0	0	505	498	177	514	38	0	
1	0	0	0	0	512	498	177	518	38	0	
2	0	0	0	0	517	499	178	524	38	0	
3	0	0	0	0	510	499	178	532	38	0	
4	0	0	0	0	513	500	178	528	38	0	
5	0	0	0	0	516	501	178	526	38	0	
6	0	0	0	0	510	502	177	521	38	0	
7	0	0	0	0	502	504	177	519	38	0	
8	0	0	0	0	513	505	177	515	38	0	
9	0	0	0	0	511	505	178	511	38	0	
10	0	0	0	0	505	505	178	509	38	0	
11	0	0	0	0	501	505	178	506	38	0	
12	0	0	0	0	501	505	178	504	38	0	
13	0	0	0	0	500	506	177	504	38	0	
14	0	0	0	0	502	507	177	505	38	0	
15	0	0	0	0	510	508	177	505	38	0	
0	0	0	0	0	512	509	178	507	38	0	
1	0	0	0	0	508	510	178	519	38	0	
2	0	0	0	0	506	510	178	511	38	0	
3	0	0	0	0	518	511	178	514	38	0	
4	0	0	0	0	513	512	177	514	38	0	
5	0	0	0	0	514	513	177	515	38	0	
6	0	0	0	0	509	513	177	514	38	0	
7	0	0	0	0	510	513	178	514	38	0	
8	0	0	0	0	505	512	178	512	38	0	
9	0	0	0	0	502	511	178	511	38	0	
10	0	0	0	0	513	511	178	510	38	0	
11	0	0	0	0	504	511	177	507	38	0	
12	0	0	0	0	506	512	177	504	38	0	
13	0	0	0	0	505	512	177	505	38	0	
14	0	0	0	0	509	511	177	506	38	0	
15	0	0	0	0	507	510	177	508	38	0	
0	0	0	0	0	509	511	178	511	38	0	
1	0	0	0	0	504	511	178	514	38	0	
2	0	0	0	0	505	511	178	516	38	0	
3	0	0	0	0	515	512	178	518	38	0	
4	0	0	0	0	504	512	178	520	38	0	
5	0	0	0	0	513	512	178	521	38	0	
6	0	0	0	0	508	512	177	519	38	0	
7	0	0	0	0	514	513	177	515	38	0	
8	0	0	0	0	514	514	177	516	38	0	
9	0	0	0	0	504	512	177	512	38	0	
10	0	0	0	0	512	511	178	510	38	0	
11	0	0	0	0	509	511	178	508	38	0	
12	0	0	0	0	508	511	178	502	38	0	
13	0	0	0	0	507	511	178	499	38	0	
14	0	0	0	0	497	510	177	499	38	0	
15	0	0	0	0	504	510	177	502	38	0	
0	0	0	0	0	510	510	178	503	38	0	
1	0	0	0	0	509	511	178	505	38	0	
2	0	0	0	0	514	511	178	510	38	0	
3	0	0	0	0	507	511	178	514	38	0	
4	0	0	0	0	512	510	177	519	38	0	
5	0	0	0	0	512	509	177	522	38	0	
6	0	0	0	0	513	509	177	523	38	0	
7	0	0	0	0	516	509	177	523	38	0	
8	0	0	0	0	512	509	178	521	38	0	
9	0	0	0	0	507	508	178	518	38	0	
10	0	0	0	0	505	508	178	517	38	0	
11	0	0	0	0	508	505	177	515	38	0	
12	0	0	0	0	506	503	177	512	38	0	
13	0	0	0	0	510	502	177	510	38	0	
14	0	0	0	0	503	502	177	511	38	0	
15	0	0	0	0	504	501	177	510	38	0	
0	0	0	0	0	500	500	177	511	38	0	
1	0	0	0	0	511	500	178	510	38	0	
2	0	0	0	0	511	501	178	511	38	0	
3	0	0	0	0	512	502	177	515	38	0	
4	0	0	0	0	510	503	177	519	38	0	
5	0	0	0	0	514	504	178	521	38	0	
6	0	0	0	0	505	504	178	524	38	0	
7	0	0	0	0	508	504	177	524	38	0	
8	0	0	0	0	511	505	177	525	38	0	
9	0	0	0	0	502	505	178	525	38	0	
10	0	0	0	0	509	505	178	519	38	0	
11	0	0	0	0	512	505	178	515	38	0	
12	0	0	0	0	516	504	177	514	38	0	
13	0	0	0	0	502	503	177	509	38	0	
14	0	0	0	0	508	503	178	506	38	0	
15	0	0	0	0	504	502	178	505	38	0	
0	0	0	0	0	505	503	178	505	38	0	
1	0	0	0	0	511	503	177	506	38	0	
2	0	0	0	0	507	502	177	508	38	0	
3	0	0	0	0	497	502	178	511	38	0	
4	0	0	0	0	505	502	178	512	38	0	
5	0	0	0	0	509	502	178	515	38	0	
6	0	0	0	0	510	501	178	516	38	0	
7	0	0	0	0	514	500	177	521	38	0	
8	0	0	0	0	512	500	177	523	38	0	
9	0	0	0	0	511	500	177	524	38	0	
10	0	0	0	0	511	501	178	523	38	0	
11	0	0	0	0	508	499	178	519	38	0	
12	0	0	0	0	513	497	177	515	38	0	
13	0	0	0	0	507	497	178	511	38	0	
14	0	0	0	0	513	496	178	508	38	0	
15	0	0	0	0	507	495	178	508	38	0	
0	0	0	0	0	508	494	177	505	38	0	
1	0	0	0	0	505	492	178	507	38	0	
2	0	0	0	0	503	492	178	508	38	0	
3	0	0	0	0	508	494	178	510	38	0	
4	0	0	0	0	507	495	177	512	38	0	
5	0	0	0	0	508	496	177	512	38	0	
6	0	0	0	0	504	496	178	515	38	0	
7	0	0	0	0	512	496	178	519	38	0	
8	0	0	0	0	512	496	177	520	38	0	
9	0	0	0	0	511	497	177	519	38	0	
10	0	0	0	0	512	497	178	519	38	0	
11	0	0	0	0	510	495	178	531	38	0	
12	0	0	0	0	503	493	177	515	38	0	
13	0	0	0	0	515	492	177	511	38	0	
14	0	0	0	0	500	494	178	508	38	0	
15	0	0	0	0	509	496	178	506	38	0	
0	0	0	0	0	511	497	177	504	38	0	
1	0	0	0	0	498	496	178	503	38	0	
2	0	0	0	0	503	495	178	503	38	0	
3	0	0	0	0	513	496	178	504	38	0	
4	0	0	0	0	508	496	177	513	38	0	
5	0	0	0	0	503	497	178	512	38	0	
6	0	0	0	0	505	497	178	516	38	0	
7	0	0	0	0	509	498	177	517	38	0	
8	0	0	0	0	505	498	177	517	38	0	
9	0	0	0	0	513	497	177	519	38	0	
10	0	0	0	0	510	497	178	518	38	0	
11	0	0	0	0	511	497	178	517	38	0	
12	0	0	0	0	508	495	177	514	38	0	
13	0	0	0	0	513	495	177	510	38	0	
14	0	0	0	0	505	495	178	507	38	0	
15	0	0	0	0	506	496	178	505	38	0	
0	0	0	0	0	501	497	177	504	38	0	
1	0	0	0	0	500	497	177	503	38	0	
2	0	0	0	0	504	497	178	502	38	0	
3	0	0	0	0	507	498	178	502	38	0	
4	0	0	0	0	517	499	177	504	38	0	
5	0	0	0	0	508	499	177	507	38	0	
6	0	0	0	0	507	499	178	509	38	0	
7	0	0	0	0	513	500	178	513	38	0	
8	0	0	0	0	507	501	178	516	38	0	
9	0	0	0	0	512	502	178	516	38	0	
10	0	0	0	0	515	504	178	516	38	0	
11	0	0	0	0	508	504	178	520	38	0	
12	0	0	0	0	503	504	177	512	38	0	
13	0	0	0	0	504	503	178	510	38	0	
14	0	0	0	0	515	501	178	508	38	0	
15	0	0	0	0	504	500	178	505	38	0	
0	0	0	0	0	508	499	177	503	38	0	
1	0	0	0	0	505	499	178	502	38	0	
2	0	0	0	0	505	499	178	500	38	0	
3	0	0	0	0	505	499	178	502	38	0	
4	0	0	0	0	504	501	177	502	38	0	
5	0	0	0	0	509	504	178	507	38	0	
6	0	0	0	0	513	506	178	512	38	0	
7	0	0	0	0	511	508	178	518	38	0	
8	0	0	0	0	507	510	178	521	38	0	
9	0	0	0	0	505	511	178	523	38	0	
10	0	0	0	0	514	512	177	520	38	0	
11	0	0	0	0	508	514	178	520	38	0	
12	0	0	0	0	499	515	178	518	38	0	
13	0	0	0	0	509	515	178	515	38	0	
14	0	0	0	0	507	515	177	511	38	0	
15	0	0	0	0	514	514	177	506	38	0	
0	0	0	0	0	507	514	178	502	38	0	
1	0	0	0	0	512	513	178	499	38	0	
2	0	0	0	0	509	513	177	499	38	0	
3	0	0	0	0	507	514	177	502	38	0	
4	0	0	0	0	501	515	178	504	38	0	
5	0	0	0	0	512	517	178	505	38	0	
6	0	0	0	0	512	519	178	508	38	0	
7	0	0	0	0	503	520	177	511	38	0	
8	0	0	0	0	505	520	177	515	38	0	
9	0	0	0	0	510	521	178	518	38	0	
10	0	0	0	0	514	522	178	520	38	0	
11	0	0	0	0	513	521	177	518	38	0	
12	0	0	0	0	511	521	177	519	38	0	
13	0	0	0	0	506	520	178	518	38	0	
14	0	0	0	0	502	519	178	515	38	0	
15	0	0	0	0	510	518	177	513	38	0	
0	0	0	0	0	506	516	177	516	38	0	
1	0	0	0	0	504	515	178	507	38	0	
2	0	0	0	0	507	516	178	505	38	0	
3	0	0	0	0	505	517	178	505	38	0	
4	0	0	0	0	507	519	177	504	38	0	
5	0	0	0	0	505	519	178	504	38	0	
6	0	0	0	0	512	520	178	504	38	0	
7	0	0	0	0	511	522	178	505	38	0	
8	0	0	0	0	498	522	177	508	38	0	
9	0	0	0	0	512	522	178	512	38	0	
10	0	0	0	0	513	521	178	513	38	0	
11	0	0	0	0	514	521	178	515	38	0	
12	0	0	0	0	511	521	177	515	38	0	
13	0	0	0	0	510	520	178	513	38	0	
14	0	0	0	0	508	519	178	512	38	0	
15	0	0	0	0	502	518	178	512	38	0	
0	0	0	0	0	503	516	177	508	38	0	
1	0	0	0	0	513	515	177	504	38	0	
2	0	0	0	0	505	515	178	505	38	0	
3	0	0	0	0	503	514	178	501	38	0	
4	0	0	0	0	504	513	177	501	38	0	
5	0	0	0	0	504	512	178	506	38	0	
6	0	0	0	0	508	512	178	503	38	0	
7	0	0	0	0	511	511	178	505	38	0	
8	0	0	0	0	515	510	177	511	38	0	
9	0	0	0	0	510	510	178	513	38	0	
10	0	0	0	0	510	511	178	515	38	0	
11	0	0	0	0	512	513	178	518	38	0	
12	0	0	0	0	502	515	177	518	38	0	
13	0	0	0	0	512	516	178	518	38	0	
14	0	0	0	0	509	516	178	519	38	0	
15	0	0	0	0	509	516	178	515	38	0	
0	0	0	0	0	503	514	177	513	38	0	
1	0	0	0	0	513	513	178	510	38	0	
2	0	0	0	0	503	513	178	508	38	0	
3	0	0	0	0	504	512	177	506	38	0	
4	0	0	0	0	508	511	177	504	38	0	
5	0	0	0	0	504	511	177	503	38	0	
6	0	0	0	0	510	512	178	502	38	0	
7	0	0	0	0	512	512	178	505	38	0	
8	0	0	0	0	499	512	178	508	38	0	
9	0	0	0	0	506	512	177	513	38	0	
10	0	0	0	0	510	512	178	517	38	0	
11	0	0	0	0	509	512	178	519	38	0	
12	0	0	0	0	512	512	178	520	38	0	
13	0	0	0	0	515	513	177	519	38	0	
14	0	0	0	0	506	514	177	518	38	0	
15	0	0	0	0	506	513	178	513	38	0	
0	0	0	0	0	510	511	178	510	38	0	
1	0	0	0	0	512	510	177	508	38	0	
2	0	0	0	0	510	509	177	507	38	0	
3	0	0	0	0	505	508	178	503	38	0	
4	0	0	0	0	507	507	178	501	38	0	
5	0	0	0	0	501	505	177	500	38	0	
6	0	0	0	0	499	504	178	500	38	0	
7	0	0	0	0	505	504	178	503	38	0	
8	0	0	0	0	502	503	178	505	38	0	
9	0	0	0	0	510	504	177	508	38	0	
10	0	0	0	0	504	505	177	512	38	0	
11	0	0	0	0	511	507	178	515	38	0	
12	0	0	0	0	519	507	178	519	38	0	
13	0	0	0	0	513	507	177	520	38	0	
14	0	0	0	0	509	507	177	521	38	0	
15	0	0	0	0	506	505	178	521	38	0	
0	0	0	0	0	503	504	178	519	38	0	
1	0	0	0	0	505	501	177	516	38	0	
2	0	0	0	0	513	501	178	514	38	0	
3	0	0	0	0	508	500	178	511	38	0	
4	0	0	0	0	507	500	178	507	38	0	
5	0	0	0	0	500	501	177	503	38	0	
6	0	0	0	0	508	500	178	502	38	0	
7	0	0	0	0	509	499	178	502	38	0	
8	0	0	0	0	507	498	178	504	38	0	
9	0	0	0	0	507	498	177	517	38	0	
10	0	0	0	0	513	499	177	510	38	0	
11	0	0	0	0	511	498	178	514	38	0	
12	0	0	0	0	515	497	178	523	38	0	
13	0	0	0	0	505	498	178	532	38	0	
14	0	0	0	0	512	499	177	534	38	0	
15	0	0	0	0	511	500	178	532	38	0	
0	0	0	0	0	510	500	178	528	38	0	
1	0	0	0	0	502	499	177	523	38	0	
2	0	0	0	0	510	497	177	517	38	0	
3	0	0	0	0	509	497	178	513	38	0	
4	0	0	0	0	506	497	178	509	38	0	
5	0	0	0	0	512	498	178	508	38	0	
6	0	0	0	0	505	498	178	504	38	0	
7	0	0	0	0	498	498	177	504	38	0	
8	0	0	0	0	503	497	177	503	38	0	
9	0	0	0	0	512	497	178	504	38	0	
10	0	0	0	0	513	499	178	508	38	0	
11	0	0	0	0	504	500	178	511	38	0	
12	0	0	0	0	512	501	177	514	38	0	
13	0	0	0	0	512	501	177	517	38	0	
14	0	0	0	0	510	502	177	521	38	0	
15	0	0	0	0	503	502	178	520	38	0	
0	0	0	0	0	506	503	178	519	38	0	
1	0	0	0	0	507	503	178	516	38	0	
2	0	0	0	0	505	500	177	514	38	0	
3	0	0	0	0	505	499	178	512	38	0	
4	0	0	0	0	509	499	178	510	38	0	
5	0	0	0	0	508	499	177	509	38	0	
6	0	0	0	0	506	498	177	507	38	0	
7	0	0	0	0	499	497	178	505	38	0	
8	0	0	0	0	516	497	178	505	38	0	
9	0	0	0	0	508	497	178	507	38	0	
10	0	0	0	0	508	497	177	508	38	0	
11	0	0	0	0	511	498	178	510	38	0	
12	0	0	0	0	512	499	178	512	38	0	
13	0	0	0	0	507	500	178	513	38	0	
14	0	0	0	0	508	500	177	512	38	0	
15	0	0	0	0	513	500	178	512	38	0	
0	0	0	0	0	509	503	178	512	38	0	
1	0	0	0	0	512	503	178	512	38	0	
2	0	0	0	0	506	503	178	511	38	0	
3	0	0	0	0	504	503	177	509	38	0	
4	0	0	0	0	507	503	178	512	38	0	
5	0	0	0	0	507	504	178	507	38	0	
6	0	0	0	0	505	505	178	506	38	0	
7	0	0	0	0	508	505	177	505	38	0	
8	0	0	0	0	510	504	178	505	38	0	
9	0	0	0	0	504	504	178	504	38	0	
10	0	0	0	0	509	503	178	514	38	0	
11	0	0	0	0	504	503	177	504	38	0	
12	0	0	0	0	513	505	178	508	38	0	
13	0	0	0	0	509	506	178	512	38	0	
14	0	0	0	0	508	505	177	512	38	0	
15	0	0	0	0	514	505	177	513	38	0	
0	0	0	0	0	512	505	178	516	38	0	
1	0	0	0	0	516	505	178	516	38	0	
2	0	0	0	0	509	505	177	516	38	0	
3	0	0	0	0	504	504	178	515	38	0	
4	0	0	0	0	505	502	178	512	38	0	
5	0	0	0	0	515	502	178	511	38	0	
6	0	0	0	0	511	502	177	508	38	0	
7	0	0	0	0	509	502	178	508	38	0	
8	0	0	0	0	497	502	178	507	38	0	
9	0	0	0	0	504	502	177	508	38	0	
10	0	0	0	0	503	502	177	510	38	0	
11	0	0	0	0	510	503	178	513	38	0	
12	0	0	0	0	510	504	178	517	38	0	
13	0	0	0	0	512	504	178	524	38	0	
14	0	0	0	0	509	504	177	527	38	0	
15	0	0	0	0	511	503	177	526	38	0	
0	0	0	0	0	507	502	178	526	38	0	
1	0	0	0	0	504	502	178	524	38	0	
2	0	0	0	0	519	501	177	522	38	0	
3	0	0	0	0	509	500	178	520	38	0	
4	0	0	0	0	503	501	178	518	38	0	
5	0	0	0	0	505	501	178	516	38	0	
6	0	0	0	0	505	501	177	510	38	0	
7	0	0	0	0	501	500	178	505	38	0	
8	0	0	0	0	508	501	178	501	38	0	
9	0	0	0	0	511	501	177	500	38	0	
10	0	0	0	0	509	501	177	500	38	0	
11	0	0	0	0	508	500	178	501	38	0	
12	0	0	0	0	510	502	178	503	38	0	
13	0	0	0	0	506	504	178	505	38	0	
14	0	0	0	0	515	506	178	508	38	0	
15	0	0	0	0	511	507	178	511	38	0	
0	0	0	0	0	513	508	177	514	38	0	
1	0	0	0	0	512	506	178	515	38	0	
2	0	0	0	0	510	506	178	516	38	0	
3	0	0	0	0	510	506	178	516	38	0	
4	0	0	0	0	505	507	177	516	38	0	
5	0	0	0	0	507	507	178	512	38	0	
6	0	0	0	0	507	505	178	510	38	0	
7	0	0	0	0	504	504	178	509	38	0	
8	0	0	0	0	505	502	177	506	38	0	
9	0	0	0	0	506	501	178	506	38	0	
10	0	0	0	0	503	500	178	504	38	0	
11	0	0	0	0	500	500	178	505	38	0	
12	0	0	0	0	514	500	177	506	38	0	
13	0	0	0	0	520	502	177	508	38	0	
14	0	0	0	0	505	504	178	511	38	0	
15	0	0	0	0	511	505	178	514	38	0	
0	0	0	0	0	518	504	178	518	38	0	
1	0	0	0	0	508	504	178	517	38	0	
2	0	0	0	0	505	506	177	516	38	0	
3	0	0	0	0	509	508	178	516	38	0	
4	0	0	0	0	511	508	178	518	38	0	
5	0	0	0	0	511	507	178	514	38	0	
6	0	0	0	0	513	505	177	512	38	0	
7	0	0	0	0	507	503	178	509	38	0	
8	0	0	0	0	501	503	178	507	38	0	
9	0	0	0	0	505	503	177	504	38	0	
10	0	0	0	0	509	502	178	503	38	0	
11	0	0	0	0	508	502	178	503	38	0	
12	0	0	0	0	504	503	178	504	38	0	
13	0	0	0	0	512	504	177	507	38	0	
14	0	0	0	0	512	505	177	508	38	0	
15	0	0	0	0	503	508	178	510	38	0	
0	0	0	0	0	513	510	178	514	38	0	
1	0	0	0	0	508	511	178	516	38	0	
2	0	0	0	0	518	513	178	516	38	0	
3	0	0	0	0	513	517	177	515	38	0	
4	0	0	0	0	515	519	177	515	38	0	
5	0	0	0	0	502	520	178	517	38	0	
6	0	0	0	0	508	519	178	513	38	0	
7	0	0	0	0	507	518	177	511	38	0	
8	0	0	0	0	512	516	177	508	38	0	
9	0	0	0	0	507	517	178	505	38	0	
10	0	0	0	0	501	517	178	503	38	0	
11	0	0	0	0	504	517	177	502	38	0	
12	0	0	0	0	501	518	177	502	38	0	
13	0	0	0	0	510	519	178	505	38	0	
14	0	0	0	0	514	521	178	507	38	0	
15	0	0	0	0	512	524	177	511	38	0	
0	0	0	0	0	503	525	177	513	38	0	
1	0	0	0	0	506	527	178	517	38	0	
2	0	0	0	0	509	527	178	517	38	0	
3	0	0	0	0	513	529	177	519	38	0	
4	0	0	0	0	511	530	178	520	38	0	
5	0	0	0	0	518	531	178	519	38	0	
6	0	0	0	0	511	532	178	517	38	0	
7	0	0	0	0	506	533	178	515	38	0	
8	0	0	0	0	500	535	177	515	38	0	
9	0	0	0	0	507	535	177	510	38	0	
10	0	0	0	0	502	535	177	508	38	0	
11	0	0	0	0	506	536	178	504	38	0	
12	0	0	0	0	502	536	178	504	38	0	
13	0	0	0	0	508	534	178	505	38	0	
14	0	0	0	0	509	534	177	506	38	0	
15	0	0	0	0	509	532	178	510	38	0	
0	0	0	0	0	508	529	178	515	38	0	
1	0	0	0	0	510	526	177	517	38	0	
2	0	0	0	0	518	521	177	519	38	0	
3	0	0	0	0	510	518	178	522	38	0	
4	0	0	0	0	516	513	178	532	38	0	
5	0	0	0	0	512	508	177	521	38	0	
6	0	0	0	0	510	503	178	520	38	0	
7	0	0	0	0	500	501	178	518	38	0	
8	0	0	0	0	504	498	178	514	38	0	
9	0	0	0	0	511	495	178	513	38	0	
10	0	0	0	0	510	492	178	509	38	0	
11	0	0	0	0	502	487	178	506	38	0	
12	0	0	0	0	500	481	178	504	38	0	
13	0	0	0	0	504	475	177	504	38	0	
14	0	0	0	0	496	470	178	504	38	0	
15	0	0	0	0	509	467	178	505	38	0	
0	0	0	0	0	512	464	178	508	38	0	
1	0	0	0	0	504	462	177	510	38	0	
2	0	0	0	0	508	460	178	511	38	0	
3	0	0	0	0	511	458	178	514	38	0	
4	0	0	0	0	510	456	178	517	38	0	
5	0	0	0	0	502	453	178	518	38	0	
6	0	0	0	0	510	450	178	518	38	0	
7	0	0	0	0	514	448	178	517	38	0	
8	0	0	0	0	508	444	178	517	38	0	
9	0	0	0	0	505	441	178	512	38	0	
10	0	0	0	0	515	439	178	508	38	0	
11	0	0	0	0	509	439	178	506	38	0	
12	0	0	0	0	506	439	179	505	38	0	
13	0	0	0	0	513	440	178	504	38	0	
14	0	0	0	0	505	443	178	503	38	0	
15	0	0	0	0	513	447	178	504	38	0	
0	0	0	0	0	508	452	178	507	38	0	
1	0	0	0	0	508	457	178	509	38	0	
2	0	0	0	0	499	464	178	512	38	0	
3	0	0	0	0	511	470	178	513	38	0	
4	0	0	0	0	512	476	178	513	38	0	
5	0	0	0	0	525	480	178	516	38	0	
6	0	0	0	0	516	483	177	518	38	0	
7	0	0	0	0	510	486	178	516	38	0	
8	0	0	0	0	504	489	178	516	38	0	
9	0	0	0	0	506	491	177	515	38	0	
10	0	0	0	0	507	493	178	515	38	0	
11	0	0	0	0	505	496	178	510	38	0	
12	0	0	0	0	504	499	178	508	38	0	
13	0	0	0	0	505	503	178	516	38	0	
14	0	0	0	0	506	507	178	505	38	0	
15	0	0	0	0	506	509	177	506	38	0	
0	0	0	0	0	509	511	178	510	38	0	
1	0	0	0	0	505	513	178	509	38	0	
2	0	0	0	0	509	516	177	513	38	0	
3	0	0	0	0	510	517	178	526	38	0	
4	0	0	0	0	510	518	178	522	38	0	
5	0	0	0	0	513	519	177	524	38	0	
6	0	0	0	0	507	522	177	529	38	0	
7	0	0	0	0	519	525	177	524	38	0	
8	0	0	0	0	509	525	178	521	38	0	
9	0	0	0	0	504	524	178	516	38	0	
10	0	0	0	0	503	522	177	512	38	0	
11	0	0	0	0	513	521	177	509	38	0	
12	0	0	0	0	508	520	178	506	38	0	
13	0	0	0	0	495	520	178	503	38	0	
14	0	0	0	0	502	519	177	501	38	0	
15	0	0	0	0	508	518	177	499	38	0	
0	0	0	0	0	507	518	178	500	38	0	
1	0	0	0	0	508	519	178	502	38	0	
2	0	0	0	0	512	521	177	504	38	0	
3	0	0	0	0	514	522	178	509	38	0	
4	0	0	0	0	505	524	178	512	38	0	
5	0	0	0	0	507	525	178	513	38	0	
6	0	0	0	0	508	527	177	515	38	0	
7	0	0	0	0	515	528	178	518	38	0	
8	0	0	0	0	518	528	178	519	38	0	
9	0	0	0	0	513	528	178	519	38	0	
10	0	0	0	0	508	527	177	518	38	0	
11	0	0	0	0	507	526	178	515	38	0	
12	0	0	0	0	512	525	178	513	38	0	
13	0	0	0	0	500	526	178	511	38	0	
14	0	0	0	0	506	527	177	509	38	0	
15	0	0	0	0	505	527	178	519	38	0	
0	0	0	0	0	500	527	178	507	38	0	
1	0	0	0	0	510	527	178	505	38	0	
2	0	0	0	0	510	528	178	507	38	0	
3	0	0	0	0	509	528	177	510	38	0	
4	0	0	0	0	506	527	177	512	38	0	
5	0	0	0	0	503	527	178	514	38	0	
6	0	0	0	0	514	527	178	517	38	0	
7	0	0	0	0	512	528	178	519	38	0	
8	0	0	0	0	515	529	177	521	38	0	
9	0	0	0	0	509	530	177	520	38	0	
10	0	0	0	0	511	529	178	520	38	0	
11	0	0	0	0	502	528	178	512	38	0	
12	0	0	0	0	510	527	177	509	38	0	
13	0	0	0	0	506	526	178	507	38	0	
14	0	0	0	0	497	524	178	503	38	0	
15	0	0	0	0	503	523	178	502	38	0	
0	0	0	0	0	510	522	177	502	38	0	
1	0	0	0	0	507	522	177	503	38	0	
2	0	0	0	0	509	523	178	505	38	0	
3	0	0	0	0	510	524	178	508	38	0	
4	0	0	0	0	516	525	177	515	38	0	
5	0	0	0	0	504	526	178	519	38	0	
6	0	0	0	0	519	529	178	522	38	0	
7	0	0	0	0	508	532	178	523	38	0	
8	0	0	0	0	513	533	177	527	38	0	
9	0	0	0	0	510	534	177	521	38	0	
10	0	0	0	0	517	533	178	519	38	0	
11	0	0	0	0	511	532	178	516	38	0	
12	0	0	0	0	505	531	177	515	38	0	
13	0	0	0	0	512	530	177	512	38	0	
14	0	0	0	0	500	529	178	508	38	0	
15	0	0	0	0	502	528	178	507	38	0	
0	0	0	0	0	504	527	178	508	38	0	
1	0	0	0	0	499	524	177	504	38	0	
2	0	0	0	0	508	521	178	505	38	0	
3	0	0	0	0	506	522	178	507	38	0	
4	0	0	0	0	507	524	178	508	38	0	
5	0	0	0	0	508	524	177	513	38	0	
6	0	0	0	0	508	523	177	516	38	0	
7	0	0	0	0	510	523	178	522	38	0	
8	0	0	0	0	513	522	178	525	38	0	
9	0	0	0	0	515	520	178	526	38	0	
10	0	0	0	0	511	521	177	525	38	0	
11	0	0	0	0	511	521	177	523	38	0	
12	0	0	0	0	504	521	178	519	38	0	
13	0	0	0	0	505	519	178	515	38	0	
14	0	0	0	0	504	519	178	511	38	0	
15	0	0	0	0	509	518	177	507	38	0	
0	0	0	0	0	509	516	177	505	38	0	
1	0	0	0	0	498	513	178	505	38	0	
2	0	0	0	0	498	511	178	506	38	0	
3	0	0	0	0	509	510	178	507	38	0	
4	0	0	0	0	511	510	177	508	38	0	
5	0	0	0	0	508	511	178	511	38	0	
6	0	0	0	0	512	512	178	515	38	0	
7	0	0	0	0	512	513	177	518	38	0	
8	0	0	0	0	507	513	178	519	38	0	
9	0	0	0	0	513	514	178	521	38	0	
10	0	0	0	0	512	515	177	521	38	0	
11	0	0	0	0	512	515	177	522	38	0	
12	0	0	0	0	513	513	178	519	38	0	
13	0	0	0	0	504	509	178	517	38	0	
14	0	0	0	0	499	506	178	515	38	0	
15	0	0	0	0	513	504	177	513	38	0	
0	0	0	0	0	508	503	178	508	38	0	
1	0	0	0	0	508	501	178	505	38	0	
2	0	0	0	0	507	499	178	504	38	0	
3	0	0	0	0	496	497	177	503	38	0	
4	0	0	0	0	505	497	178	504	38	0	
5	0	0	0	0	504	497	178	507	38	0	
6	0	0	0	0	511	498	177	510	38	0	
7	0	0	0	0	511	497	178	514	38	0	
8	0	0	0	0	515	498	178	517	38	0	
9	0	0	0	0	506	499	178	518	38	0	
10	0	0	0	0	507	499	177	517	38	0	
11	0	0	0	0	508	500	178	518	38	0	
12	0	0	0	0	505	500	178	517	38	0	
13	0	0	0	0	510	499	178	515	38	0	
14	0	0	0	0	511	497	177	512	38	0	
15	0	0	0	0	513	495	178	508	38	0	
0	0	0	0	0	506	494	178	507	38	0	
1	0	0	0	0	502	493	178	505	38	0	
2	0	0	0	0	511	494	178	504	38	0	
3	0	0	0	0	498	493	178	504	38	0	
4	0	0	0	0	504	495	178	504	38	0	
5	0	0	0	0	509	497	178	506	38	0	
6	0	0	0	0	513	500	178	509	38	0	
7	0	0	0	0	505	503	178	513	38	0	
8	0	0	0	0	507	505	178	516	38	0	
9	0	0	0	0	517	505	177	519	38	0	
10	0	0	0	0	512	504	178	519	38	0	
11	0	0	0	0	504	502	178	519	38	0	
12	0	0	0	0	507	502	178	517	38	0	
13	0	0	0	0	514	501	177	517	38	0	
14	0	0	0	0	513	499	178	517	38	0	
15	0	0	0	0	501	498	178	514	38	0	
0	0	0	0	0	513	498	178	511	38	0	
1	0	0	0	0	509	498	178	510	38	0	
2	0	0	0	0	508	497	178	508	38	0	
3	0	0	0	0	504	498	178	509	38	0	
4	0	0	0	0	506	499	178	509	38	0	
5	0	0	0	0	499	501	178	509	38	0	
6	0	0	0	0	513	503	178	512	38	0	
7	0	0	0	0	512	506	178	516	38	0	
8	0	0	0	0	508	508	178	519	38	0	
9	0	0	0	0	511	509	177	521	38	0	
10	0	0	0	0	512	510	178	521	38	0	
11	0	0	0	0	508	511	178	520	38	0	
12	0	0	0	0	506	512	177	519	38	0	
13	0	0	0	0	510	514	177	518	38	0	
14	0	0	0	0	501	516	178	516	38	0	
15	0	0	0	0	502	515	178	514	38	0	
0	0	0	0	0	508	515	177	511	38	0	
1	0	0	0	0	503	515	177	508	38	0	
2	0	0	0	0	500	516	178	507	38	0	
3	0	0	0	0	505	517	178	506	38	0	
4	0	0	0	0	513	517	177	506	38	0	
5	0	0	0	0	504	518	178	506	38	0	
6	0	0	0	0	511	519	178	509	38	0	
7	0	0	0	0	512	519	178	507	38	0	
8	0	0	0	0	506	521	177	510	38	0	
9	0	0	0	0	508	522	178	512	38	0	
10	0	0	0	0	512	523	178	516	38	0	
11	0	0	0	0	508	523	178	518	38	0	
12	0	0	0	0	507	522	177	518	38	0	
13	0	0	0	0	507	523	178	518	38	0	
14	0	0	0	0	513	522	178	515	38	0	
15	0	0	0	0	516	521	178	511	38	0	
0	0	0	0	0	510	521	177	508	38	0	
1	0	0	0	0	512	520	178	503	38	0	
2	0	0	0	0	511	522	178	501	38	0	
3	0	0	0	0	507	524	178	501	38	0	
4	0	0	0	0	499	524	178	502	38	0	
5	0	0	0	0	509	524	178	503	38	0	
6	0	0	0	0	508	523	178	504	38	0	
7	0	0	0	0	509	524	178	505	38	0	
8	0	0	0	0	501	524	178	508	38	0	
9	0	0	0	0	503	526	177	512	38	0	
10	0	0	0	0	507	527	178	514	38	0	
11	0	0	0	0	514	528	178	516	38	0	
12	0	0	0	0	507	530	178	519	38	0	
13	0	0	0	0	505	531	177	521	38	0	
14	0	0	0	0	513	530	177	520	38	0	
15	0	0	0	0	509	530	178	518	38	0	
0	0	0	0	0	516	528	178	515	38	0	
1	0	0	0	0	509	526	178	514	38	0	
2	0	0	0	0	507	524	178	510	38	0	
3	0	0	0	0	506	524	177	508	38	0	
4	0	0	0	0	508	524	177	504	38	0	
5	0	0	0	0	507	524	178	502	38	0	
6	0	0	0	0	501	524	178	501	38	0	
7	0	0	0	0	503	524	178	501	38	0	
8	0	0	0	0	511	524	177	505	38	0	
9	0	0	0	0	511	524	177	508	38	0	
10	0	0	0	0	510	524	178	509	38	0	
11	0	0	0	0	509	523	178	512	38	0	
12	0	0	0	0	511	523	178	515	38	0	
13	0	0	0	0	511	524	177	520	38	0	
14	0	0	0	0	513	524	178	521	38	0	
15	0	0	0	0	509	524	178	519	38	0	
0	0	0	0	0	513	524	178	516	38	0	
1	0	0	0	0	507	522	177	513	38	0	
2	0	0	0	0	512	520	178	507	38	0	
3	0	0	0	0	507	519	178	505	38	0	
4	0	0	0	0	505	517	178	503	38	0	
5	0	0	0	0	504	517	178	502	38	0	
6	0	0	0	0	510	516	177	501	38	0	
7	0	0	0	0	506	516	178	513	38	0	
8	0	0	0	0	508	516	178	504	38	0	
9	0	0	0	0	509	517	178	505	38	0	
10	0	0	0	0	509	519	177	508	38	0	
11	0	0	0	0	502	519	177	508	38	0	
12	0	0	0	0	511	519	178	513	38	0	
13	0	0	0	0	514	518	178	519	38	0	
14	0	0	0	0	507	519	178	523	38	0	
15	0	0	0	0	516	518	177	524	38	0	
0	0	0	0	0	505	515	178	524	38	0	
1	0	0	0	0	511	515	178	521	38	0	
2	0	0	0	0	503	513	178	517	38	0	
3	0	0	0	0	509	511	177	513	38	0	
4	0	0	0	0	512	511	178	511	38	0	
5	0	0	0	0	512	511	178	508	38	0	
6	0	0	0	0	502	510	178	504	38	0	
7	0	0	0	0	504	507	177	503	38	0	
8	0	0	0	0	509	506	178	504	38	0	
9	0	0	0	0	511	505	178	506	38	0	
10	0	0	0	0	508	506	178	508	38	0	
11	0	0	0	0	508	507	177	514	38	0	
12	0	0	0	0	502	506	177	516	38	0	
13	0	0	0	0	507	505	178	517	38	0	
14	0	0	0	0	508	506	178	519	38	0	
15	0	0	0	0	513	505	177	518	38	0	
0	0	0	0	0	514	504	178	519	38	0	
1	0	0	0	0	504	504	178	517	38	0	
2	0	0	0	0	511	502	178	515	38	0	
3	0	0	0	0	513	501	177	514	38	0	
4	0	0	0	0	511	499	178	508	38	0	
5	0	0	0	0	506	498	178	506	38	0	
6	0	0	0	0	500	497	178	504	38	0	
7	0	0	0	0	501	496	178	503	38	0	
8	0	0	0	0	499	495	178	502	38	0	
9	0	0	0	0	510	494	178	504	38	0	
10	0	0	0	0	506	492	178	505	38	0	
11	0	0	0	0	514	492	177	507	38	0	
12	0	0	0	0	510	493	178	515	38	0	
13	0	0	0	0	508	494	178	513	38	0	
14	0	0	0	0	508	494	178	515	38	0	
15	0	0	0	0	510	495	178	515	38	0	
0	0	0	0	0	508	496	177	515	38	0	
1	0	0	0	0	515	494	178	515	38	0	
2	0	0	0	0	511	492	178	512	38	0	
3	0	0	0	0	510	489	178	510	38	0	
4	0	0	0	0	504	488	178	508	38	0	
5	0	0	0	0	507	486	178	507	38	0	
6	0	0	0	0	500	485	178	504	38	0	
7	0	0	0	0	515	484	178	504	38	0	
8	0	0	0	0	509	483	178	504	38	0	
9	0	0	0	0	503	484	177	507	38	0	
10	0	0	0	0	503	484	178	507	38	0	
11	0	0	0	0	512	486	178	507	38	0	
12	0	0	0	0	512	487	178	509	38	0	
13	0	0	0	0	504	488	177	512	38	0	
14	0	0	0	0	511	489	178	513	38	0	
15	0	0	0	0	513	490	178	514	38	0	
0	0	0	0	0	518	491	178	516	38	0	
1	0	0	0	0	512	492	178	516	38	0	
2	0	0	0	0	511	492	178	515	38	0	
3	0	0	0	0	509	490	178	514	38	0	
4	0	0	0	0	501	487	178	513	38	0	
5	0	0	0	0	512	486	177	511	38	0	
6	0	0	0	0	514	485	178	508	38	0	
7	0	0	0	0	505	486	178	507	38	0	
8	0	0	0	0	512	486	178	505	38	0	
9	0	0	0	0	502	486	178	505	38	0	
10	0	0	0	0	504	484	177	505	38	0	
11	0	0	0	0	507	484	178	509	38	0	
12	0	0	0	0	508	483	178	523	38	0	
13	0	0	0	0	508	484	178	540	38	0	
14	0	0	0	0	505	484	178	549	38	0	
15	0	0	0	0	512	484	178	551	38	0	
0	0	0	0	0	509	485	178	547	38	0	
1	0	0	0	0	515	486	178	545	38	0	
2	0	0	0	0	509	487	178	539	38	0	
3	0	0	0	0	508	487	178	532	38	0	
4	0	0	0	0	510	487	178	526	38	0	
5	0	0	0	0	512	487	178	524	38	0	
6	0	0	0	0	512	487	178	514	38	0	
7	0	0	0	0	504	488	178	510	38	0	
8	0	0	0	0	511	490	178	506	38	0	
9	0	0	0	0	502	491	178	505	38	0	
10	0	0	0	0	505	491	178	504	38	0	
11	0	0	0	0	509	491	178	503	38	0	
12	0	0	0	0	509	491	178	506	38	0	
13	0	0	0	0	512	491	178	510	38	0	
14	0	0	0	0	503	491	177	515	38	0	
15	0	0	0	0	508	492	178	518	38	0	
0	0	0	0	0	512	492	178	519	38	0	
1	0	0	0	0	513	492	178	518	38	0	
2	0	0	0	0	512	494	177	516	38	0	
3	0	0	0	0	514	495	178	513	38	0	
4	0	0	0	0	504	497	178	510	38	0	
5	0	0	0	0	499	496	178	508	38	0	
6	0	0	0	0	506	495	178	508	38	0	
7	0	0	0	0	505	493	178	511	38	0	
8	0	0	0	0	505	491	178	508	38	0	
9	0	0	0	0	504	491	178	508	38	0	
10	0	0	0	0	513	491	178	505	38	0	
11	0	0	0	0	509	491	178	507	38	0	
12	0	0	0	0	507	492	178	508	38	0	
13	0	0	0	0	506	494	177	508	38	0	
14	0	0	0	0	497	496	178	512	38	0	
15	0	0	0	0	507	495	178	515	38	0	
0	0	0	0	0	519	494	178	519	38	0	
1	0	0	0	0	508	494	178	525	38	0	
2	0	0	0	0	517	494	177	527	38	0	
3	0	0	0	0	504	495	178	525	38	0	
4	0	0	0	0	511	495	178	522	38	0	
5	0	0	0	0	506	494	178	523	38	0	
6	0	0	0	0	506	493	177	511	38	0	
7	0	0	0	0	516	493	178	508	38	0	
8	0	0	0	0	509	493	178	505	38	0	
9	0	0	0	0	503	492	178	505	38	0	
10	0	0	0	0	501	494	177	501	38	0	
11	0	0	0	0	500	494	178	500	38	0	
12	0	0	0	0	505	495	178	500	38	0	
13	0	0	0	0	508	496	178	503	38	0	
14	0	0	0	0	515	498	178	504	38	0	
15	0	0	0	0	511	499	178	507	38	0	
0	0	0	0	0	514	499	178	509	38	0	
1	0	0	0	0	514	498	178	510	38	0	
2	0	0	0	0	504	499	177	517	38	0	
3	0	0	0	0	513	498	178	513	38	0	
4	0	0	0	0	507	498	178	512	38	0	
5	0	0	0	0	508	497	178	512	38	0	
6	0	0	0	0	514	495	178	509	38	0	
7	0	0	0	0	508	493	178	508	38	0	
8	0	0	0	0	515	492	177	506	38	0	
9	0	0	0	0	508	492	178	505	38	0	
10	0	0	0	0	502	492	178	504	38	0	
11	0	0	0	0	504	492	178	504	38	0	
12	0	0	0	0	503	492	178	505	38	0	
13	0	0	0	0	506	494	177	505	38	0	
14	0	0	0	0	508	497	178	508	38	0	
15	0	0	0	0	516	498	178	511	38	0	
0	0	0	0	0	508	499	178	515	38	0	
1	0	0	0	0	507	499	178	519	38	0	
2	0	0	0	0	513	499	178	520	38	0	
3	0	0	0	0	507	499	178	521	38	0	
4	0	0	0	0	507	499	178	521	38	0	
5	0	0	0	0	514	499	178	520	38	0	
6	0	0	0	0	502	499	177	516	38	0	
7	0	0	0	0	504	499	178	512	38	0	
8	0	0	0	0	512	499	178	509	38	0	
9	0	0	0	0	503	499	178	506	38	0	
10	0	0	0	0	506	499	177	503	38	0	
11	0	0	0	0	504	499	178	502	38	0	
12	0	0	0	0	510	498	178	501	38	0	
13	0	0	0	0	506	499	178	502	38	0	
14	0	0	0	0	505	501	178	501	38	0	
15	0	0	0	0	507	504	177	505	38	0	
0	0	0	0	0	505	505	178	510	38	0	
1	0	0	0	0	513	506	178	512	38	0	
2	0	0	0	0	504	507	178	514	38	0	
3	0	0	0	0	512	508	178	515	38	0	
4	0	0	0	0	516	509	177	515	38	0	
5	0	0	0	0	505	509	177	516	38	0	
6	0	0	0	0	510	508	178	515	38	0	
7	0	0	0	0	508	506	178	513	38	0	
8	0	0	0	0	508	504	178	512	38	0	
9	0	0	0	0	513	503	178	510	38	0	
10	0	0	0	0	510	503	177	509	38	0	
11	0	0	0	0	513	502	178	507	38	0	
12	0	0	0	0	511	503	178	505	38	0	
13	0	0	0	0	504	501	178	505	38	0	
14	0	0	0	0	503	501	177	504	38	0	
15	0	0	0	0	500	502	178	504	38	0	
0	0	0	0	0	503	503	178	506	38	0	
1	0	0	0	0	507	502	177	510	38	0	
2	0	0	0	0	510	500	178	513	38	0	
3	0	0	0	0	507	499	178	514	38	0	
4	0	0	0	0	504	500	178	514	38	0	
5	0	0	0	0	510	500	177	515	38	0	
6	0	0	0	0	513	500	178	515	38	0	
7	0	0	0	0	509	499	178	513	38	0	
8	0	0	0	0	509	497	178	511	38	0	
9	0	0	0	0	510	496	177	509	38	0	
10	0	0	0	0	510	495	178	504	38	0	
11	0	0	0	0	501	496	178	502	38	0	
12	0	0	0	0	501	496	178	500	38	0	
13	0	0	0	0	514	497	177	501	38	0	
14	0	0	0	0	510	498	178	502	38	0	
15	0	0	0	0	505	499	178	501	38	0	
0	0	0	0	0	507	499	178	502	38	0	
1	0	0	0	0	511	499	177	504	38	0	
2	0	0	0	0	508	499	178	509	38	0	
3	0	0	0	0	507	499	178	513	38	0	
4	0	0	0	0	511	500	178	515	38	0	
5	0	0	0	0	520	500	178	518	38	0	
6	0	0	0	0	504	499	178	518	38	0	
7	0	0	0	0	514	499	178	515	38	0	
8	0	0	0	0	509	500	178	514	38	0	
9	0	0	0	0	500	500	177	512	38	0	
10	0	0	0	0	509	498	178	510	38	0	
11	0	0	0	0	505	497	178	507	38	0	
12	0	0	0	0	505	497	178	504	38	0	
13	0	0	0	0	506	496	178	503	38	0	
14	0	0	0	0	503	495	178	503	38	0	
15	0	0	0	0	502	494	178	503	38	0	
0	0	0	0	0	512	494	177	505	38	0	
1	0	0	0	0	508	494	178	510	38	0	
2	0	0	0	0	508	496	178	515	38	0	
3	0	0	0	0	506	496	178	520	38	0	
4	0	0	0	0	509	496	178	521	38	0	
5	0	0	0	0	511	496	178	520	38	0	
6	0	0	0	0	509	495	178	520	38	0	
7	0	0	0	0	510	494	178	520	38	0	
8	0	0	0	0	515	494	178	519	38	0	
9	0	0	0	0	512	494	178	516	38	0	
10	0	0	0	0	506	493	178	512	38	0	
11	0	0	0	0	505	492	177	510	38	0	
12	0	0	0	0	505	492	178	508	38	0	
13	0	0	0	0	506	491	178	504	38	0	
14	0	0	0	0	508	492	178	504	38	0	
15	0	0	0	0	508	492	178	505	38	0	
0	0	0	0	0	504	492	178	507	38	0	
1	0	0	0	0	506	492	178	511	38	0	
2	0	0	0	0	504	494	178	512	38	0	
3	0	0	0	0	507	494	177	515	38	0	
4	0	0	0	0	509	495	178	518	38	0	
5	0	0	0	0	515	496	178	518	38	0	
6	0	0	0	0	512	497	178	519	38	0	
7	0	0	0	0	515	500	177	519	38	0	
8	0	0	0	0	515	503	177	517	38	0	
9	0	0	0	0	503	503	178	516	38	0	
10	0	0	0	0	502	502	178	513	38	0	
11	0	0	0	0	508	501	178	510	38	0	
12	0	0	0	0	515	501	178	508	38	0	
13	0	0	0	0	505	499	177	505	38	0	
14	0	0	0	0	507	499	178	503	38	0	
15	0	0	0	0	505	499	178	502	38	0	
0	0	0	0	0	509	500	178	502	38	0	
1	0	0	0	0	500	502	177	502	38	0	
2	0	0	0	0	513	501	178	505	38	0	
3	0	0	0	0	513	503	178	510	38	0	
4	0	0	0	0	510	503	177	515	38	0	
5	0	0	0	0	501	503	178	519	38	0	
6	0	0	0	0	508	503	178	521	38	0	
7	0	0	0	0	513	504	178	524	38	0	
8	0	0	0	0	509	506	177	524	38	0	
9	0	0	0	0	515	506	178	521	38	0	
10	0	0	0	0	511	506	178	519	38	0	
11	0	0	0	0	509	504	177	515	38	0	
12	0	0	0	0	502	502	178	512	38	0	
13	0	0	0	0	502	501	178	508	38	0	
14	0	0	0	0	496	501	178	507	38	0	
15	0	0	0	0	507	504	177	504	38	0	
0	0	0	0	0	505	505	178	504	38	0	
1	0	0	0	0	508	507	178	503	38	0	
2	0	0	0	0	507	509	178	502	38	0	
3	0	0	0	0	509	512	177	504	38	0	
4	0	0	0	0	508	515	178	509	38	0	
5	0	0	0	0	511	514	178	516	38	0	
6	0	0	0	0	511	515	178	526	38	0	
7	0	0	0	0	509	515	178	532	38	0	
8	0	0	0	0	514	513	177	532	38	0	
9	0	0	0	0	512	513	178	532	38	0	
10	0	0	0	0	506	513	178	527	38	0	
11	0	0	0	0	505	513	178	525	38	0	
12	0	0	0	0	516	513	177	521	38	0	
13	0	0	0	0	504	512	177	515	38	0	
14	0	0	0	0	507	511	178	512	38	0	
15	0	0	0	0	505	510	178	514	38	0	
0	0	0	0	0	500	510	177	507	38	0	
1	0	0	0	0	506	511	178	506	38	0	
2	0	0	0	0	510	511	178	505	38	0	
3	0	0	0	0	505	513	178	508	38	0	
4	0	0	0	0	513	515	177	510	38	0	
5	0	0	0	0	508	517	178	519	38	0	
6	0	0	0	0	504	516	178	527	38	0	
7	0	0	0	0	508	516	178	534	38	0	
8	0	0	0	0	511	518	177	536	38	0	
9	0	0	0	0	513	518	178	535	38	0	
10	0	0	0	0	512	519	178	530	38	0	
11	0	0	0	0	509	517	178	525	38	0	
12	0	0	0	0	506	514	177	521	38	0	
13	0	0	0	0	505	512	178	516	38	0	
14	0	0	0	0	516	510	178	511	38	0	
15	0	0	0	0	504	508	178	505	38	0	
0	0	0	0	0	508	507	177	503	38	0	
1	0	0	0	0	503	505	178	500	38	0	
2	0	0	0	0	504	504	178	499	38	0	
3	0	0	0	0	508	504	178	500	38	0	
4	0	0	0	0	512	505	177	503	38	0	
5	0	0	0	0	517	509	177	505	38	0	
6	0	0	0	0	501	513	178	507	38	0	
7	0	0	0	0	503	515	178	511	38	0	
8	0	0	0	0	511	514	178	513	38	0	
9	0	0	0	0	512	513	177	513	38	0	
10	0	0	0	0	509	511	178	513	38	0	
11	0	0	0	0	509	511	178	512	38	0	
12	0	0	0	0	502	511	178	511	38	0	
13	0	0	0	0	505	513	177	511	38	0	
14	0	0	0	0	515	514	178	510	38	0	
15	0	0	0	0	504	515	178	507	38	0	
0	0	0	0	0	508	515	178	505	38	0	
1	0	0	0	0	506	516	178	503	38	0	
2	0	0	0	0	505	517	177	501	38	0	
3	0	0	0	0	511	515	177	501	38	0	
4	0	0	0	0	513	514	178	502	38	0	
5	0	0	0	0	505	515	178	503	38	0	
6	0	0	0	0	519	517	177	507	38	0	
7	0	0	0	0	502	519	177	509	38	0	
8	0	0	0	0	504	518	178	515	38	0	
9	0	0	0	0	506	519	178	520	38	0	
10	0	0	0	0	510	519	177	522	38	0	
11	0	0	0	0	508	519	178	522	38	0	
12	0	0	0	0	511	519	178	519	38	0	
13	0	0	0	0	511	520	178	515	38	0	
14	0	0	0	0	503	520	177	512	38	0	
15	0	0	0	0	510	518	178	508	38	0	
0	0	0	0	0	510	515	178	506	38	0	
1	0	0	0	0	503	514	178	503	38	0	
2	0	0	0	0	499	513	177	502	38	0	
3	0	0	0	0	509	511	178	499	38	0	
4	0	0	0	0	506	509	178	502	38	0	
5	0	0	0	0	511	508	178	503	38	0	
6	0	0	0	0	511	506	177	506	38	0	
7	0	0	0	0	507	506	178	510	38	0	
8	0	0	0	0	504	505	178	515	38	0	
9	0	0	0	0	513	504	178	515	38	0	
10	0	0	0	0	513	505	177	519	38	0	
11	0	0	0	0	506	507	177	518	38	0	
12	0	0	0	0	512	508	178	517	38	0	
13	0	0	0	0	518	507	178	515	38	0	
14	0	0	0	0	503	506	178	512	38	0	
15	0	0	0	0	511	504	177	510	38	0	
0	0	0	0	0	503	501	178	508	38	0	
1	0	0	0	0	508	499	178	505	38	0	
2	0	0	0	0	503	497	178	504	38	0	
3	0	0	0	0	503	497	177	503	38	0	
4	0	0	0	0	504	499	178	504	38	0	
5	0	0	0	0	510	502	178	503	38	0	
6	0	0	0	0	513	504	178	507	38	0	
7	0	0	0	0	512	506	178	509	38	0	
8	0	0	0	0	510	505	177	518	38	0	
9	0	0	0	0	509	504	177	524	38	0	
10	0	0	0	0	510	504	178	536	38	0	
11	0	0	0	0	513	504	178	524	38	0	
12	0	0	0	0	510	503	178	522	38	0	
13	0	0	0	0	513	503	177	519	38	0	
14	0	0	0	0	503	502	178	517	38	0	
15	0	0	0	0	506	500	178	513	38	0	
0	0	0	0	0	507	499	178	509	38	0	
1	0	0	0	0	508	499	177	507	38	0	
2	0	0	0	0	503	498	178	504	38	0	
3	0	0	0	0	498	497	178	503	38	0	
4	0	0	0	0	506	497	178	503	38	0	
5	0	0	0	0	507	497	178	503	38	0	
6	0	0	0	0	510	498	177	503	38	0	
7	0	0	0	0	510	498	177	504	38	0	
8	0	0	0	0	511	498	178	521	38	0	
9	0	0	0	0	510	498	178	515	38	0	
10	0	0	0	0	512	499	178	520	38	0	
11	0	0	0	0	505	500	177	521	38	0	
12	0	0	0	0	504	502	178	524	38	0	
13	0	0	0	0	512	504	178	524	38	0	
14	0	0	0	0	516	505	178	522	38	0	
15	0	0	0	0	508	504	177	519	38	0	
0	0	0	0	0	497	502	178	517	38	0	
1	0	0	0	0	510	500	178	512	38	0	
2	0	0	0	0	509	501	178	511	38	0	
3	0	0	0	0	503	502	177	506	38	0	
4	0	0	0	0	511	504	178	515	38	0	
5	0	0	0	0	504	505	178	506	38	0	
6	0	0	0	0	503	506	178	504	38	0	
7	0	0	0	0	503	506	177	505	38	0	
8	0	0	0	0	512	506	177	507	38	0	
9	0	0	0	0	505	508	177	512	38	0	
10	0	0	0	0	519	508	178	518	38	0	
11	0	0	0	0	518	508	178	519	38	0	
12	0	0	0	0	515	508	177	523	38	0	
13	0	0	0	0	506	509	177	523	38	0	
14	0	0	0	0	505	510	178	521	38	0	
15	0	0	0	0	511	511	178	520	38	0	
0	0	0	0	0	501	512	178	516	38	0	
1	0	0	0	0	505	511	177	513	38	0	
2	0	0	0	0	511	512	178	511	38	0	
3	0	0	0	0	508	513	178	509	38	0	
4	0	0	0	0	505	515	178	508	38	0	
5	0	0	0	0	505	516	178	508	38	0	
6	0	0	0	0	505	515	177	507	38	0	
7	0	0	0	0	506	514	178	505	38	0	
8	0	0	0	0	512	515	178	506	38	0	
9	0	0	0	0	507	518	178	508	38	0	
10	0	0	0	0	508	519	177	511	38	0	
11	0	0	0	0	508	520	178	513	38	0	
12	0	0	0	0	514	520	178	515	38	0	
13	0	0	0	0	515	521	178	516	38	0	
14	0	0	0	0	511	524	177	517	38	0	
15	0	0	0	0	514	524	178	516	38	0	
0	0	0	0	0	502	524	178	514	38	0	
1	0	0	0	0	502	523	178	511	38	0	
2	0	0	0	0	508	523	177	506	38	0	
3	0	0	0	0	509	523	178	504	38	0	
4	0	0	0	0	508	523	178	501	38	0	
5	0	0	0	0	504	524	178	501	38	0	
6	0	0	0	0	503	523	177	502	38	0	
7	0	0	0	0	504	523	178	502	38	0	
8	0	0	0	0	504	524	178	503	38	0	
9	0	0	0	0	509	524	178	505	38	0	
10	0	0	0	0	509	526	177	507	38	0	
11	0	0	0	0	507	527	178	508	38	0	
12	0	0	0	0	519	529	178	509	38	0	
13	0	0	0	0	508	531	178	511	38	0	
14	0	0	0	0	506	533	177	512	38	0	
15	0	0	0	0	519	534	178	516	38	0	
0	0	0	0	0	511	535	178	513	38	0	
1	0	0	0	0	501	535	178	512	38	0	
2	0	0	0	0	505	535	177	509	38	0	
3	0	0	0	0	514	536	177	507	38	0	
4	0	0	0	0	504	536	178	502	38	0	
5	0	0	0	0	494	536	178	500	38	0	
6	0	0	0	0	502	535	177	498	38	0	
7	0	0	0	0	510	533	177	498	38	0	
8	0	0	0	0	514	531	178	497	38	0	
9	0	0	0	0	507	531	178	502	38	0	
10	0	0	0	0	502	532	178	502	38	0	
11	0	0	0	0	512	533	177	519	38	0	
12	0	0	0	0	511	533	178	514	38	0	
13	0	0	0	0	519	531	178	520	38	0	
14	0	0	0	0	509	530	177	522	38	0	
15	0	0	0	0	508	528	177	521	38	0	
0	0	0	0	0	508	527	178	520	38	0	
1	0	0	0	0	517	526	178	518	38	0	
2	0	0	0	0	508	525	177	514	38	0	
3	0	0	0	0	502	524	178	510	38	0	
4	0	0	0	0	504	522	178	509	38	0	
5	0	0	0	0	509	521	178	505	38	0	
6	0	0	0	0	510	520	178	501	38	0	
7	0	0	0	0	513	519	177	500	38	0	
8	0	0	0	0	506	518	178	501	38	0	
9	0	0	0	0	501	518	178	501	38	0	
10	0	0	0	0	511	518	178	505	38	0	
11	0	0	0	0	508	519	177	508	38	0	
12	0	0	0	0	505	520	177	512	38	0	
13	0	0	0	0	508	521	178	516	38	0	
14	0	0	0	0	515	521	178	519	38	0	
15	0	0	0	0	507	522	178	521	38	0	
0	0	0	0	0	505	524	177	523	38	0	
1	0	0	0	0	515	524	178	522	38	0	
2	0	0	0	0	506	524	178	519	38	0	
3	0	0	0	0	511	523	178	516	38	0	
4	0	0	0	0	508	522	177	514	38	0	
5	0	0	0	0	510	521	177	512	38	0	
6	0	0	0	0	510	521	178	510	38	0	
7	0	0	0	0	506	523	178	508	38	0	
8	0	0	0	0	504	523	178	508	38	0	
9	0	0	0	0	506	523	177	509	38	0	
10	0	0	0	0	509	524	178	509	38	0	
11	0	0	0	0	508	526	178	510	38	0	
12	0	0	0	0	510	527	178	511	38	0	
13	0	0	0	0	510	527	177	513	38	0	
14	0	0	0	0	514	527	178	521	38	0	
15	0	0	0	0	508	527	178	526	38	0	
0	0	0	0	0	510	528	178	528	38	0	
1	0	0	0	0	512	529	177	529	38	0	
2	0	0	0	0	510	530	177	529	38	0	
3	0	0	0	0	503	529	178	526	38	0	
4	0	0	0	0	507	529	178	523	38	0	
5	0	0	0	0	511	529	178	516	38	0	
6	0	0	0	0	507	531	177	512	38	0	
7	0	0	0	0	499	531	177	508	38	0	
8	0	0	0	0	500	532	178	507	38	0	
9	0	0	0	0	508	531	178	504	38	0	
10	0	0	0	0	506	529	178	503	38	0	
11	0	0	0	0	504	528	178	505	38	0	
12	0	0	0	0	511	527	177	508	38	0	
13	0	0	0	0	508	527	177	516	38	0	
14	0	0	0	0	506	528	177	523	38	0	
15	0	0	0	0	512	528	178	527	38	0	
0	0	0	0	0	514	528	178	530	38	0	
1	0	0	0	0	515	528	178	528	38	0	
2	0	0	0	0	512	527	177	526	38	0	
3	0	0	0	0	511	524	178	521	38	0	
4	0	0	0	0	512	521	178	517	38	0	
5	0	0	0	0	504	519	178	513	38	0	
6	0	0	0	0	508	517	177	508	38	0	
7	0	0	0	0	505	516	177	505	38	0	
8	0	0	0	0	497	514	178	501	38	0	
9	0	0	0	0	510	512	178	502	38	0	
10	0	0	0	0	507	511	177	501	38	0	
11	0	0	0	0	510	511	177	501	38	0	
12	0	0	0	0	509	510	178	504	38	0	
13	0	0	0	0	504	510	178	509	38	0	
14	0	0	0	0	506	510	178	512	38	0	
15	0	0	0	0	508	510	177	515	38	0	
0	0	0	0	0	507	508	178	515	38	0	
1	0	0	0	0	510	508	178	515	38	0	
2	0	0	0	0	514	508	178	513	38	0	
3	0	0	0	0	511	508	177	513	38	0	
4	0	0	0	0	499	509	178	510	38	0	
5	0	0	0	0	507	508	178	508	38	0	
6	0	0	0	0	512	507	178	504	38	0	
7	0	0	0	0	508	507	178	502	38	0	
8	0	0	0	0	506	506	177	499	38	0	
9	0	0	0	0	502	505	178	499	38	0	
10	0	0	0	0	510	505	178	499	38	0	
11	0	0	0	0	507	504	178	500	38	0	
12	0	0	0	0	499	504	177	499	38	0	
13	0	0	0	0	516	505	178	504	38	0	
14	0	0	0	0	515	507	178	506	38	0	
15	0	0	0	0	509	507	177	511	38	0	
0	0	0	0	0	505	507	178	514	38	0	
1	0	0	0	0	506	507	178	516	38	0	
2	0	0	0	0	510	508	178	516	38	0	
3	0	0	0	0	517	509	177	516	38	0	
4	0	0	0	0	517	509	178	514	38	0	
5	0	0	0	0	506	509	178	512	38	0	
6	0	0	0	0	504	507	178	510	38	0	
7	0	0	0	0	511	506	177	509	38	0	
8	0	0	0	0	502	505	177	507	38	0	
9	0	0	0	0	503	505	178	505	38	0	
10	0	0	0	0	510	507	178	503	38	0	
11	0	0	0	0	509	508	178	504	38	0	
12	0	0	0	0	511	508	177	502	38	0	
13	0	0	0	0	508	509	177	504	38	0	
14	0	0	0	0	511	509	178	507	38	0	
15	0	0	0	0	504	511	178	511	38	0	
0	0	0	0	0	503	511	178	517	38	0	
1	0	0	0	0	511	512	177	518	38	0	
2	0	0	0	0	512	515	177	521	38	0	
3	0	0	0	0	515	517	177	521	38	0	
4	0	0	0	0	511	519	178	521	38	0	
5	0	0	0	0	510	519	178	521	38	0	
6	0	0	0	0	505	519	178	517	38	0	
7	0	0	0	0	504	519	178	514	38	0	
8	0	0	0	0	513	519	177	510	38	0	
9	0	0	0	0	513	519	177	508	38	0	
10	0	0	0	0	506	520	178	505	38	0	
11	0	0	0	0	494	522	178	504	38	0	
12	0	0	0	0	500	524	178	503	38	0	
13	0	0	0	0	512	525	177	504	38	0	
14	0	0	0	0	507	526	178	506	38	0	
15	0	0	0	0	512	529	178	509	38	0	
0	0	0	0	0	503	532	178	512	38	0	
1	0	0	0	0	512	533	178	514	38	0	
2	0	0	0	0	503	534	177	516	38	0	
3	0	0	0	0	508	536	177	518	38	0	
4	0	0	0	0	515	538	178	521	38	0	
5	0	0	0	0	505	539	178	519	38	0	
6	0	0	0	0	508	537	177	519	38	0	
7	0	0	0	0	515	536	177	518	38	0	
8	0	0	0	0	510	534	177	514	38	0	
9	0	0	0	0	511	533	178	513	38	0	
10	0	0	0	0	511	532	178	510	38	0	
11	0	0	0	0	501	531	178	508	38	0	
12	0	0	0	0	506	530	178	506	38	0	
13	0	0	0	0	501	528	178	505	38	0	
14	0	0	0	0	502	529	177	507	38	0	
15	0	0	0	0	511	531	178	506	38	0	
0	0	0	0	0	508	532	178	508	38	0	
1	0	0	0	0	504	532	178	511	38	0	
2	0	0	0	0	510	532	177	513	38	0	
3	0	0	0	0	512	531	178	521	38	0	
4	0	0	0	0	514	531	178	514	38	0	
5	0	0	0	0	513	531	178	515	38	0	
6	0	0	0	0	515	532	177	512	38	0	
7	0	0	0	0	508	531	178	511	38	0	
8	0	0	0	0	506	530	178	508	38	0	
9	0	0	0	0	504	529	178	505	38	0	
10	0	0	0	0	505	527	177	505	38	0	
11	0	0	0	0	508	526	177	503	38	0	
12	0	0	0	0	508	526	177	502	38	0	
13	0	0	0	0	502	525	177	502	38	0	
14	0	0	0	0	505	524	178	501	38	0	
15	0	0	0	0	511	522	178	501	38	0	
0	0	0	0	0	505	522	178	511	38	0	
1	0	0	0	0	507	524	178	506	38	0	
2	0	0	0	0	504	525	178	509	38	0	
3	0	0	0	0	507	525	177	511	38	0	
4	0	0	0	0	517	525	177	513	38	0	
5	0	0	0	0	512	526	178	515	38	0	
6	0	0	0	0	511	526	178	514	38	0	
7	0	0	0	0	504	526	178	513	38	0	
8	0	0	0	0	512	527	178	511	38	0	
9	0	0	0	0	507	526	178	508	38	0	
10	0	0	0	0	511	525	177	504	38	0	
11	0	0	0	0	504	524	177	503	38	0	
12	0	0	0	0	500	523	178	501	38	0	
13	0	0	0	0	505	522	178	500	38	0	
14	0	0	0	0	513	522	178	502	38	0	
15	0	0	0	0	506	522	178	501	38	0	
0	0	0	0	0	510	523	178	504	38	0	
1	0	0	0	0	505	525	177	508	38	0	
2	0	0	0	0	507	526	178	511	38	0	
3	0	0	0	0	505	526	178	516	38	0	
4	0	0	0	0	513	525	178	520	38	0	
5	0	0	0	0	508	525	178	520	38	0	
6	0	0	0	0	510	525	178	520	38	0	
7	0	0	0	0	510	525	178	520	38	0	
8	0	0	0	0	504	524	177	519	38	0	
9	0	0	0	0	505	522	177	516	38	0	
10	0	0	0	0	509	521	177	514	38	0	
11	0	0	0	0	511	520	177	511	38	0	
12	0	0	0	0	513	519	177	507	38	0	
13	0	0	0	0	510	519	178	504	38	0	
14	0	0	0	0	507	516	178	500	38	0	
15	0	0	0	0	511	515	178	498	38	0	
0	0	0	0	0	505	515	178	500	38	0	
1	0	0	0	0	505	516	177	503	38	0	
2	0	0	0	0	516	517	177	505	38	0	
3	0	0	0	0	506	516	178	509	38	0	
4	0	0	0	0	505	515	178	513	38	0	
5	0	0	0	0	511	514	178	515	38	0	
6	0	0	0	0	504	513	178	516	38	0	
7	0	0	0	0	509	512	177	518	38	0	
8	0	0	0	0	505	511	177	516	38	0	
9	0	0	0	0	510	511	177	515	38	0	
10	0	0	0	0	503	510	178	513	38	0	
11	0	0	0	0	515	508	178	510	38	0	
12	0	0	0	0	513	508	178	509	38	0	
13	0	0	0	0	507	506	178	506	38	0	
14	0	0	0	0	508	504	178	504	38	0	
15	0	0	0	0	512	504	177	503	38	0	
0	0	0	0	0	502	504	177	503	38	0	
1	0	0	0	0	504	504	177	505	38	0	
2	0	0	0	0	512	506	177	507	38	0	
3	0	0	0	0	503	508	177	516	38	0	
4	0	0	0	0	505	509	178	524	38	0	
5	0	0	0	0	513	508	178	528	38	0	
6	0	0	0	0	514	510	178	526	38	0	
7	0	0	0	0	511	510	178	524	38	0	
8	0	0	0	0	510	511	178	523	38	0	
9	0	0	0	0	496	512	178	520	38	0	
10	0	0	0	0	508	511	178	519	38	0	
11	0	0	0	0	506	509	178	515	38	0	
12	0	0	0	0	508	507	178	511	38	0	
13	0	0	0	0	509	504	178	507	38	0	
14	0	0	0	0	504	504	178	505	38	0	
15	0	0	0	0	508	503	178	504	38	0	
0	0	0	0	0	504	502	177	506	38	0	
1	0	0	0	0	517	502	177	507	38	0	
2	0	0	0	0	512	503	177	509	38	0	
3	0	0	0	0	508	505	178	512	38	0	
4	0	0	0	0	508	506	178	514	38	0	
5	0	0	0	0	507	505	178	516	38	0	
6	0	0	0	0	513	504	178	516	38	0	
7	0	0	0	0	515	505	178	517	38	0	
8	0	0	0	0	513	506	177	516	38	0	
9	0	0	0	0	505	506	177	514	38	0	
10	0	0	0	0	508	505	177	512	38	0	
11	0	0	0	0	510	504	177	511	38	0	
12	0	0	0	0	505	503	178	507	38	0	
13	0	0	0	0	501	504	178	505	38	0	
14	0	0	0	0	501	503	178	504	38	0	
15	0	0	0	0	508	504	178	504	38	0	
0	0	0	0	0	502	503	178	504	38	0	
1	0	0	0	0	505	503	177	504	38	0	
2	0	0	0	0	505	504	177	505	38	0	
3	0	0	0	0	516	506	178	508	38	0	
4	0	0	0	0	508	508	178	511	38	0	
5	0	0	0	0	501	508	178	514	38	0	
6	0	0	0	0	504	508	178	519	38	0	
7	0	0	0	0	511	508	178	520	38	0	
8	0	0	0	0	517	508	177	523	38	0	
9	0	0	0	0	514	509	177	522	38	0	
10	0	0	0	0	508	509	178	520	38	0	
11	0	0	0	0	505	509	178	515	38	0	
12	0	0	0	0	507	509	178	512	38	0	
13	0	0	0	0	513	509	178	512	38	0	
14	0	0	0	0	511	511	178	506	38	0	
15	0	0	0	0	504	511	178	505	38	0	
0	0	0	0	0	511	512	178	512	38	0	
1	0	0	0	0	496	512	177	503	38	0	
2	0	0	0	0	502	512	177	501	38	0	
3	0	0	0	0	514	512	177	501	38	0	
4	0	0	0	0	516	513	178	504	38	0	
5	0	0	0	0	510	514	178	510	38	0	
6	0	0	0	0	508	515	178	526	38	0	
7	0	0	0	0	514	515	177	516	38	0	
8	0	0	0	0	510	515	177	515	38	0	
9	0	0	0	0	512	515	177	523	38	0	
10	0	0	0	0	513	516	178	511	38	0	
11	0	0	0	0	512	517	178	511	38	0	
12	0	0	0	0	504	516	178	510	38	0	
13	0	0	0	0	499	515	178	507	38	0	
14	0	0	0	0	508	513	178	505	38	0	
15	0	0	0	0	506	513	177	504	38	0	
0	0	0	0	0	504	511	177	504	38	0	
1	0	0	0	0	508	510	178	505	38	0	
2	0	0	0	0	506	511	178	505	38	0	
3	0	0	0	0	508	512	178	505	38	0	
4	0	0	0	0	505	513	178	510	38	0	
5	0	0	0	0	510	515	177	514	38	0	
6	0	0	0	0	505	515	177	517	38	0	
7	0	0	0	0	512	516	178	520	38	0	
8	0	0	0	0	513	517	178	524	38	0	
9	0	0	0	0	511	518	178	525	38	0	
10	0	0	0	0	508	519	177	525	38	0	
11	0	0	0	0	512	519	177	524	38	0	
12	0	0	0	0	508	519	177	520	38	0	
13	0	0	0	0	509	519	178	515	38	0	
14	0	0	0	0	507	518	178	513	38	0	
15	0	0	0	0	508	518	178	510	38	0	
0	0	0	0	0	508	517	178	508	38	0	
1	0	0	0	0	507	517	178	508	38	0	
2	0	0	0	0	506	516	178	508	38	0	
3	0	0	0	0	507	515	178	509	38	0	
4	0	0	0	0	507	513	177	508	38	0	
5	0	0	0	0	512	513	177	509	38	0	
6	0	0	0	0	513	513	178	511	38	0	
7	0	0	0	0	501	513	178	512	38	0	
8	0	0	0	0	504	513	178	520	38	0	
9	0	0	0	0	510	512	177	525	38	0	
10	0	0	0	0	509	513	177	527	38	0	
11	0	0	0	0	507	516	178	528	38	0	
12	0	0	0	0	507	517	178	524	38	0	
13	0	0	0	0	507	516	178	522	38	0	
14	0	0	0	0	514	515	178	518	38	0	
15	0	0	0	0	509	514	178	513	38	0	
0	0	0	0	0	508	514	177	509	38	0	
1	0	0	0	0	508	513	177	512	38	0	
2	0	0	0	0	506	512	178	503	38	0	
3	0	0	0	0	502	511	178	502	38	0	
4	0	0	0	0	500	511	178	504	38	0	
5	0	0	0	0	509	513	178	505	38	0	
6	0	0	0	0	513	515	177	506	38	0	
7	0	0	0	0	511	516	177	522	38	0	
8	0	0	0	0	510	516	178	512	38	0	
9	0	0	0	0	517	515	178	514	38	0	
10	0	0	0	0	515	516	178	520	38	0	
11	0	0	0	0	508	516	178	516	38	0	
12	0	0	0	0	511	516	177	518	38	0	
13	0	0	0	0	508	516	177	520	38	0	
14	0	0	0	0	499	516	178	516	38	0	
15	0	0	0	0	507	517	178	513	38	0	
0	0	0	0	0	515	515	178	508	38	0	
1	0	0	0	0	507	513	178	508	38	0	
2	0	0	0	0	502	512	178	507	38	0	
3	0	0	0	0	504	512	177	504	38	0	
4	0	0	0	0	505	512	177	504	38	0	
5	0	0	0	0	500	514	178	504	38	0	
6	0	0	0	0	511	515	178	504	38	0	
7	0	0	0	0	512	516	178	508	38	0	
8	0	0	0	0	509	517	178	510	38	0	
9	0	0	0	0	511	519	177	513	38	0	
10	0	0	0	0	515	519	177	516	38	0	
11	0	0	0	0	514	519	177	520	38	0	
12	0	0	0	0	506	520	178	521	38	0	
13	0	0	0	0	512	522	178	520	38	0	
14	0	0	0	0	506	522	178	518	38	0	
15	0	0	0	0	504	521	177	514	38	0	
0	0	0	0	0	499	520	177	512	38	0	
1	0	0	0	0	507	521	177	510	38	0	
2	0	0	0	0	502	522	178	506	38	0	
3	0	0	0	0	505	522	178	505	38	0	
4	0	0	0	0	510	521	178	504	38	0	
5	0	0	0	0	509	520	178	503	38	0	
6	0	0	0	0	508	521	178	502	38	0	
7	0	0	0	0	509	522	177	504	38	0	
8	0	0	0	0	507	525	177	505	38	0	
9	0	0	0	0	514	527	178	510	38	0	
10	0	0	0	0	510	527	178	515	38	0	
11	0	0	0	0	508	528	178	516	38	0	
12	0	0	0	0	507	529	177	517	38	0	
13	0	0	0	0	511	531	177	519	38	0	
14	0	0	0	0	510	533	177	517	38	0	
15	0	0	0	0	506	535	178	516	38	0	
0	0	0	0	0	502	535	178	513	38	0	
1	0	0	0	0	510	536	177	509	38	0	
2	0	0	0	0	507	537	177	508	38	0	
3	0	0	0	0	503	538	177	507	38	0	
4	0	0	0	0	512	540	178	504	38	0	
5	0	0	0	0	505	541	178	505	38	0	
6	0	0	0	0	503	543	178	504	38	0	
7	0	0	0	0	512	544	178	505	38	0	
8	0	0	0	0	512	545	178	506	38	0	
9	0	0	0	0	514	547	177	510	38	0	
10	0	0	0	0	499	545	177	515	38	0	
11	0	0	0	0	508	540	178	517	38	0	
12	0	0	0	0	513	536	178	519	38	0	
13	0	0	0	0	514	531	178	519	38	0	
14	0	0	0	0	508	525	178	518	38	0	
15	0	0	0	0	508	521	178	516	38	0	
0	0	0	0	0	506	516	177	516	38	0	
1	0	0	0	0	504	509	177	510	38	0	
2	0	0	0	0	511	500	178	507	38	0	
3	0	0	0	0	512	494	178	505	38	0	
4	0	0	0	0	504	488	178	502	38	0	
5	0	0	0	0	508	484	178	500	38	0	
6	0	0	0	0	507	482	177	500	38	0	
7	0	0	0	0	504	479	177	501	38	0	
8	0	0	0	0	506	475	178	502	38	0	
9	0	0	0	0	511	472	178	504	38	0	
10	0	0	0	0	507	468	178	506	38	0	
11	0	0	0	0	505	465	178	511	38	0	
12	0	0	0	0	507	462	177	516	38	0	
13	0	0	0	0	512	459	177	519	38	0	
14	0	0	0	0	508	457	177	523	38	0	
15	0	0	0	0	508	455	178	521	38	0	
0	0	0	0	0	513	455	178	521	38	0	
1	0	0	0	0	514	453	178	525	38	0	
2	0	0	0	0	508	450	178	516	38	0	
3	0	0	0	0	510	448	178	512	38	0	
4	0	0	0	0	509	447	178	514	38	0	
5	0	0	0	0	502	444	178	508	38	0	
6	0	0	0	0	503	442	178	507	38	0	
7	0	0	0	0	503	441	178	517	38	0	
8	0	0	0	0	508	441	178	508	38	0	
9	0	0	0	0	511	443	178	510	38	0	
10	0	0	0	0	509	447	177	515	38	0	
11	0	0	0	0	501	452	178	519	38	0	
12	0	0	0	0	507	457	178	525	38	0	
13	0	0	0	0	512	462	178	528	38	0	
14	0	0	0	0	511	466	178	528	38	0	
15	0	0	0	0	510	472	178	528	38	0	
0	0	0	0	0	511	476	177	526	38	0	
1	0	0	0	0	505	479	178	522	38	0	
2	0	0	0	0	504	482	178	518	38	0	
3	0	0	0	0	516	485	178	513	38	0	
4	0	0	0	0	505	487	178	508	38	0	
5	0	0	0	0	499	489	178	505	38	0	
6	0	0	0	0	507	493	178	505	38	0	
7	0	0	0	0	506	495	178	506	38	0	
8	0	0	0	0	505	497	177	504	38	0	
9	0	0	0	0	511	500	177	505	38	0	
10	0	0	0	0	501	503	178	507	38	0	
11	0	0	0	0	505	505	178	511	38	0	
12	0	0	0	0	508	507	178	516	38	0	
13	0	0	0	0	511	508	178	519	38	0	
14	0	0	0	0	508	511	177	519	38	0	
15	0	0	0	0	510	513	177	520	38	0	
0	0	0	0	0	514	514	178	519	38	0	
1	0	0	0	0	512	516	178	519	38	0	
2	0	0	0	0	505	516	178	517	38	0	
3	0	0	0	0	502	515	177	515	38	0	
4	0	0	0	0	513	516	177	513	38	0	
5	0	0	0	0	510	516	178	509	38	0	
6	0	0	0	0	495	515	178	507	38	0	
7	0	0	0	0	506	516	178	506	38	0	
8	0	0	0	0	514	516	177	505	38	0	
9	0	0	0	0	503	516	177	505	38	0	
10	0	0	0	0	512	517	177	507	38	0	
11	0	0	0	0	512	519	178	511	38	0	
12	0	0	0	0	508	520	178	514	38	0	
13	0	0	0	0	511	521	178	518	38	0	
14	0	0	0	0	507	521	177	521	38	0	
15	0	0	0	0	509	522	177	523	38	0	
0	0	0	0	0	506	523	178	522	38	0	
1	0	0	0	0	502	522	178	521	38	0	
2	0	0	0	0	508	523	178	519	38	0	
3	0	0	0	0	499	522	177	514	38	0	
4	0	0	0	0	505	522	177	511	38	0	
5	0	0	0	0	514	520	178	508	38	0	
6	0	0	0	0	512	519	178	504	38	0	
7	0	0	0	0	504	518	178	504	38	0	
8	0	0	0	0	504	516	178	504	38	0	
9	0	0	0	0	508	514	178	507	38	0	
10	0	0	0	0	505	513	178	504	38	0	
11	0	0	0	0	510	513	177	504	38	0	
12	0	0	0	0	512	514	177	505	38	0	
13	0	0	0	0	513	514	177	507	38	0	
14	0	0	0	0	505	515	178	516	38	0	
15	0	0	0	0	508	515	178	524	38	0	
0	0	0	0	0	508	515	178	525	38	0	
1	0	0	0	0	517	517	177	526	38	0	
2	0	0	0	0	514	517	177	524	38	0	
3	0	0	0	0	512	515	177	520	38	0	
4	0	0	0	0	507	514	178	517	38	0	
5	0	0	0	0	510	512	178	513	38	0	
6	0	0	0	0	506	512	178	510	38	0	
7	0	0	0	0	509	510	178	506	38	0	
8	0	0	0	0	499	509	177	505	38	0	
9	0	0	0	0	510	510	177	505	38	0	
10	0	0	0	0	503	509	177	503	38	0	
11	0	0	0	0	507	509	178	505	38	0	
12	0	0	0	0	512	510	178	508	38	0	
13	0	0	0	0	510	511	178	517	38	0	
14	0	0	0	0	506	511	178	519	38	0	
15	0	0	0	0	509	511	177	524	38	0	
0	0	0	0	0	516	511	177	526	38	0	
1	0	0	0	0	505	511	177	525	38	0	
2	0	0	0	0	507	512	178	524	38	0	
3	0	0	0	0	509	511	178	523	38	0	
4	0	0	0	0	511	509	178	531	38	0	
5	0	0	0	0	508	509	177	517	38	0	
6	0	0	0	0	511	507	177	514	38	0	
7	0	0	0	0	506	507	177	510	38	0	
8	0	0	0	0	508	508	178	507	38	0	
9	0	0	0	0	503	508	178	504	38	0	
10	0	0	0	0	508	505	178	504	38	0	
11	0	0	0	0	505	504	177	503	38	0	
12	0	0	0	0	508	504	177	510	38	0	
13	0	0	0	0	515	504	178	516	38	0	
14	0	0	0	0	504	505	178	519	38	0	
15	0	0	0	0	507	508	178	524	38	0	
0	0	0	0	0	511	508	178	526	38	0	
1	0	0	0	0	514	509	177	527	38	0	
2	0	0	0	0	508	510	177	527	38	0	
3	0	0	0	0	516	510	178	524	38	0	
4	0	0	0	0	510	510	178	521	38	0	
5	0	0	0	0	508	510	178	517	38	0	
6	0	0	0	0	506	508	177	512	38	0	
7	0	0	0	0	508	509	177	508	38	0	
8	0	0	0	0	511	510	178	504	38	0	
9	0	0	0	0	502	510	178	503	38	0	
10	0	0	0	0	507	509	178	500	38	0	
11	0	0	0	0	504	508	177	499	38	0	
12	0	0	0	0	512	508	177	498	38	0	
13	0	0	0	0	512	508	178	498	38	0	
14	0	0	0	0	508	509	178	500	38	0	
15	0	0	0	0	508	510	178	503	38	0	
0	0	0	0	0	503	510	178	505	38	0	
1	0	0	0	0	508	510	177	508	38	0	
2	0	0	0	0	519	509	177	508	38	0	
3	0	0	0	0	504	510	178	510	38	0	
4	0	0	0	0	513	509	178	512	38	0	
5	0	0	0	0	501	508	178	511	38	0	
6	0	0	0	0	507	506	178	508	38	0	
7	0	0	0	0	512	504	178	506	38	0	
8	0	0	0	0	516	503	177	504	38	0	
9	0	0	0	0	501	500	177	504	38	0	
10	0	0	0	0	502	501	177	504	38	0	
11	0	0	0	0	507	502	177	504	38	0	
12	0	0	0	0	512	503	178	503	38	0	
13	0	0	0	0	511	504	178	505	38	0	
14	0	0	0	0	508	507	178	505	38	0	
15	0	0	0	0	502	509	178	511	38	0	
0	0	0	0	0	502	510	177	515	38	0	
1	0	0	0	0	511	509	177	519	38	0	
2	0	0	0	0	512	509	177	519	38	0	
3	0	0	0	0	512	510	178	519	38	0	
4	0	0	0	0	513	510	178	520	38	0	
5	0	0	0	0	511	509	178	520	38	0	
6	0	0	0	0	510	508	177	519	38	0	
7	0	0	0	0	511	507	177	517	38	0	
8	0	0	0	0	505	505	178	515	38	0	
9	0	0	0	0	506	505	178	512	38	0	
10	0	0	0	0	504	505	177	509	38	0	
11	0	0	0	0	505	504	177	510	38	0	
12	0	0	0	0	503	503	178	507	38	0	
13	0	0	0	0	504	502	177	506	38	0	
14	0	0	0	0	510	502	177	510	38	0	
15	0	0	0	0	510	503	178	512	38	0	
0	0	0	0	0	508	502	178	519	38	0	
1	0	0	0	0	510	503	177	526	38	0	
2	0	0	0	0	514	504	178	526	38	0	
3	0	0	0	0	515	504	178	529	38	0	
4	0	0	0	0	513	504	178	531	38	0	
5	0	0	0	0	511	505	178	530	38	0	
6	0	0	0	0	499	505	177	527	38	0	
7	0	0	0	0	500	504	177	522	38	0	
8	0	0	0	0	512	504	178	515	38	0	
9	0	0	0	0	509	504	178	510	38	0	
10	0	0	0	0	510	504	178	506	38	0	
11	0	0	0	0	496	504	177	504	38	0	
12	0	0	0	0	500	503	178	503	38	0	
13	0	0	0	0	503	502	178	502	38	0	
14	0	0	0	0	509	503	177	500	38	0	
15	0	0	0	0	515	504	177	504	38	0	
0	0	0	0	0	516	505	178	515	38	0	
1	0	0	0	0	511	505	178	508	38	0	
2	0	0	0	0	509	508	177	511	38	0	
3	0	0	0	0	513	508	177	511	38	0	
