# OpenSignals Text File Format. Version 1
# {"98:D3:B1:FD:3D:90": {"position": 0, "device": "bitalino_rev", "device name": "98:D3:B1:FD:3D:90", "device connection": "/dev/tty.BITalino-DevB", "sampling rate": 1000, "resolution": [4, 1, 1, 1, 1, 10, 10, 10, 10, 6, 6], "firmware version": 1281, "comments": "", "keywords": "", "mode": 0, "sync interval": 2, "date": "2022-4-6", "time": "22:36:10.610", "channels": [1, 2, 3, 4, 5, 6], "sensor": ["RAW", "ECGBIT", "EDABITREV", "RAW", "RAW", "RAW"], "label": ["A1", "A2", "A3", "A4", "A5", "A6"], "column": ["nSeq", "I1", "I2", "O1", "O2", "A1", "A2", "A3", "A4", "A5", "A6"], "special": [{}, {}, {}, {}, {}, {}], "digital IO": [0, 0, 1, 1]}}
# EndOfHeader
0	0	0	0	0	501	577	315	515	38	0	
1	0	0	0	0	511	571	315	513	38	0	
2	0	0	0	0	508	566	315	509	38	0	
3	0	0	0	0	515	563	315	507	38	0	
4	0	0	0	0	512	561	315	504	38	0	
5	0	0	0	0	521	561	315	504	38	0	
6	0	0	0	0	517	563	315	504	38	0	
7	0	0	0	0	516	570	315	508	38	0	
8	0	0	0	0	508	577	315	512	38	0	
9	0	0	0	0	508	585	314	516	38	0	
10	0	0	0	0	508	590	315	518	38	0	
11	0	0	0	0	504	594	315	519	38	0	
12	0	0	0	0	508	598	315	519	38	0	
13	0	0	0	0	499	600	315	518	38	0	
14	0	0	0	0	488	597	314	517	38	0	
15	0	0	0	0	499	593	315	516	38	0	
0	0	0	0	0	504	586	315	515	38	0	
1	0	0	0	0	503	579	315	509	38	0	
2	0	0	0	0	518	574	315	507	38	0	
3	0	0	0	0	515	569	315	503	38	0	
4	0	0	0	0	510	568	315	503	38	0	
5	0	0	0	0	516	566	315	503	38	0	
6	0	0	0	0	520	568	315	504	38	0	
7	0	0	0	0	516	571	315	505	38	0	
8	0	0	0	0	516	577	315	507	38	0	
9	0	0	0	0	517	585	315	510	38	0	
10	0	0	0	0	504	592	315	516	38	0	
11	0	0	0	0	499	598	315	521	38	0	
12	0	0	0	0	501	602	315	523	38	0	
13	0	0	0	0	501	605	315	523	38	0	
14	0	0	0	0	500	606	315	524	38	0	
15	0	0	0	0	496	602	315	522	38	0	
0	0	0	0	0	500	595	315	521	38	0	
1	0	0	0	0	502	588	315	519	38	0	
2	0	0	0	0	509	582	315	514	38	0	
3	0	0	0	0	509	577	315	512	38	0	
4	0	0	0	0	511	573	315	508	38	0	
5	0	0	0	0	518	571	315	508	38	0	
6	0	0	0	0	515	570	315	505	38	0	
7	0	0	0	0	520	572	315	506	38	0	
8	0	0	0	0	514	579	315	509	38	0	
9	0	0	0	0	524	586	315	513	38	0	
10	0	0	0	0	517	593	315	517	38	0	
11	0	0	0	0	505	599	315	519	38	0	
12	0	0	0	0	500	604	315	521	38	0	
13	0	0	0	0	496	608	315	530	38	0	
14	0	0	0	0	500	610	315	524	38	0	
15	0	0	0	0	495	609	315	522	38	0	
0	0	0	0	0	498	606	315	519	38	0	
1	0	0	0	0	502	599	315	515	38	0	
2	0	0	0	0	503	592	315	510	38	0	
3	0	0	0	0	507	586	315	507	38	0	
4	0	0	0	0	508	581	315	504	38	0	
5	0	0	0	0	513	578	315	502	38	0	
6	0	0	0	0	518	576	315	500	38	0	
7	0	0	0	0	519	577	315	503	38	0	
8	0	0	0	0	514	579	315	504	38	0	
9	0	0	0	0	520	584	315	505	38	0	
10	0	0	0	0	513	591	315	510	38	0	
11	0	0	0	0	508	597	315	513	38	0	
12	0	0	0	0	510	603	315	516	38	0	
13	0	0	0	0	509	606	314	517	38	0	
14	0	0	0	0	501	609	315	518	38	0	
15	0	0	0	0	494	610	315	519	38	0	
0	0	0	0	0	496	608	315	520	38	0	
1	0	0	0	0	501	604	315	517	38	0	
2	0	0	0	0	497	598	315	514	38	0	
3	0	0	0	0	503	591	315	511	38	0	
4	0	0	0	0	512	585	315	506	38	0	
5	0	0	0	0	509	579	315	504	38	0	
6	0	0	0	0	515	575	315	503	38	0	
7	0	0	0	0	519	573	315	501	38	0	
8	0	0	0	0	516	575	315	499	38	0	
9	0	0	0	0	515	580	315	503	38	0	
10	0	0	0	0	519	587	315	507	38	0	
11	0	0	0	0	511	595	315	512	38	0	
12	0	0	0	0	503	601	315	517	38	0	
13	0	0	0	0	510	608	315	519	38	0	
14	0	0	0	0	511	612	315	521	38	0	
15	0	0	0	0	508	615	315	521	38	0	
0	0	0	0	0	495	615	316	521	38	0	
1	0	0	0	0	494	611	315	516	38	0	
2	0	0	0	0	496	606	315	513	38	0	
3	0	0	0	0	501	598	315	518	38	0	
4	0	0	0	0	509	592	315	506	38	0	
5	0	0	0	0	521	589	315	505	38	0	
6	0	0	0	0	520	585	315	504	38	0	
7	0	0	0	0	512	582	315	503	38	0	
8	0	0	0	0	515	581	315	504	38	0	
9	0	0	0	0	524	585	315	505	38	0	
10	0	0	0	0	509	590	315	508	38	0	
11	0	0	0	0	518	597	315	511	38	0	
12	0	0	0	0	511	603	315	516	38	0	
13	0	0	0	0	499	609	315	519	38	0	
14	0	0	0	0	507	613	315	520	38	0	
15	0	0	0	0	499	617	315	521	38	0	
0	0	0	0	0	503	619	315	521	38	0	
1	0	0	0	0	496	619	315	521	38	0	
2	0	0	0	0	497	616	315	518	38	0	
3	0	0	0	0	494	610	315	514	38	0	
4	0	0	0	0	503	604	315	511	38	0	
5	0	0	0	0	511	599	315	507	38	0	
6	0	0	0	0	514	594	315	504	38	0	
7	0	0	0	0	511	592	315	503	38	0	
8	0	0	0	0	511	590	315	503	38	0	
9	0	0	0	0	517	591	315	503	38	0	
10	0	0	0	0	519	593	315	505	38	0	
11	0	0	0	0	513	599	315	509	38	0	
12	0	0	0	0	515	605	315	511	38	0	
13	0	0	0	0	512	610	314	515	38	0	
14	0	0	0	0	504	617	315	519	38	0	
15	0	0	0	0	503	621	315	520	38	0	
0	0	0	0	0	507	624	315	521	38	0	
1	0	0	0	0	500	626	314	521	38	0	
2	0	0	0	0	493	624	315	519	38	0	
3	0	0	0	0	503	622	315	516	38	0	
4	0	0	0	0	497	615	315	513	38	0	
5	0	0	0	0	508	608	315	515	38	0	
6	0	0	0	0	508	602	315	504	38	0	
7	0	0	0	0	515	599	315	503	38	0	
8	0	0	0	0	512	596	315	503	38	0	
9	0	0	0	0	520	594	315	502	38	0	
10	0	0	0	0	527	595	315	506	38	0	
11	0	0	0	0	519	600	315	506	38	0	
12	0	0	0	0	521	606	315	510	38	0	
13	0	0	0	0	510	613	315	513	38	0	
14	0	0	0	0	505	621	315	516	38	0	
15	0	0	0	0	501	627	315	519	38	0	
0	0	0	0	0	505	630	315	521	38	0	
1	0	0	0	0	501	632	315	524	38	0	
2	0	0	0	0	491	631	315	524	38	0	
3	0	0	0	0	496	627	315	524	38	0	
4	0	0	0	0	495	622	315	520	38	0	
5	0	0	0	0	497	615	315	517	38	0	
6	0	0	0	0	508	608	314	513	38	0	
7	0	0	0	0	522	603	315	509	38	0	
8	0	0	0	0	519	598	315	508	38	0	
9	0	0	0	0	513	595	314	514	38	0	
10	0	0	0	0	519	595	315	505	38	0	
11	0	0	0	0	522	598	315	504	38	0	
12	0	0	0	0	521	603	314	504	38	0	
13	0	0	0	0	513	609	315	506	38	0	
14	0	0	0	0	515	615	315	509	38	0	
15	0	0	0	0	512	622	314	515	38	0	
0	0	0	0	0	505	626	315	520	38	0	
1	0	0	0	0	504	628	315	523	38	0	
2	0	0	0	0	499	630	315	523	38	0	
3	0	0	0	0	492	629	315	519	38	0	
4	0	0	0	0	498	625	315	516	38	0	
5	0	0	0	0	495	620	315	516	38	0	
6	0	0	0	0	498	614	315	504	38	0	
7	0	0	0	0	513	607	315	497	38	0	
8	0	0	0	0	507	601	314	494	38	0	
9	0	0	0	0	521	597	315	495	38	0	
10	0	0	0	0	514	593	315	493	38	0	
11	0	0	0	0	515	592	315	494	38	0	
12	0	0	0	0	520	594	315	497	38	0	
13	0	0	0	0	524	600	315	504	38	0	
14	0	0	0	0	514	606	314	517	38	0	
15	0	0	0	0	503	612	315	515	38	0	
0	0	0	0	0	507	617	315	520	38	0	
1	0	0	0	0	508	621	315	524	38	0	
2	0	0	0	0	501	624	315	525	38	0	
3	0	0	0	0	502	624	315	527	38	0	
4	0	0	0	0	496	621	315	523	38	0	
5	0	0	0	0	496	617	315	520	38	0	
6	0	0	0	0	492	611	314	518	38	0	
7	0	0	0	0	509	606	315	514	38	0	
8	0	0	0	0	510	600	315	511	38	0	
9	0	0	0	0	515	593	315	508	38	0	
10	0	0	0	0	511	590	315	507	38	0	
11	0	0	0	0	524	588	315	505	38	0	
12	0	0	0	0	531	590	315	505	38	0	
13	0	0	0	0	518	595	315	505	38	0	
14	0	0	0	0	517	601	314	508	38	0	
15	0	0	0	0	508	608	315	512	38	0	
0	0	0	0	0	503	615	315	515	38	0	
1	0	0	0	0	505	621	314	519	38	0	
2	0	0	0	0	498	626	315	519	38	0	
3	0	0	0	0	502	628	315	519	38	0	
4	0	0	0	0	495	627	314	520	38	0	
5	0	0	0	0	497	623	315	520	38	0	
6	0	0	0	0	496	617	315	526	38	0	
7	0	0	0	0	504	610	314	513	38	0	
8	0	0	0	0	511	604	315	509	38	0	
9	0	0	0	0	508	599	315	506	38	0	
10	0	0	0	0	514	595	314	504	38	0	
11	0	0	0	0	512	592	315	507	38	0	
12	0	0	0	0	513	590	315	502	38	0	
13	0	0	0	0	524	593	315	503	38	0	
14	0	0	0	0	518	599	315	507	38	0	
15	0	0	0	0	518	607	315	512	38	0	
0	0	0	0	0	510	614	315	515	38	0	
1	0	0	0	0	503	620	314	518	38	0	
2	0	0	0	0	508	624	314	521	38	0	
3	0	0	0	0	508	628	315	522	38	0	
4	0	0	0	0	504	631	315	522	38	0	
5	0	0	0	0	491	630	314	519	38	0	
6	0	0	0	0	497	626	315	518	38	0	
7	0	0	0	0	496	620	315	516	38	0	
8	0	0	0	0	503	614	315	512	38	0	
9	0	0	0	0	505	606	315	509	38	0	
10	0	0	0	0	515	601	314	508	38	0	
11	0	0	0	0	514	597	315	507	38	0	
12	0	0	0	0	513	596	315	503	38	0	
13	0	0	0	0	516	596	315	503	38	0	
14	0	0	0	0	521	600	315	504	38	0	
15	0	0	0	0	516	606	315	505	38	0	
0	0	0	0	0	512	614	315	508	38	0	
1	0	0	0	0	515	619	314	512	38	0	
2	0	0	0	0	512	625	315	515	38	0	
3	0	0	0	0	509	628	314	516	38	0	
4	0	0	0	0	504	630	315	516	38	0	
5	0	0	0	0	498	631	315	515	38	0	
6	0	0	0	0	496	627	314	514	38	0	
7	0	0	0	0	492	623	315	512	38	0	
8	0	0	0	0	502	615	315	509	38	0	
9	0	0	0	0	508	611	314	508	38	0	
10	0	0	0	0	510	606	315	507	38	0	
11	0	0	0	0	515	602	314	504	38	0	
12	0	0	0	0	515	600	314	504	38	0	
13	0	0	0	0	513	597	315	504	38	0	
14	0	0	0	0	525	597	314	505	38	0	
15	0	0	0	0	522	601	315	506	38	0	
0	0	0	0	0	515	606	315	508	38	0	
1	0	0	0	0	510	612	315	512	38	0	
2	0	0	0	0	509	619	314	518	38	0	
3	0	0	0	0	501	624	314	521	38	0	
4	0	0	0	0	498	628	315	521	38	0	
5	0	0	0	0	508	631	314	522	38	0	
6	0	0	0	0	492	631	314	521	38	0	
7	0	0	0	0	505	628	314	519	38	0	
8	0	0	0	0	499	623	315	517	38	0	
9	0	0	0	0	499	616	315	515	38	0	
10	0	0	0	0	511	610	314	511	38	0	
11	0	0	0	0	513	605	315	508	38	0	
12	0	0	0	0	513	601	315	504	38	0	
13	0	0	0	0	519	599	315	503	38	0	
14	0	0	0	0	516	597	314	502	38	0	
15	0	0	0	0	521	600	314	503	38	0	
0	0	0	0	0	520	605	315	505	38	0	
1	0	0	0	0	516	612	315	509	38	0	
2	0	0	0	0	512	620	315	512	38	0	
3	0	0	0	0	508	626	315	515	38	0	
4	0	0	0	0	503	629	314	517	38	0	
5	0	0	0	0	503	633	315	517	38	0	
6	0	0	0	0	497	636	314	518	38	0	
7	0	0	0	0	494	635	315	518	38	0	
8	0	0	0	0	496	632	315	515	38	0	
9	0	0	0	0	499	626	314	513	38	0	
10	0	0	0	0	502	620	315	510	38	0	
11	0	0	0	0	508	614	315	509	38	0	
12	0	0	0	0	512	611	315	504	38	0	
13	0	0	0	0	519	609	315	503	38	0	
14	0	0	0	0	511	606	314	502	38	0	
15	0	0	0	0	526	606	315	502	38	0	
0	0	0	0	0	521	607	315	502	38	0	
1	0	0	0	0	519	611	315	503	38	0	
2	0	0	0	0	511	619	314	506	38	0	
3	0	0	0	0	511	624	315	511	38	0	
4	0	0	0	0	504	630	315	516	38	0	
5	0	0	0	0	505	632	315	517	38	0	
6	0	0	0	0	503	633	315	519	38	0	
7	0	0	0	0	496	633	314	519	38	0	
8	0	0	0	0	497	630	315	517	38	0	
9	0	0	0	0	495	626	315	516	38	0	
10	0	0	0	0	496	620	315	511	38	0	
11	0	0	0	0	505	614	315	507	38	0	
12	0	0	0	0	510	607	314	506	38	0	
13	0	0	0	0	514	600	315	505	38	0	
14	0	0	0	0	504	598	315	505	38	0	
15	0	0	0	0	520	596	315	505	38	0	
0	0	0	0	0	524	598	315	507	38	0	
1	0	0	0	0	526	603	315	508	38	0	
2	0	0	0	0	515	610	314	512	38	0	
3	0	0	0	0	513	617	314	515	38	0	
4	0	0	0	0	507	621	315	516	38	0	
5	0	0	0	0	507	625	315	519	38	0	
6	0	0	0	0	504	630	314	520	38	0	
7	0	0	0	0	509	632	315	523	38	0	
8	0	0	0	0	497	631	315	524	38	0	
9	0	0	0	0	495	626	314	520	38	0	
10	0	0	0	0	489	621	315	518	38	0	
11	0	0	0	0	499	614	315	514	38	0	
12	0	0	0	0	507	606	315	510	38	0	
13	0	0	0	0	508	599	315	506	38	0	
14	0	0	0	0	522	595	315	504	38	0	
15	0	0	0	0	521	592	315	503	38	0	
0	0	0	0	0	512	590	315	503	38	0	
1	0	0	0	0	518	591	315	504	38	0	
2	0	0	0	0	519	595	315	507	38	0	
3	0	0	0	0	523	601	314	512	38	0	
4	0	0	0	0	514	609	315	515	38	0	
5	0	0	0	0	508	616	315	519	38	0	
6	0	0	0	0	504	622	315	520	38	0	
7	0	0	0	0	499	625	315	520	38	0	
8	0	0	0	0	499	629	314	520	38	0	
9	0	0	0	0	492	629	315	524	38	0	
10	0	0	0	0	492	625	314	519	38	0	
11	0	0	0	0	497	620	315	518	38	0	
12	0	0	0	0	508	611	315	515	38	0	
13	0	0	0	0	510	604	315	512	38	0	
14	0	0	0	0	514	599	314	508	38	0	
15	0	0	0	0	507	595	315	508	38	0	
0	0	0	0	0	515	592	315	508	38	0	
1	0	0	0	0	523	591	315	507	38	0	
2	0	0	0	0	521	592	315	510	38	0	
3	0	0	0	0	514	598	315	510	38	0	
4	0	0	0	0	519	604	314	512	38	0	
5	0	0	0	0	511	612	314	513	38	0	
6	0	0	0	0	505	617	315	517	38	0	
7	0	0	0	0	501	622	315	519	38	0	
8	0	0	0	0	502	624	314	519	38	0	
9	0	0	0	0	502	625	314	518	38	0	
10	0	0	0	0	495	622	315	515	38	0	
11	0	0	0	0	493	618	315	513	38	0	
12	0	0	0	0	504	611	315	508	38	0	
13	0	0	0	0	508	605	314	507	38	0	
14	0	0	0	0	512	600	315	503	38	0	
15	0	0	0	0	504	596	315	503	38	0	
0	0	0	0	0	520	595	315	502	38	0	
1	0	0	0	0	518	594	315	500	38	0	
2	0	0	0	0	523	596	314	502	38	0	
3	0	0	0	0	514	602	315	504	38	0	
4	0	0	0	0	522	609	315	508	38	0	
5	0	0	0	0	508	616	315	512	38	0	
6	0	0	0	0	507	622	315	516	38	0	
7	0	0	0	0	512	627	315	519	38	0	
8	0	0	0	0	498	632	314	520	38	0	
9	0	0	0	0	503	634	314	522	38	0	
10	0	0	0	0	492	635	315	523	38	0	
11	0	0	0	0	495	632	315	523	38	0	
12	0	0	0	0	496	629	315	521	38	0	
13	0	0	0	0	500	622	314	517	38	0	
14	0	0	0	0	506	614	315	512	38	0	
15	0	0	0	0	514	608	315	508	38	0	
0	0	0	0	0	510	604	314	503	38	0	
1	0	0	0	0	515	601	315	506	38	0	
2	0	0	0	0	524	599	315	500	38	0	
3	0	0	0	0	523	601	314	501	38	0	
4	0	0	0	0	524	607	315	502	38	0	
5	0	0	0	0	514	612	315	505	38	0	
6	0	0	0	0	513	619	314	510	38	0	
7	0	0	0	0	507	624	315	514	38	0	
8	0	0	0	0	500	628	314	517	38	0	
9	0	0	0	0	493	632	314	517	38	0	
10	0	0	0	0	504	634	315	520	38	0	
11	0	0	0	0	489	632	314	519	38	0	
12	0	0	0	0	500	628	314	518	38	0	
13	0	0	0	0	498	622	315	514	38	0	
14	0	0	0	0	510	616	315	511	38	0	
15	0	0	0	0	512	611	314	507	38	0	
0	0	0	0	0	512	606	315	504	38	0	
1	0	0	0	0	524	603	315	504	38	0	
2	0	0	0	0	510	601	314	503	38	0	
3	0	0	0	0	523	602	315	503	38	0	
4	0	0	0	0	516	605	315	504	38	0	
5	0	0	0	0	524	610	314	506	38	0	
6	0	0	0	0	507	616	314	510	38	0	
7	0	0	0	0	496	624	314	513	38	0	
8	0	0	0	0	507	632	315	516	38	0	
9	0	0	0	0	503	635	314	518	38	0	
10	0	0	0	0	504	636	314	518	38	0	
11	0	0	0	0	494	636	314	519	38	0	
12	0	0	0	0	499	633	314	516	38	0	
13	0	0	0	0	494	630	315	515	38	0	
14	0	0	0	0	494	622	314	512	38	0	
15	0	0	0	0	513	616	315	511	38	0	
0	0	0	0	0	515	611	315	507	38	0	
1	0	0	0	0	520	606	314	505	38	0	
2	0	0	0	0	518	604	314	504	38	0	
3	0	0	0	0	518	602	314	503	38	0	
4	0	0	0	0	514	605	315	503	38	0	
5	0	0	0	0	524	610	315	503	38	0	
6	0	0	0	0	526	615	314	507	38	0	
7	0	0	0	0	511	623	314	512	38	0	
8	0	0	0	0	508	630	315	515	38	0	
9	0	0	0	0	503	635	315	519	38	0	
10	0	0	0	0	500	639	314	519	38	0	
11	0	0	0	0	504	642	314	519	38	0	
12	0	0	0	0	487	642	314	519	38	0	
13	0	0	0	0	500	638	314	523	38	0	
14	0	0	0	0	496	632	314	514	38	0	
15	0	0	0	0	504	625	315	510	38	0	
0	0	0	0	0	505	618	314	505	38	0	
1	0	0	0	0	509	613	314	504	38	0	
2	0	0	0	0	515	607	314	502	38	0	
3	0	0	0	0	516	603	315	502	38	0	
4	0	0	0	0	526	600	315	502	38	0	
5	0	0	0	0	521	602	315	503	38	0	
6	0	0	0	0	514	607	315	506	38	0	
7	0	0	0	0	515	613	314	508	38	0	
8	0	0	0	0	510	619	315	512	38	0	
9	0	0	0	0	517	624	314	517	38	0	
10	0	0	0	0	503	629	315	521	38	0	
11	0	0	0	0	503	632	314	525	38	0	
12	0	0	0	0	497	633	314	526	38	0	
13	0	0	0	0	495	632	315	526	38	0	
14	0	0	0	0	497	628	314	529	38	0	
15	0	0	0	0	497	620	314	519	38	0	
0	0	0	0	0	499	612	315	517	38	0	
1	0	0	0	0	515	605	314	511	38	0	
2	0	0	0	0	514	599	314	508	38	0	
3	0	0	0	0	511	598	314	512	38	0	
4	0	0	0	0	507	595	314	501	38	0	
5	0	0	0	0	516	594	314	499	38	0	
6	0	0	0	0	521	597	314	500	38	0	
7	0	0	0	0	521	604	315	503	38	0	
8	0	0	0	0	513	612	314	509	38	0	
9	0	0	0	0	515	618	314	511	38	0	
10	0	0	0	0	508	624	314	518	38	0	
11	0	0	0	0	505	629	315	523	38	0	
12	0	0	0	0	511	632	314	524	38	0	
13	0	0	0	0	496	634	314	524	38	0	
14	0	0	0	0	496	632	314	524	38	0	
15	0	0	0	0	498	627	315	521	38	0	
0	0	0	0	0	491	620	315	517	38	0	
1	0	0	0	0	507	612	315	512	38	0	
2	0	0	0	0	509	606	314	508	38	0	
3	0	0	0	0	512	601	315	505	38	0	
4	0	0	0	0	521	599	315	505	38	0	
5	0	0	0	0	511	598	314	504	38	0	
6	0	0	0	0	523	600	314	505	38	0	
7	0	0	0	0	515	602	315	505	38	0	
8	0	0	0	0	518	606	314	508	38	0	
9	0	0	0	0	508	611	315	515	38	0	
10	0	0	0	0	507	617	314	521	38	0	
11	0	0	0	0	510	622	314	524	38	0	
12	0	0	0	0	501	624	315	526	38	0	
13	0	0	0	0	499	624	314	525	38	0	
14	0	0	0	0	494	623	314	524	38	0	
15	0	0	0	0	497	619	314	521	38	0	
0	0	0	0	0	495	611	315	517	38	0	
1	0	0	0	0	496	601	314	513	38	0	
2	0	0	0	0	508	594	315	509	38	0	
3	0	0	0	0	510	587	315	505	38	0	
4	0	0	0	0	514	580	315	503	38	0	
5	0	0	0	0	521	576	314	502	38	0	
6	0	0	0	0	516	574	315	503	38	0	
7	0	0	0	0	528	576	314	504	38	0	
8	0	0	0	0	522	580	314	507	38	0	
9	0	0	0	0	514	587	315	514	38	0	
10	0	0	0	0	514	594	315	514	38	0	
11	0	0	0	0	506	600	314	518	38	0	
12	0	0	0	0	505	604	314	519	38	0	
13	0	0	0	0	499	608	314	521	38	0	
14	0	0	0	0	504	610	314	520	38	0	
15	0	0	0	0	504	608	314	521	38	0	
0	0	0	0	0	498	604	314	522	38	0	
1	0	0	0	0	506	597	314	517	38	0	
2	0	0	0	0	500	591	314	515	38	0	
3	0	0	0	0	505	585	314	512	38	0	
4	0	0	0	0	514	579	315	509	38	0	
5	0	0	0	0	508	576	315	507	38	0	
6	0	0	0	0	515	573	314	506	38	0	
7	0	0	0	0	512	573	314	505	38	0	
8	0	0	0	0	526	576	314	505	38	0	
9	0	0	0	0	519	583	315	507	38	0	
10	0	0	0	0	505	590	315	508	38	0	
11	0	0	0	0	514	595	314	510	38	0	
12	0	0	0	0	508	600	314	513	38	0	
13	0	0	0	0	504	604	314	516	38	0	
14	0	0	0	0	507	605	314	516	38	0	
15	0	0	0	0	494	605	314	517	38	0	
0	0	0	0	0	495	601	314	518	38	0	
1	0	0	0	0	498	598	314	516	38	0	
2	0	0	0	0	496	591	314	513	38	0	
3	0	0	0	0	508	585	315	509	38	0	
4	0	0	0	0	512	581	315	507	38	0	
5	0	0	0	0	509	576	314	505	38	0	
6	0	0	0	0	503	574	314	506	38	0	
7	0	0	0	0	509	572	314	507	38	0	
8	0	0	0	0	519	574	315	508	38	0	
9	0	0	0	0	523	577	315	510	38	0	
10	0	0	0	0	518	583	314	513	38	0	
11	0	0	0	0	517	590	314	517	38	0	
12	0	0	0	0	512	596	314	521	38	0	
13	0	0	0	0	511	601	314	525	38	0	
14	0	0	0	0	497	604	315	529	38	0	
15	0	0	0	0	504	604	314	528	38	0	
0	0	0	0	0	501	604	315	526	38	0	
1	0	0	0	0	492	601	314	521	38	0	
2	0	0	0	0	491	596	314	518	38	0	
3	0	0	0	0	506	590	315	514	38	0	
4	0	0	0	0	509	583	314	511	38	0	
5	0	0	0	0	507	577	314	507	38	0	
6	0	0	0	0	504	572	314	504	38	0	
7	0	0	0	0	512	571	315	502	38	0	
8	0	0	0	0	523	570	314	500	38	0	
9	0	0	0	0	520	573	314	501	38	0	
10	0	0	0	0	516	578	314	499	38	0	
11	0	0	0	0	524	584	314	504	38	0	
12	0	0	0	0	508	590	314	508	38	0	
13	0	0	0	0	501	597	315	512	38	0	
14	0	0	0	0	502	601	314	514	38	0	
15	0	0	0	0	504	603	314	516	38	0	
0	0	0	0	0	498	606	314	516	38	0	
1	0	0	0	0	495	605	314	518	38	0	
2	0	0	0	0	493	600	314	514	38	0	
3	0	0	0	0	501	596	314	510	38	0	
4	0	0	0	0	505	591	314	509	38	0	
5	0	0	0	0	505	585	315	505	38	0	
6	0	0	0	0	508	580	314	504	38	0	
7	0	0	0	0	512	576	314	502	38	0	
8	0	0	0	0	518	573	314	501	38	0	
9	0	0	0	0	521	574	315	501	38	0	
10	0	0	0	0	515	576	314	502	38	0	
11	0	0	0	0	513	582	314	506	38	0	
12	0	0	0	0	516	588	314	509	38	0	
13	0	0	0	0	513	596	314	513	38	0	
14	0	0	0	0	512	603	315	517	38	0	
15	0	0	0	0	504	608	314	519	38	0	
0	0	0	0	0	503	611	314	519	38	0	
1	0	0	0	0	495	613	314	519	38	0	
2	0	0	0	0	500	612	314	518	38	0	
3	0	0	0	0	495	608	314	518	38	0	
4	0	0	0	0	499	600	314	515	38	0	
5	0	0	0	0	497	595	314	512	38	0	
6	0	0	0	0	504	590	314	512	38	0	
7	0	0	0	0	516	587	314	508	38	0	
8	0	0	0	0	519	586	315	505	38	0	
9	0	0	0	0	517	584	314	504	38	0	
10	0	0	0	0	519	585	314	503	38	0	
11	0	0	0	0	512	589	314	504	38	0	
12	0	0	0	0	515	594	314	507	38	0	
13	0	0	0	0	511	601	314	510	38	0	
14	0	0	0	0	511	607	315	514	38	0	
15	0	0	0	0	505	612	314	518	38	0	
0	0	0	0	0	507	615	314	520	38	0	
1	0	0	0	0	503	617	315	519	38	0	
2	0	0	0	0	492	617	314	517	38	0	
3	0	0	0	0	496	615	314	513	38	0	
4	0	0	0	0	493	609	314	510	38	0	
5	0	0	0	0	502	602	314	507	38	0	
6	0	0	0	0	504	595	314	504	38	0	
7	0	0	0	0	513	588	314	502	38	0	
8	0	0	0	0	512	582	314	500	38	0	
9	0	0	0	0	513	580	314	499	38	0	
10	0	0	0	0	523	577	315	498	38	0	
11	0	0	0	0	517	578	314	503	38	0	
12	0	0	0	0	513	583	314	507	38	0	
13	0	0	0	0	519	589	314	513	38	0	
14	0	0	0	0	512	593	314	518	38	0	
15	0	0	0	0	509	599	314	520	38	0	
0	0	0	0	0	511	601	314	521	38	0	
1	0	0	0	0	499	606	315	523	38	0	
2	0	0	0	0	493	609	314	521	38	0	
3	0	0	0	0	502	608	314	523	38	0	
4	0	0	0	0	497	606	314	518	38	0	
5	0	0	0	0	503	600	314	515	38	0	
6	0	0	0	0	509	593	314	514	38	0	
7	0	0	0	0	506	586	314	513	38	0	
8	0	0	0	0	507	580	315	511	38	0	
9	0	0	0	0	512	576	314	509	38	0	
10	0	0	0	0	510	574	314	508	38	0	
11	0	0	0	0	524	573	314	507	38	0	
12	0	0	0	0	525	574	314	505	38	0	
13	0	0	0	0	518	578	314	510	38	0	
14	0	0	0	0	511	584	314	517	38	0	
15	0	0	0	0	510	591	314	522	38	0	
0	0	0	0	0	512	595	314	525	38	0	
1	0	0	0	0	498	599	314	527	38	0	
2	0	0	0	0	504	603	314	531	38	0	
3	0	0	0	0	497	604	314	543	38	0	
4	0	0	0	0	495	602	315	534	38	0	
5	0	0	0	0	494	599	314	529	38	0	
6	0	0	0	0	498	592	314	524	38	0	
7	0	0	0	0	503	586	314	519	38	0	
8	0	0	0	0	508	580	314	514	38	0	
9	0	0	0	0	517	576	314	508	38	0	
10	0	0	0	0	516	573	314	507	38	0	
11	0	0	0	0	515	571	314	505	38	0	
12	0	0	0	0	517	573	315	505	38	0	
13	0	0	0	0	520	579	314	506	38	0	
14	0	0	0	0	519	587	314	508	38	0	
15	0	0	0	0	518	596	314	511	38	0	
0	0	0	0	0	508	603	314	513	38	0	
1	0	0	0	0	496	609	314	515	38	0	
2	0	0	0	0	497	613	314	516	38	0	
3	0	0	0	0	502	615	314	516	38	0	
4	0	0	0	0	494	615	314	515	38	0	
5	0	0	0	0	500	612	314	512	38	0	
6	0	0	0	0	502	607	315	510	38	0	
7	0	0	0	0	508	601	314	505	38	0	
8	0	0	0	0	509	596	314	502	38	0	
9	0	0	0	0	514	594	315	500	38	0	
10	0	0	0	0	515	592	314	498	38	0	
11	0	0	0	0	518	591	314	498	38	0	
12	0	0	0	0	523	590	314	498	38	0	
13	0	0	0	0	521	591	314	500	38	0	
14	0	0	0	0	519	595	314	505	38	0	
15	0	0	0	0	518	602	314	508	38	0	
0	0	0	0	0	510	609	314	513	38	0	
1	0	0	0	0	505	617	315	517	38	0	
2	0	0	0	0	499	622	314	519	38	0	
3	0	0	0	0	498	627	314	518	38	0	
4	0	0	0	0	497	630	314	517	38	0	
5	0	0	0	0	502	630	314	516	38	0	
6	0	0	0	0	498	627	314	513	38	0	
7	0	0	0	0	493	620	314	512	38	0	
8	0	0	0	0	505	612	314	507	38	0	
9	0	0	0	0	511	604	314	504	38	0	
10	0	0	0	0	511	597	314	501	38	0	
11	0	0	0	0	512	590	315	500	38	0	
12	0	0	0	0	513	583	314	500	38	0	
13	0	0	0	0	524	579	314	502	38	0	
14	0	0	0	0	516	576	314	504	38	0	
15	0	0	0	0	521	574	314	509	38	0	
0	0	0	0	0	520	575	314	512	38	0	
1	0	0	0	0	512	577	314	515	38	0	
2	0	0	0	0	504	576	314	519	38	0	
3	0	0	0	0	511	575	314	524	38	0	
4	0	0	0	0	498	574	314	520	38	0	
5	0	0	0	0	490	573	315	520	38	0	
6	0	0	0	0	492	568	314	518	38	0	
7	0	0	0	0	495	561	314	515	38	0	
8	0	0	0	0	499	550	314	511	38	0	
9	0	0	0	0	508	538	314	507	38	0	
10	0	0	0	0	519	526	314	504	38	0	
11	0	0	0	0	513	517	314	502	38	0	
12	0	0	0	0	512	512	315	500	38	0	
13	0	0	0	0	521	507	314	500	38	0	
14	0	0	0	0	524	506	314	503	38	0	
15	0	0	0	0	515	508	314	505	38	0	
0	0	0	0	0	519	511	314	508	38	0	
1	0	0	0	0	511	516	314	512	38	0	
2	0	0	0	0	510	519	314	517	38	0	
3	0	0	0	0	508	521	314	522	38	0	
4	0	0	0	0	501	521	314	524	38	0	
5	0	0	0	0	502	522	314	525	38	0	
6	0	0	0	0	496	520	314	524	38	0	
7	0	0	0	0	489	514	314	519	38	0	
8	0	0	0	0	492	508	315	518	38	0	
9	0	0	0	0	505	499	314	513	38	0	
10	0	0	0	0	511	494	314	508	38	0	
11	0	0	0	0	510	491	314	505	38	0	
12	0	0	0	0	512	491	314	503	38	0	
13	0	0	0	0	510	494	315	504	38	0	
14	0	0	0	0	521	498	314	504	38	0	
15	0	0	0	0	520	505	314	504	38	0	
0	0	0	0	0	515	514	315	505	38	0	
1	0	0	0	0	520	525	314	507	38	0	
2	0	0	0	0	515	535	314	510	38	0	
3	0	0	0	0	505	546	314	521	38	0	
4	0	0	0	0	502	554	314	517	38	0	
5	0	0	0	0	504	560	314	519	38	0	
6	0	0	0	0	493	563	314	518	38	0	
7	0	0	0	0	493	564	314	517	38	0	
8	0	0	0	0	494	563	315	515	38	0	
9	0	0	0	0	498	558	314	511	38	0	
10	0	0	0	0	507	553	314	515	38	0	
11	0	0	0	0	507	548	314	504	38	0	
12	0	0	0	0	522	544	314	499	38	0	
13	0	0	0	0	513	542	314	498	38	0	
14	0	0	0	0	518	540	314	497	38	0	
15	0	0	0	0	524	542	315	499	38	0	
0	0	0	0	0	518	545	314	503	38	0	
1	0	0	0	0	520	552	314	506	38	0	
2	0	0	0	0	509	560	314	510	38	0	
3	0	0	0	0	503	567	314	513	38	0	
4	0	0	0	0	513	572	314	518	38	0	
5	0	0	0	0	501	577	314	519	38	0	
6	0	0	0	0	504	579	314	521	38	0	
7	0	0	0	0	504	581	314	520	38	0	
8	0	0	0	0	491	580	314	520	38	0	
9	0	0	0	0	495	577	314	519	38	0	
10	0	0	0	0	496	572	314	514	38	0	
11	0	0	0	0	506	566	314	511	38	0	
12	0	0	0	0	512	560	314	508	38	0	
13	0	0	0	0	510	556	314	506	38	0	
14	0	0	0	0	520	552	314	508	38	0	
15	0	0	0	0	515	549	314	502	38	0	
0	0	0	0	0	525	549	314	503	38	0	
1	0	0	0	0	525	551	314	505	38	0	
2	0	0	0	0	523	554	314	508	38	0	
3	0	0	0	0	511	560	314	515	38	0	
4	0	0	0	0	496	565	314	518	38	0	
5	0	0	0	0	502	569	314	520	38	0	
6	0	0	0	0	506	572	314	521	38	0	
7	0	0	0	0	502	575	314	522	38	0	
8	0	0	0	0	491	574	314	521	38	0	
9	0	0	0	0	499	571	314	519	38	0	
10	0	0	0	0	499	567	314	516	38	0	
11	0	0	0	0	497	560	314	514	38	0	
12	0	0	0	0	517	555	314	510	38	0	
13	0	0	0	0	508	551	314	508	38	0	
14	0	0	0	0	510	547	314	505	38	0	
15	0	0	0	0	511	545	314	504	38	0	
0	0	0	0	0	519	544	314	504	38	0	
1	0	0	0	0	518	547	314	506	38	0	
2	0	0	0	0	517	552	314	508	38	0	
3	0	0	0	0	518	559	314	513	38	0	
4	0	0	0	0	504	563	314	519	38	0	
5	0	0	0	0	504	568	314	521	38	0	
6	0	0	0	0	499	570	314	522	38	0	
7	0	0	0	0	505	572	314	522	38	0	
8	0	0	0	0	502	573	314	520	38	0	
9	0	0	0	0	502	570	314	519	38	0	
10	0	0	0	0	503	566	314	517	38	0	
11	0	0	0	0	499	561	314	514	38	0	
12	0	0	0	0	506	556	314	511	38	0	
13	0	0	0	0	507	551	314	508	38	0	
14	0	0	0	0	510	545	314	507	38	0	
15	0	0	0	0	512	542	314	510	38	0	
0	0	0	0	0	504	541	314	505	38	0	
1	0	0	0	0	522	542	314	504	38	0	
2	0	0	0	0	518	543	314	505	38	0	
3	0	0	0	0	520	546	314	508	38	0	
4	0	0	0	0	514	553	314	511	38	0	
5	0	0	0	0	511	560	314	515	38	0	
6	0	0	0	0	502	566	314	521	38	0	
7	0	0	0	0	504	569	314	525	38	0	
8	0	0	0	0	502	572	314	527	38	0	
9	0	0	0	0	502	574	314	526	38	0	
10	0	0	0	0	495	570	314	524	38	0	
11	0	0	0	0	500	564	315	520	38	0	
12	0	0	0	0	493	556	314	515	38	0	
13	0	0	0	0	504	549	314	512	38	0	
14	0	0	0	0	508	544	314	508	38	0	
15	0	0	0	0	508	540	314	506	38	0	
0	0	0	0	0	511	536	314	502	38	0	
1	0	0	0	0	521	534	315	500	38	0	
2	0	0	0	0	522	536	314	500	38	0	
3	0	0	0	0	517	540	314	502	38	0	
4	0	0	0	0	520	544	315	504	38	0	
5	0	0	0	0	510	550	314	509	38	0	
6	0	0	0	0	510	555	314	513	38	0	
7	0	0	0	0	507	559	315	523	38	0	
8	0	0	0	0	505	563	314	516	38	0	
9	0	0	0	0	498	565	314	515	38	0	
10	0	0	0	0	494	566	315	514	38	0	
11	0	0	0	0	498	562	314	512	38	0	
12	0	0	0	0	499	558	314	510	38	0	
13	0	0	0	0	504	552	314	508	38	0	
14	0	0	0	0	500	545	314	504	38	0	
15	0	0	0	0	511	540	314	503	38	0	
0	0	0	0	0	513	537	314	502	38	0	
1	0	0	0	0	514	535	314	498	38	0	
2	0	0	0	0	522	534	314	496	38	0	
3	0	0	0	0	514	536	314	497	38	0	
4	0	0	0	0	519	540	314	499	38	0	
5	0	0	0	0	516	546	314	505	38	0	
6	0	0	0	0	515	551	314	511	38	0	
7	0	0	0	0	509	558	314	518	38	0	
8	0	0	0	0	502	562	314	524	38	0	
9	0	0	0	0	508	564	314	524	38	0	
10	0	0	0	0	499	565	314	527	38	0	
11	0	0	0	0	495	563	314	524	38	0	
12	0	0	0	0	496	558	315	523	38	0	
13	0	0	0	0	503	553	314	518	38	0	
14	0	0	0	0	505	548	314	513	38	0	
15	0	0	0	0	508	543	314	510	38	0	
0	0	0	0	0	511	539	315	506	38	0	
1	0	0	0	0	519	537	314	506	38	0	
2	0	0	0	0	504	537	314	502	38	0	
3	0	0	0	0	534	539	314	501	38	0	
4	0	0	0	0	520	543	314	504	38	0	
5	0	0	0	0	513	548	314	508	38	0	
6	0	0	0	0	512	555	314	512	38	0	
7	0	0	0	0	512	561	314	513	38	0	
8	0	0	0	0	508	566	314	516	38	0	
9	0	0	0	0	498	569	314	519	38	0	
10	0	0	0	0	502	569	314	521	38	0	
11	0	0	0	0	502	570	314	527	38	0	
12	0	0	0	0	503	566	314	520	38	0	
13	0	0	0	0	489	559	314	518	38	0	
14	0	0	0	0	498	551	314	512	38	0	
15	0	0	0	0	503	543	314	508	38	0	
0	0	0	0	0	511	537	314	507	38	0	
1	0	0	0	0	514	532	314	502	38	0	
2	0	0	0	0	511	530	314	501	38	0	
3	0	0	0	0	513	528	314	500	38	0	
4	0	0	0	0	524	529	315	502	38	0	
5	0	0	0	0	524	533	314	506	38	0	
6	0	0	0	0	512	539	314	512	38	0	
7	0	0	0	0	512	545	314	519	38	0	
8	0	0	0	0	514	551	314	518	38	0	
9	0	0	0	0	505	555	314	522	38	0	
10	0	0	0	0	500	560	314	524	38	0	
11	0	0	0	0	505	564	314	524	38	0	
12	0	0	0	0	496	566	314	524	38	0	
13	0	0	0	0	502	562	314	523	38	0	
14	0	0	0	0	494	557	314	519	38	0	
15	0	0	0	0	499	551	314	515	38	0	
0	0	0	0	0	504	545	314	511	38	0	
1	0	0	0	0	504	540	315	508	38	0	
2	0	0	0	0	513	539	314	506	38	0	
3	0	0	0	0	515	538	314	504	38	0	
4	0	0	0	0	519	539	314	501	38	0	
5	0	0	0	0	521	542	315	500	38	0	
6	0	0	0	0	523	546	314	500	38	0	
7	0	0	0	0	511	553	314	504	38	0	
8	0	0	0	0	510	561	314	508	38	0	
9	0	0	0	0	510	566	314	512	38	0	
10	0	0	0	0	503	571	314	514	38	0	
11	0	0	0	0	502	575	314	515	38	0	
12	0	0	0	0	502	577	314	516	38	0	
13	0	0	0	0	499	576	315	516	38	0	
14	0	0	0	0	499	572	314	514	38	0	
15	0	0	0	0	498	566	314	513	38	0	
0	0	0	0	0	504	560	314	512	38	0	
1	0	0	0	0	508	555	314	510	38	0	
2	0	0	0	0	511	549	314	507	38	0	
3	0	0	0	0	515	545	314	508	38	0	
4	0	0	0	0	516	542	314	511	38	0	
5	0	0	0	0	524	540	314	508	38	0	
6	0	0	0	0	523	541	314	510	38	0	
7	0	0	0	0	516	545	315	512	38	0	
8	0	0	0	0	510	550	314	515	38	0	
9	0	0	0	0	504	555	314	515	38	0	
10	0	0	0	0	503	558	314	519	38	0	
11	0	0	0	0	496	560	314	531	38	0	
12	0	0	0	0	509	562	314	522	38	0	
13	0	0	0	0	499	566	314	521	38	0	
14	0	0	0	0	495	564	314	517	38	0	
15	0	0	0	0	494	561	315	515	38	0	
0	0	0	0	0	506	554	314	511	38	0	
1	0	0	0	0	513	547	314	507	38	0	
2	0	0	0	0	518	541	314	504	38	0	
3	0	0	0	0	510	535	314	502	38	0	
4	0	0	0	0	510	531	314	502	38	0	
5	0	0	0	0	516	528	315	503	38	0	
6	0	0	0	0	520	529	314	498	38	0	
7	0	0	0	0	521	533	314	499	38	0	
8	0	0	0	0	523	537	314	509	38	0	
9	0	0	0	0	512	541	314	519	38	0	
10	0	0	0	0	509	545	314	524	38	0	
11	0	0	0	0	504	551	314	528	38	0	
12	0	0	0	0	498	554	314	530	38	0	
13	0	0	0	0	503	556	314	530	38	0	
14	0	0	0	0	495	557	314	528	38	0	
15	0	0	0	0	499	552	314	523	38	0	
0	0	0	0	0	496	546	314	518	38	0	
1	0	0	0	0	493	540	314	513	38	0	
2	0	0	0	0	505	535	314	508	38	0	
3	0	0	0	0	511	530	314	505	38	0	
4	0	0	0	0	517	526	314	502	38	0	
5	0	0	0	0	515	523	314	501	38	0	
6	0	0	0	0	523	521	314	500	38	0	
7	0	0	0	0	522	522	314	501	38	0	
8	0	0	0	0	519	526	314	505	38	0	
9	0	0	0	0	519	533	315	510	38	0	
10	0	0	0	0	516	538	314	512	38	0	
11	0	0	0	0	511	543	314	518	38	0	
12	0	0	0	0	504	547	314	522	38	0	
13	0	0	0	0	508	551	314	523	38	0	
14	0	0	0	0	499	553	314	523	38	0	
15	0	0	0	0	498	551	314	522	38	0	
0	0	0	0	0	494	544	314	518	38	0	
1	0	0	0	0	495	537	314	514	38	0	
2	0	0	0	0	503	531	314	510	38	0	
3	0	0	0	0	505	524	314	504	38	0	
4	0	0	0	0	512	519	314	502	38	0	
5	0	0	0	0	515	514	315	499	38	0	
6	0	0	0	0	515	511	314	499	38	0	
7	0	0	0	0	521	509	314	499	38	0	
8	0	0	0	0	521	511	314	500	38	0	
9	0	0	0	0	517	516	314	504	38	0	
10	0	0	0	0	509	522	314	508	38	0	
11	0	0	0	0	513	528	314	512	38	0	
12	0	0	0	0	508	535	314	518	38	0	
13	0	0	0	0	504	540	314	522	38	0	
14	0	0	0	0	500	542	314	526	38	0	
15	0	0	0	0	496	543	314	524	38	0	
0	0	0	0	0	500	539	314	522	38	0	
1	0	0	0	0	501	535	314	523	38	0	
2	0	0	0	0	491	528	314	515	38	0	
3	0	0	0	0	504	521	314	513	38	0	
4	0	0	0	0	506	516	314	508	38	0	
5	0	0	0	0	509	512	314	504	38	0	
6	0	0	0	0	515	509	314	502	38	0	
7	0	0	0	0	524	505	314	499	38	0	
8	0	0	0	0	521	505	314	501	38	0	
9	0	0	0	0	515	508	315	503	38	0	
10	0	0	0	0	519	511	314	505	38	0	
11	0	0	0	0	510	519	314	510	38	0	
12	0	0	0	0	504	526	314	512	38	0	
13	0	0	0	0	505	532	315	515	38	0	
14	0	0	0	0	505	536	314	515	38	0	
15	0	0	0	0	505	538	314	515	38	0	
0	0	0	0	0	493	539	314	516	38	0	
1	0	0	0	0	498	536	314	515	38	0	
2	0	0	0	0	500	531	314	513	38	0	
3	0	0	0	0	503	525	314	510	38	0	
4	0	0	0	0	508	518	314	507	38	0	
5	0	0	0	0	515	512	314	504	38	0	
6	0	0	0	0	513	508	314	504	38	0	
7	0	0	0	0	507	505	314	502	38	0	
8	0	0	0	0	518	504	314	501	38	0	
9	0	0	0	0	521	505	314	503	38	0	
10	0	0	0	0	523	510	314	505	38	0	
11	0	0	0	0	512	517	314	510	38	0	
12	0	0	0	0	507	522	314	516	38	0	
13	0	0	0	0	502	527	314	519	38	0	
14	0	0	0	0	507	529	314	520	38	0	
15	0	0	0	0	504	532	314	519	38	0	
0	0	0	0	0	501	534	314	519	38	0	
1	0	0	0	0	496	532	314	520	38	0	
2	0	0	0	0	502	527	314	516	38	0	
3	0	0	0	0	501	520	314	512	38	0	
4	0	0	0	0	504	515	314	509	38	0	
5	0	0	0	0	507	510	314	507	38	0	
6	0	0	0	0	507	504	315	506	38	0	
7	0	0	0	0	512	500	314	503	38	0	
8	0	0	0	0	511	497	314	502	38	0	
9	0	0	0	0	521	498	314	501	38	0	
10	0	0	0	0	515	500	314	503	38	0	
11	0	0	0	0	518	506	314	504	38	0	
12	0	0	0	0	516	514	314	507	38	0	
13	0	0	0	0	515	521	314	508	38	0	
14	0	0	0	0	505	527	314	513	38	0	
15	0	0	0	0	505	532	314	517	38	0	
0	0	0	0	0	495	534	314	517	38	0	
1	0	0	0	0	498	535	314	518	38	0	
2	0	0	0	0	499	531	314	518	38	0	
3	0	0	0	0	497	527	314	515	38	0	
4	0	0	0	0	496	520	314	513	38	0	
5	0	0	0	0	509	514	314	510	38	0	
6	0	0	0	0	507	509	314	507	38	0	
7	0	0	0	0	513	505	314	503	38	0	
8	0	0	0	0	516	502	314	501	38	0	
9	0	0	0	0	520	500	314	499	38	0	
10	0	0	0	0	519	502	314	500	38	0	
11	0	0	0	0	518	505	314	500	38	0	
12	0	0	0	0	519	511	314	502	38	0	
13	0	0	0	0	510	518	314	506	38	0	
14	0	0	0	0	505	523	314	508	38	0	
15	0	0	0	0	507	528	314	510	38	0	
0	0	0	0	0	499	531	314	512	38	0	
1	0	0	0	0	510	531	314	515	38	0	
2	0	0	0	0	496	531	314	516	38	0	
3	0	0	0	0	498	529	314	516	38	0	
4	0	0	0	0	494	526	314	512	38	0	
5	0	0	0	0	499	521	314	510	38	0	
6	0	0	0	0	511	516	314	507	38	0	
7	0	0	0	0	511	511	315	504	38	0	
8	0	0	0	0	515	509	314	503	38	0	
9	0	0	0	0	508	507	314	502	38	0	
10	0	0	0	0	518	508	314	503	38	0	
11	0	0	0	0	521	510	314	505	38	0	
12	0	0	0	0	514	516	315	509	38	0	
13	0	0	0	0	521	524	314	514	38	0	
14	0	0	0	0	507	531	314	519	38	0	
15	0	0	0	0	513	538	314	520	38	0	
0	0	0	0	0	504	543	314	521	38	0	
1	0	0	0	0	506	544	314	521	38	0	
2	0	0	0	0	498	546	314	528	38	0	
3	0	0	0	0	490	544	315	521	38	0	
4	0	0	0	0	498	542	314	521	38	0	
5	0	0	0	0	496	537	314	518	38	0	
6	0	0	0	0	503	531	314	514	38	0	
7	0	0	0	0	507	526	314	510	38	0	
8	0	0	0	0	517	523	314	506	38	0	
9	0	0	0	0	521	520	314	504	38	0	
10	0	0	0	0	510	518	314	504	38	0	
11	0	0	0	0	520	518	314	505	38	0	
12	0	0	0	0	519	521	314	511	38	0	
13	0	0	0	0	520	528	314	511	38	0	
14	0	0	0	0	516	536	314	514	38	0	
15	0	0	0	0	511	542	314	517	38	0	
0	0	0	0	0	504	548	314	520	38	0	
1	0	0	0	0	497	551	315	520	38	0	
2	0	0	0	0	500	553	314	519	38	0	
3	0	0	0	0	496	555	314	518	38	0	
4	0	0	0	0	496	555	314	517	38	0	
5	0	0	0	0	500	550	314	515	38	0	
6	0	0	0	0	502	543	314	510	38	0	
7	0	0	0	0	510	536	314	508	38	0	
8	0	0	0	0	510	532	315	505	38	0	
9	0	0	0	0	506	527	314	503	38	0	
10	0	0	0	0	515	524	314	503	38	0	
11	0	0	0	0	516	522	314	502	38	0	
12	0	0	0	0	514	524	314	501	38	0	
13	0	0	0	0	522	528	314	502	38	0	
14	0	0	0	0	519	534	314	504	38	0	
15	0	0	0	0	515	541	314	508	38	0	
0	0	0	0	0	513	547	314	511	38	0	
1	0	0	0	0	496	554	315	513	38	0	
2	0	0	0	0	501	560	314	515	38	0	
3	0	0	0	0	503	564	314	517	38	0	
4	0	0	0	0	497	564	314	518	38	0	
5	0	0	0	0	493	560	314	517	38	0	
6	0	0	0	0	496	555	314	513	38	0	
7	0	0	0	0	505	549	314	512	38	0	
8	0	0	0	0	509	543	314	507	38	0	
9	0	0	0	0	517	538	314	505	38	0	
10	0	0	0	0	515	534	315	503	38	0	
11	0	0	0	0	510	533	314	502	38	0	
12	0	0	0	0	514	533	315	501	38	0	
13	0	0	0	0	527	536	314	503	38	0	
14	0	0	0	0	516	543	315	505	38	0	
15	0	0	0	0	519	549	314	508	38	0	
0	0	0	0	0	512	555	314	512	38	0	
1	0	0	0	0	509	560	314	518	38	0	
2	0	0	0	0	502	563	314	522	38	0	
3	0	0	0	0	499	567	314	524	38	0	
4	0	0	0	0	494	570	314	526	38	0	
5	0	0	0	0	495	569	314	525	38	0	
6	0	0	0	0	492	564	314	524	38	0	
7	0	0	0	0	501	558	314	520	38	0	
8	0	0	0	0	503	551	314	516	38	0	
9	0	0	0	0	508	546	314	513	38	0	
10	0	0	0	0	512	543	314	508	38	0	
11	0	0	0	0	518	541	314	507	38	0	
12	0	0	0	0	507	539	314	505	38	0	
13	0	0	0	0	518	538	314	506	38	0	
14	0	0	0	0	526	540	315	507	38	0	
15	0	0	0	0	515	545	314	508	38	0	
0	0	0	0	0	522	551	314	512	38	0	
1	0	0	0	0	510	559	314	516	38	0	
2	0	0	0	0	504	566	315	523	38	0	
3	0	0	0	0	500	568	314	527	38	0	
4	0	0	0	0	505	571	314	529	38	0	
5	0	0	0	0	504	573	314	528	38	0	
6	0	0	0	0	499	572	314	525	38	0	
7	0	0	0	0	500	570	315	522	38	0	
8	0	0	0	0	502	564	314	516	38	0	
9	0	0	0	0	509	557	314	512	38	0	
10	0	0	0	0	502	551	314	508	38	0	
11	0	0	0	0	518	548	314	506	38	0	
12	0	0	0	0	519	548	315	503	38	0	
13	0	0	0	0	516	545	314	501	38	0	
14	0	0	0	0	524	545	315	500	38	0	
15	0	0	0	0	519	550	314	501	38	0	
0	0	0	0	0	514	556	314	508	38	0	
1	0	0	0	0	510	563	315	516	38	0	
2	0	0	0	0	501	570	314	521	38	0	
3	0	0	0	0	510	575	314	533	38	0	
4	0	0	0	0	502	580	314	527	38	0	
5	0	0	0	0	504	583	314	529	38	0	
6	0	0	0	0	491	583	315	527	38	0	
7	0	0	0	0	502	579	314	523	38	0	
8	0	0	0	0	502	573	314	518	38	0	
9	0	0	0	0	503	566	314	514	38	0	
10	0	0	0	0	508	560	314	510	38	0	
11	0	0	0	0	503	555	315	507	38	0	
12	0	0	0	0	517	550	314	502	38	0	
13	0	0	0	0	512	547	314	500	38	0	
14	0	0	0	0	519	545	314	500	38	0	
15	0	0	0	0	523	547	315	503	38	0	
0	0	0	0	0	518	551	314	503	38	0	
1	0	0	0	0	519	558	315	507	38	0	
2	0	0	0	0	505	564	314	510	38	0	
3	0	0	0	0	508	571	314	514	38	0	
4	0	0	0	0	504	575	314	517	38	0	
5	0	0	0	0	500	581	314	519	38	0	
6	0	0	0	0	502	583	315	528	38	0	
7	0	0	0	0	492	580	314	519	38	0	
8	0	0	0	0	499	576	314	517	38	0	
9	0	0	0	0	497	570	314	515	38	0	
10	0	0	0	0	508	564	314	512	38	0	
11	0	0	0	0	510	558	314	508	38	0	
12	0	0	0	0	515	553	314	504	38	0	
13	0	0	0	0	514	549	315	502	38	0	
14	0	0	0	0	511	547	315	500	38	0	
15	0	0	0	0	519	547	315	499	38	0	
0	0	0	0	0	527	551	314	501	38	0	
1	0	0	0	0	516	556	314	504	38	0	
2	0	0	0	0	521	563	314	508	38	0	
3	0	0	0	0	513	568	315	511	38	0	
4	0	0	0	0	504	575	315	516	38	0	
5	0	0	0	0	493	579	315	518	38	0	
6	0	0	0	0	504	583	314	519	38	0	
7	0	0	0	0	497	585	314	518	38	0	
8	0	0	0	0	498	584	314	516	38	0	
9	0	0	0	0	502	580	315	514	38	0	
10	0	0	0	0	504	571	314	511	38	0	
11	0	0	0	0	504	563	315	508	38	0	
12	0	0	0	0	508	558	315	504	38	0	
13	0	0	0	0	508	554	314	504	38	0	
14	0	0	0	0	521	551	315	502	38	0	
15	0	0	0	0	512	549	315	499	38	0	
0	0	0	0	0	521	550	315	499	38	0	
1	0	0	0	0	520	553	315	500	38	0	
2	0	0	0	0	523	559	314	503	38	0	
3	0	0	0	0	509	566	314	508	38	0	
4	0	0	0	0	510	573	314	513	38	0	
5	0	0	0	0	496	578	315	519	38	0	
6	0	0	0	0	501	582	315	520	38	0	
7	0	0	0	0	506	583	315	520	38	0	
8	0	0	0	0	492	583	315	519	38	0	
9	0	0	0	0	502	578	315	515	38	0	
10	0	0	0	0	507	573	314	513	38	0	
11	0	0	0	0	501	566	315	509	38	0	
12	0	0	0	0	506	560	314	505	38	0	
13	0	0	0	0	500	555	315	503	38	0	
14	0	0	0	0	512	551	314	501	38	0	
15	0	0	0	0	515	549	315	502	38	0	
0	0	0	0	0	523	548	314	504	38	0	
1	0	0	0	0	516	550	314	502	38	0	
2	0	0	0	0	517	554	314	504	38	0	
3	0	0	0	0	527	560	314	507	38	0	
4	0	0	0	0	518	567	315	515	38	0	
5	0	0	0	0	502	574	315	519	38	0	
6	0	0	0	0	504	579	314	523	38	0	
7	0	0	0	0	502	583	315	523	38	0	
8	0	0	0	0	497	585	314	520	38	0	
9	0	0	0	0	494	583	314	518	38	0	
10	0	0	0	0	494	578	315	513	38	0	
11	0	0	0	0	499	571	314	511	38	0	
12	0	0	0	0	498	563	315	508	38	0	
13	0	0	0	0	507	556	315	504	38	0	
14	0	0	0	0	507	549	315	499	38	0	
15	0	0	0	0	512	544	315	496	38	0	
0	0	0	0	0	518	542	315	497	38	0	
1	0	0	0	0	519	542	315	499	38	0	
2	0	0	0	0	511	546	315	500	38	0	
3	0	0	0	0	517	550	314	504	38	0	
4	0	0	0	0	519	556	315	508	38	0	
5	0	0	0	0	513	562	314	513	38	0	
6	0	0	0	0	511	568	315	517	38	0	
7	0	0	0	0	499	571	314	519	38	0	
8	0	0	0	0	503	572	314	521	38	0	
9	0	0	0	0	499	572	315	520	38	0	
10	0	0	0	0	498	567	315	519	38	0	
11	0	0	0	0	500	562	315	515	38	0	
12	0	0	0	0	500	555	315	512	38	0	
13	0	0	0	0	500	547	315	511	38	0	
14	0	0	0	0	506	543	315	504	38	0	
15	0	0	0	0	519	538	314	509	38	0	
0	0	0	0	0	512	535	315	501	38	0	
1	0	0	0	0	515	532	315	501	38	0	
2	0	0	0	0	516	533	315	503	38	0	
3	0	0	0	0	523	535	315	506	38	0	
4	0	0	0	0	524	540	315	508	38	0	
5	0	0	0	0	516	546	314	512	38	0	
6	0	0	0	0	507	550	315	515	38	0	
7	0	0	0	0	509	553	314	516	38	0	
8	0	0	0	0	504	558	314	519	38	0	
9	0	0	0	0	504	559	315	520	38	0	
10	0	0	0	0	491	558	315	519	38	0	
11	0	0	0	0	493	555	314	517	38	0	
12	0	0	0	0	492	549	315	513	38	0	
13	0	0	0	0	498	542	315	510	38	0	
14	0	0	0	0	508	536	314	505	38	0	
15	0	0	0	0	507	532	315	503	38	0	
0	0	0	0	0	517	529	315	499	38	0	
1	0	0	0	0	523	527	315	500	38	0	
2	0	0	0	0	519	526	314	501	38	0	
3	0	0	0	0	520	526	314	502	38	0	
4	0	0	0	0	519	529	315	503	38	0	
5	0	0	0	0	517	536	315	508	38	0	
6	0	0	0	0	512	542	315	512	38	0	
7	0	0	0	0	508	546	315	514	38	0	
8	0	0	0	0	504	550	314	516	38	0	
9	0	0	0	0	502	553	315	518	38	0	
10	0	0	0	0	502	553	315	518	38	0	
11	0	0	0	0	492	552	315	518	38	0	
12	0	0	0	0	494	548	315	517	38	0	
13	0	0	0	0	501	542	314	516	38	0	
14	0	0	0	0	506	534	315	515	38	0	
15	0	0	0	0	508	526	315	512	38	0	
0	0	0	0	0	514	520	314	510	38	0	
1	0	0	0	0	516	517	315	508	38	0	
2	0	0	0	0	511	513	315	508	38	0	
3	0	0	0	0	523	512	315	508	38	0	
4	0	0	0	0	511	514	315	510	38	0	
5	0	0	0	0	520	519	315	518	38	0	
6	0	0	0	0	512	526	315	514	38	0	
7	0	0	0	0	510	531	314	516	38	0	
8	0	0	0	0	508	536	315	518	38	0	
9	0	0	0	0	505	539	315	518	38	0	
10	0	0	0	0	509	542	315	519	38	0	
11	0	0	0	0	495	543	314	520	38	0	
12	0	0	0	0	496	542	315	516	38	0	
13	0	0	0	0	504	537	315	515	38	0	
14	0	0	0	0	504	530	315	515	38	0	
15	0	0	0	0	499	523	315	508	38	0	
0	0	0	0	0	516	517	315	505	38	0	
1	0	0	0	0	509	511	315	503	38	0	
2	0	0	0	0	509	508	315	502	38	0	
3	0	0	0	0	515	504	315	502	38	0	
4	0	0	0	0	519	504	315	503	38	0	
5	0	0	0	0	516	508	315	504	38	0	
6	0	0	0	0	522	514	315	510	38	0	
7	0	0	0	0	514	520	315	514	38	0	
8	0	0	0	0	507	525	315	519	38	0	
9	0	0	0	0	505	529	315	522	38	0	
10	0	0	0	0	504	534	315	522	38	0	
11	0	0	0	0	503	537	315	524	38	0	
12	0	0	0	0	491	537	315	522	38	0	
13	0	0	0	0	504	535	315	521	38	0	
14	0	0	0	0	498	529	315	517	38	0	
15	0	0	0	0	496	523	315	512	38	0	
0	0	0	0	0	512	517	315	508	38	0	
1	0	0	0	0	512	511	315	506	38	0	
2	0	0	0	0	517	507	315	504	38	0	
3	0	0	0	0	512	503	315	502	38	0	
4	0	0	0	0	514	501	315	501	38	0	
5	0	0	0	0	521	503	315	502	38	0	
6	0	0	0	0	520	508	315	506	38	0	
7	0	0	0	0	521	515	315	510	38	0	
8	0	0	0	0	508	521	315	516	38	0	
9	0	0	0	0	504	526	315	519	38	0	
10	0	0	0	0	505	529	315	522	38	0	
11	0	0	0	0	504	532	315	524	38	0	
12	0	0	0	0	499	534	315	523	38	0	
13	0	0	0	0	489	532	315	521	38	0	
14	0	0	0	0	497	529	315	519	38	0	
15	0	0	0	0	498	522	314	515	38	0	
0	0	0	0	0	505	516	315	513	38	0	
1	0	0	0	0	512	510	315	507	38	0	
2	0	0	0	0	513	505	315	504	38	0	
3	0	0	0	0	510	504	315	502	38	0	
4	0	0	0	0	515	504	315	500	38	0	
5	0	0	0	0	524	505	315	499	38	0	
6	0	0	0	0	528	509	315	502	38	0	
7	0	0	0	0	519	516	315	510	38	0	
8	0	0	0	0	514	524	315	516	38	0	
9	0	0	0	0	514	529	315	523	38	0	
10	0	0	0	0	504	534	315	527	38	0	
11	0	0	0	0	504	535	315	529	38	0	
12	0	0	0	0	502	537	315	530	38	0	
13	0	0	0	0	493	540	315	529	38	0	
14	0	0	0	0	499	538	314	525	38	0	
15	0	0	0	0	498	534	315	523	38	0	
0	0	0	0	0	496	527	315	521	38	0	
1	0	0	0	0	503	520	315	516	38	0	
2	0	0	0	0	504	515	315	513	38	0	
3	0	0	0	0	515	510	315	510	38	0	
4	0	0	0	0	516	507	315	508	38	0	
5	0	0	0	0	514	506	315	505	38	0	
6	0	0	0	0	524	508	315	504	38	0	
7	0	0	0	0	521	510	315	505	38	0	
8	0	0	0	0	519	515	315	509	38	0	
9	0	0	0	0	513	521	315	522	38	0	
10	0	0	0	0	506	527	314	519	38	0	
11	0	0	0	0	501	533	315	522	38	0	
12	0	0	0	0	505	536	315	525	38	0	
13	0	0	0	0	507	537	314	524	38	0	
14	0	0	0	0	498	538	315	523	38	0	
15	0	0	0	0	500	536	315	520	38	0	
0	0	0	0	0	500	532	315	516	38	0	
1	0	0	0	0	505	526	315	512	38	0	
2	0	0	0	0	509	521	315	506	38	0	
3	0	0	0	0	506	518	315	503	38	0	
4	0	0	0	0	508	514	315	502	38	0	
5	0	0	0	0	516	512	315	499	38	0	
6	0	0	0	0	518	510	315	498	38	0	
7	0	0	0	0	519	512	315	499	38	0	
8	0	0	0	0	519	519	315	500	38	0	
9	0	0	0	0	516	527	315	504	38	0	
10	0	0	0	0	510	534	315	510	38	0	
11	0	0	0	0	505	540	315	515	38	0	
12	0	0	0	0	504	544	315	519	38	0	
13	0	0	0	0	506	547	315	520	38	0	
14	0	0	0	0	500	549	315	520	38	0	
15	0	0	0	0	502	548	315	521	38	0	
0	0	0	0	0	496	545	315	519	38	0	
1	0	0	0	0	492	540	315	516	38	0	
2	0	0	0	0	503	533	315	510	38	0	
3	0	0	0	0	516	527	315	506	38	0	
4	0	0	0	0	508	521	315	510	38	0	
5	0	0	0	0	508	516	315	503	38	0	
6	0	0	0	0	513	513	315	502	38	0	
7	0	0	0	0	523	512	315	501	38	0	
8	0	0	0	0	526	515	315	502	38	0	
9	0	0	0	0	515	521	315	504	38	0	
10	0	0	0	0	519	529	315	509	38	0	
11	0	0	0	0	513	536	315	513	38	0	
12	0	0	0	0	503	543	315	519	38	0	
13	0	0	0	0	499	547	315	521	38	0	
14	0	0	0	0	503	550	315	524	38	0	
15	0	0	0	0	502	551	315	527	38	0	
0	0	0	0	0	495	549	315	524	38	0	
1	0	0	0	0	502	546	315	521	38	0	
2	0	0	0	0	499	541	315	516	38	0	
3	0	0	0	0	503	533	315	512	38	0	
4	0	0	0	0	516	525	315	508	38	0	
5	0	0	0	0	512	519	315	505	38	0	
6	0	0	0	0	514	514	315	505	38	0	
7	0	0	0	0	518	511	315	500	38	0	
8	0	0	0	0	510	511	315	501	38	0	
9	0	0	0	0	519	513	315	503	38	0	
10	0	0	0	0	521	517	315	505	38	0	
11	0	0	0	0	508	523	315	508	38	0	
12	0	0	0	0	508	529	315	512	38	0	
13	0	0	0	0	499	535	315	516	38	0	
14	0	0	0	0	500	540	315	520	38	0	
15	0	0	0	0	504	543	315	525	38	0	
0	0	0	0	0	498	544	315	521	38	0	
1	0	0	0	0	494	542	315	520	38	0	
2	0	0	0	0	495	537	315	517	38	0	
3	0	0	0	0	502	532	315	512	38	0	
4	0	0	0	0	511	527	315	508	38	0	
5	0	0	0	0	523	522	315	505	38	0	
6	0	0	0	0	505	519	315	502	38	0	
7	0	0	0	0	513	515	315	501	38	0	
8	0	0	0	0	518	515	315	500	38	0	
9	0	0	0	0	521	519	315	503	38	0	
10	0	0	0	0	515	523	315	504	38	0	
11	0	0	0	0	517	530	315	507	38	0	
12	0	0	0	0	513	537	315	511	38	0	
13	0	0	0	0	510	543	315	513	38	0	
14	0	0	0	0	505	546	315	514	38	0	
15	0	0	0	0	512	550	315	515	38	0	
0	0	0	0	0	502	551	315	519	38	0	
1	0	0	0	0	494	553	315	519	38	0	
2	0	0	0	0	500	551	315	519	38	0	
3	0	0	0	0	491	546	315	517	38	0	
4	0	0	0	0	501	540	315	513	38	0	
5	0	0	0	0	511	533	315	509	38	0	
6	0	0	0	0	510	527	315	507	38	0	
7	0	0	0	0	511	524	315	505	38	0	
8	0	0	0	0	517	522	315	505	38	0	
9	0	0	0	0	523	522	315	508	38	0	
10	0	0	0	0	524	525	315	505	38	0	
11	0	0	0	0	525	531	315	509	38	0	
12	0	0	0	0	515	540	315	515	38	0	
13	0	0	0	0	504	547	315	531	38	0	
14	0	0	0	0	504	552	315	543	38	0	
15	0	0	0	0	502	558	315	545	38	0	
0	0	0	0	0	505	562	315	544	38	0	
1	0	0	0	0	501	565	315	539	38	0	
2	0	0	0	0	495	563	315	534	38	0	
3	0	0	0	0	499	559	315	528	38	0	
4	0	0	0	0	502	552	315	520	38	0	
5	0	0	0	0	504	546	315	511	38	0	
6	0	0	0	0	508	540	315	504	38	0	
7	0	0	0	0	510	535	315	499	38	0	
8	0	0	0	0	510	532	315	500	38	0	
9	0	0	0	0	512	529	315	502	38	0	
10	0	0	0	0	519	530	315	500	38	0	
11	0	0	0	0	516	532	315	502	38	0	
12	0	0	0	0	520	537	315	504	38	0	
13	0	0	0	0	511	543	315	509	38	0	
14	0	0	0	0	513	548	315	511	38	0	
15	0	0	0	0	507	552	315	513	38	0	
0	0	0	0	0	501	554	315	517	38	0	
1	0	0	0	0	504	557	315	519	38	0	
2	0	0	0	0	496	558	315	519	38	0	
3	0	0	0	0	496	554	315	516	38	0	
4	0	0	0	0	504	550	315	515	38	0	
5	0	0	0	0	508	545	315	512	38	0	
6	0	0	0	0	503	538	315	510	38	0	
7	0	0	0	0	509	533	315	508	38	0	
8	0	0	0	0	515	529	315	506	38	0	
9	0	0	0	0	514	527	315	502	38	0	
10	0	0	0	0	510	525	315	500	38	0	
11	0	0	0	0	522	527	315	500	38	0	
12	0	0	0	0	517	531	315	500	38	0	
13	0	0	0	0	524	537	315	504	38	0	
14	0	0	0	0	508	542	315	504	38	0	
15	0	0	0	0	506	547	315	507	38	0	
0	0	0	0	0	502	553	315	511	38	0	
1	0	0	0	0	502	557	315	515	38	0	
2	0	0	0	0	505	560	315	516	38	0	
3	0	0	0	0	496	560	315	518	38	0	
4	0	0	0	0	501	558	315	514	38	0	
5	0	0	0	0	500	552	315	512	38	0	
6	0	0	0	0	504	547	315	511	38	0	
7	0	0	0	0	507	540	315	509	38	0	
8	0	0	0	0	510	535	315	505	38	0	
9	0	0	0	0	519	531	315	504	38	0	
10	0	0	0	0	516	529	315	502	38	0	
11	0	0	0	0	514	529	315	504	38	0	
12	0	0	0	0	521	530	315	504	38	0	
13	0	0	0	0	515	534	315	508	38	0	
14	0	0	0	0	516	540	315	511	38	0	
15	0	0	0	0	508	546	315	513	38	0	
0	0	0	0	0	504	550	315	515	38	0	
1	0	0	0	0	498	553	315	517	38	0	
2	0	0	0	0	501	556	315	519	38	0	
3	0	0	0	0	491	555	315	519	38	0	
4	0	0	0	0	498	553	315	519	38	0	
5	0	0	0	0	498	551	315	518	38	0	
6	0	0	0	0	496	544	315	515	38	0	
7	0	0	0	0	511	537	315	512	38	0	
8	0	0	0	0	508	531	315	510	38	0	
9	0	0	0	0	513	526	315	508	38	0	
10	0	0	0	0	514	523	315	505	38	0	
11	0	0	0	0	519	520	315	505	38	0	
12	0	0	0	0	523	521	315	504	38	0	
13	0	0	0	0	524	525	315	505	38	0	
14	0	0	0	0	524	529	315	507	38	0	
15	0	0	0	0	505	536	315	511	38	0	
0	0	0	0	0	503	543	315	515	38	0	
1	0	0	0	0	511	549	315	526	38	0	
2	0	0	0	0	499	552	315	519	38	0	
3	0	0	0	0	504	554	315	519	38	0	
4	0	0	0	0	498	554	315	517	38	0	
5	0	0	0	0	500	551	315	515	38	0	
6	0	0	0	0	498	546	315	519	38	0	
7	0	0	0	0	500	540	315	511	38	0	
8	0	0	0	0	508	535	315	509	38	0	
9	0	0	0	0	509	531	315	505	38	0	
10	0	0	0	0	515	527	315	504	38	0	
11	0	0	0	0	511	524	315	505	38	0	
12	0	0	0	0	515	524	315	503	38	0	
13	0	0	0	0	524	527	315	504	38	0	
14	0	0	0	0	517	533	315	504	38	0	
15	0	0	0	0	514	539	315	506	38	0	
0	0	0	0	0	510	545	315	510	38	0	
1	0	0	0	0	501	551	315	514	38	0	
2	0	0	0	0	509	555	315	520	38	0	
3	0	0	0	0	501	558	315	521	38	0	
4	0	0	0	0	499	559	315	522	38	0	
5	0	0	0	0	499	559	315	520	38	0	
6	0	0	0	0	496	556	315	518	38	0	
7	0	0	0	0	496	549	315	514	38	0	
8	0	0	0	0	506	543	316	510	38	0	
9	0	0	0	0	501	536	315	507	38	0	
10	0	0	0	0	510	530	315	504	38	0	
11	0	0	0	0	516	525	315	503	38	0	
12	0	0	0	0	515	522	315	501	38	0	
13	0	0	0	0	520	521	315	502	38	0	
14	0	0	0	0	521	523	315	502	38	0	
15	0	0	0	0	518	527	315	505	38	0	
0	0	0	0	0	521	534	315	508	38	0	
1	0	0	0	0	509	540	315	511	38	0	
2	0	0	0	0	509	546	315	516	38	0	
3	0	0	0	0	502	550	315	519	38	0	
4	0	0	0	0	497	554	316	520	38	0	
5	0	0	0	0	497	557	315	525	38	0	
6	0	0	0	0	493	558	315	518	38	0	
7	0	0	0	0	497	555	316	514	38	0	
8	0	0	0	0	499	550	315	511	38	0	
9	0	0	0	0	511	544	315	510	38	0	
10	0	0	0	0	505	539	315	506	38	0	
11	0	0	0	0	516	535	315	505	38	0	
12	0	0	0	0	518	532	315	505	38	0	
13	0	0	0	0	515	530	315	504	38	0	
14	0	0	0	0	523	530	315	503	38	0	
15	0	0	0	0	523	533	315	504	38	0	
0	0	0	0	0	512	540	315	507	38	0	
1	0	0	0	0	513	546	315	511	38	0	
2	0	0	0	0	503	553	315	516	38	0	
3	0	0	0	0	508	558	315	523	38	0	
4	0	0	0	0	507	563	315	521	38	0	
5	0	0	0	0	500	567	315	521	38	0	
6	0	0	0	0	495	568	315	521	38	0	
7	0	0	0	0	497	564	315	519	38	0	
8	0	0	0	0	491	559	315	515	38	0	
9	0	0	0	0	497	553	315	513	38	0	
10	0	0	0	0	504	548	315	511	38	0	
11	0	0	0	0	506	545	315	507	38	0	
12	0	0	0	0	518	542	315	504	38	0	
13	0	0	0	0	518	541	315	503	38	0	
14	0	0	0	0	523	540	315	502	38	0	
15	0	0	0	0	522	542	315	503	38	0	
0	0	0	0	0	519	546	315	504	38	0	
1	0	0	0	0	515	551	315	510	38	0	
2	0	0	0	0	501	555	315	514	38	0	
3	0	0	0	0	511	556	316	518	38	0	
4	0	0	0	0	504	555	315	521	38	0	
5	0	0	0	0	504	552	315	521	38	0	
6	0	0	0	0	505	549	315	521	38	0	
7	0	0	0	0	496	544	315	521	38	0	
8	0	0	0	0	495	535	315	519	38	0	
9	0	0	0	0	500	520	315	516	38	0	
10	0	0	0	0	499	507	315	511	38	0	
11	0	0	0	0	505	496	315	509	38	0	
12	0	0	0	0	511	488	315	505	38	0	
13	0	0	0	0	514	483	316	504	38	0	
14	0	0	0	0	524	477	315	503	38	0	
15	0	0	0	0	520	473	315	502	38	0	
0	0	0	0	0	527	470	316	503	38	0	
1	0	0	0	0	517	471	315	512	38	0	
2	0	0	0	0	516	473	315	509	38	0	
3	0	0	0	0	511	475	315	513	38	0	
4	0	0	0	0	505	479	315	517	38	0	
5	0	0	0	0	504	483	315	519	38	0	
6	0	0	0	0	509	483	315	527	38	0	
7	0	0	0	0	498	482	315	519	38	0	
8	0	0	0	0	500	479	315	519	38	0	
9	0	0	0	0	492	472	315	519	38	0	
10	0	0	0	0	496	463	315	515	38	0	
11	0	0	0	0	509	455	315	510	38	0	
12	0	0	0	0	506	446	315	508	38	0	
13	0	0	0	0	512	439	315	508	38	0	
14	0	0	0	0	511	433	315	503	38	0	
15	0	0	0	0	509	432	315	501	38	0	
0	0	0	0	0	519	433	315	500	38	0	
1	0	0	0	0	521	437	315	501	38	0	
2	0	0	0	0	518	445	315	505	38	0	
3	0	0	0	0	514	453	315	519	38	0	
4	0	0	0	0	512	462	315	538	38	0	
5	0	0	0	0	504	472	315	534	38	0	
6	0	0	0	0	499	480	315	536	38	0	
7	0	0	0	0	511	487	315	536	38	0	
8	0	0	0	0	491	492	315	533	38	0	
9	0	0	0	0	497	492	315	529	38	0	
10	0	0	0	0	495	491	315	526	38	0	
11	0	0	0	0	507	488	315	521	38	0	
12	0	0	0	0	511	485	315	518	38	0	
13	0	0	0	0	506	482	315	514	38	0	
14	0	0	0	0	512	480	315	511	38	0	
15	0	0	0	0	514	479	315	509	38	0	
0	0	0	0	0	523	481	315	509	38	0	
1	0	0	0	0	526	486	315	508	38	0	
2	0	0	0	0	522	493	315	509	38	0	
3	0	0	0	0	515	502	315	511	38	0	
4	0	0	0	0	506	511	315	517	38	0	
5	0	0	0	0	503	519	315	521	38	0	
6	0	0	0	0	508	524	315	524	38	0	
7	0	0	0	0	503	527	315	526	38	0	
8	0	0	0	0	505	529	315	526	38	0	
9	0	0	0	0	492	529	315	523	38	0	
10	0	0	0	0	495	528	315	519	38	0	
11	0	0	0	0	500	523	315	514	38	0	
12	0	0	0	0	506	517	315	508	38	0	
13	0	0	0	0	504	511	316	503	38	0	
14	0	0	0	0	507	505	315	501	38	0	
15	0	0	0	0	511	502	315	499	38	0	
0	0	0	0	0	514	500	315	499	38	0	
1	0	0	0	0	524	500	315	499	38	0	
2	0	0	0	0	524	504	315	500	38	0	
3	0	0	0	0	519	511	315	502	38	0	
4	0	0	0	0	521	519	315	506	38	0	
5	0	0	0	0	509	526	315	510	38	0	
6	0	0	0	0	505	534	315	512	38	0	
7	0	0	0	0	499	538	315	515	38	0	
8	0	0	0	0	504	540	315	517	38	0	
9	0	0	0	0	499	542	315	516	38	0	
10	0	0	0	0	499	539	315	516	38	0	
11	0	0	0	0	493	535	315	512	38	0	
12	0	0	0	0	496	528	315	509	38	0	
13	0	0	0	0	506	523	315	506	38	0	
14	0	0	0	0	509	518	315	502	38	0	
15	0	0	0	0	511	514	315	499	38	0	
0	0	0	0	0	517	512	315	499	38	0	
1	0	0	0	0	513	512	315	500	38	0	
2	0	0	0	0	521	514	315	502	38	0	
3	0	0	0	0	515	518	315	506	38	0	
4	0	0	0	0	520	524	315	508	38	0	
5	0	0	0	0	521	530	315	511	38	0	
6	0	0	0	0	510	535	315	514	38	0	
7	0	0	0	0	504	540	315	516	38	0	
8	0	0	0	0	510	542	315	516	38	0	
9	0	0	0	0	505	544	315	516	38	0	
10	0	0	0	0	493	544	315	516	38	0	
11	0	0	0	0	492	540	315	515	38	0	
12	0	0	0	0	493	535	315	513	38	0	
13	0	0	0	0	504	527	315	511	38	0	
14	0	0	0	0	507	520	315	507	38	0	
15	0	0	0	0	514	517	315	506	38	0	
0	0	0	0	0	511	515	315	504	38	0	
1	0	0	0	0	506	514	315	504	38	0	
2	0	0	0	0	514	513	315	502	38	0	
3	0	0	0	0	525	516	315	503	38	0	
4	0	0	0	0	521	520	315	505	38	0	
5	0	0	0	0	516	527	315	508	38	0	
6	0	0	0	0	511	533	315	512	38	0	
7	0	0	0	0	517	538	316	516	38	0	
8	0	0	0	0	500	542	315	517	38	0	
9	0	0	0	0	505	544	315	525	38	0	
10	0	0	0	0	497	544	315	519	38	0	
11	0	0	0	0	493	542	315	518	38	0	
12	0	0	0	0	495	540	316	516	38	0	
13	0	0	0	0	502	535	315	515	38	0	
14	0	0	0	0	505	529	315	511	38	0	
15	0	0	0	0	510	521	315	507	38	0	
0	0	0	0	0	505	515	315	502	38	0	
1	0	0	0	0	515	511	316	502	38	0	
2	0	0	0	0	518	508	315	503	38	0	
3	0	0	0	0	518	509	315	502	38	0	
4	0	0	0	0	515	511	315	505	38	0	
5	0	0	0	0	521	515	316	506	38	0	
6	0	0	0	0	513	521	315	510	38	0	
7	0	0	0	0	511	527	315	515	38	0	
8	0	0	0	0	506	535	315	521	38	0	
9	0	0	0	0	509	540	315	533	38	0	
10	0	0	0	0	505	542	315	527	38	0	
11	0	0	0	0	494	542	315	526	38	0	
12	0	0	0	0	492	539	315	524	38	0	
13	0	0	0	0	496	536	315	522	38	0	
14	0	0	0	0	502	527	315	517	38	0	
15	0	0	0	0	506	520	315	513	38	0	
0	0	0	0	0	515	515	315	517	38	0	
1	0	0	0	0	513	511	315	507	38	0	
2	0	0	0	0	508	510	315	505	38	0	
3	0	0	0	0	513	507	315	503	38	0	
4	0	0	0	0	520	508	315	503	38	0	
5	0	0	0	0	520	512	315	508	38	0	
6	0	0	0	0	519	517	315	504	38	0	
7	0	0	0	0	518	524	315	507	38	0	
8	0	0	0	0	511	528	315	508	38	0	
9	0	0	0	0	499	532	315	508	38	0	
10	0	0	0	0	502	535	315	511	38	0	
11	0	0	0	0	502	536	316	513	38	0	
12	0	0	0	0	494	536	315	513	38	0	
13	0	0	0	0	501	532	315	510	38	0	
14	0	0	0	0	496	528	316	509	38	0	
15	0	0	0	0	500	523	315	507	38	0	
0	0	0	0	0	510	517	315	503	38	0	
1	0	0	0	0	509	511	315	508	38	0	
2	0	0	0	0	518	507	315	499	38	0	
3	0	0	0	0	510	504	315	499	38	0	
4	0	0	0	0	512	503	315	499	38	0	
5	0	0	0	0	524	505	315	500	38	0	
6	0	0	0	0	519	509	315	509	38	0	
7	0	0	0	0	520	513	315	506	38	0	
8	0	0	0	0	508	519	315	510	38	0	
9	0	0	0	0	510	525	315	513	38	0	
10	0	0	0	0	509	529	315	516	38	0	
11	0	0	0	0	502	534	315	516	38	0	
12	0	0	0	0	493	537	315	518	38	0	
13	0	0	0	0	499	535	315	518	38	0	
14	0	0	0	0	499	530	315	519	38	0	
15	0	0	0	0	499	523	315	517	38	0	
0	0	0	0	0	501	517	315	514	38	0	
1	0	0	0	0	504	511	315	511	38	0	
2	0	0	0	0	514	505	315	508	38	0	
3	0	0	0	0	518	501	315	505	38	0	
4	0	0	0	0	515	499	315	505	38	0	
5	0	0	0	0	520	499	315	504	38	0	
6	0	0	0	0	522	502	315	505	38	0	
7	0	0	0	0	521	509	315	512	38	0	
8	0	0	0	0	515	518	316	508	38	0	
9	0	0	0	0	507	524	315	513	38	0	
10	0	0	0	0	510	527	315	516	38	0	
11	0	0	0	0	503	531	316	523	38	0	
12	0	0	0	0	504	534	315	532	38	0	
13	0	0	0	0	496	535	315	530	38	0	
14	0	0	0	0	492	533	315	528	38	0	
15	0	0	0	0	500	528	315	524	38	0	
0	0	0	0	0	498	522	315	521	38	0	
1	0	0	0	0	508	515	315	516	38	0	
2	0	0	0	0	508	508	315	511	38	0	
3	0	0	0	0	510	504	315	507	38	0	
4	0	0	0	0	514	501	315	503	38	0	
5	0	0	0	0	519	498	315	502	38	0	
6	0	0	0	0	523	499	316	504	38	0	
7	0	0	0	0	521	502	315	504	38	0	
8	0	0	0	0	516	507	315	507	38	0	
9	0	0	0	0	515	513	315	510	38	0	
10	0	0	0	0	510	519	315	513	38	0	
11	0	0	0	0	506	523	316	519	38	0	
12	0	0	0	0	498	525	315	525	38	0	
13	0	0	0	0	500	528	315	527	38	0	
14	0	0	0	0	492	528	316	527	38	0	
15	0	0	0	0	498	526	315	526	38	0	
0	0	0	0	0	500	521	315	524	38	0	
1	0	0	0	0	502	514	316	521	38	0	
2	0	0	0	0	507	507	315	516	38	0	
3	0	0	0	0	514	500	316	511	38	0	
4	0	0	0	0	516	497	316	507	38	0	
5	0	0	0	0	512	495	316	504	38	0	
6	0	0	0	0	519	494	315	503	38	0	
7	0	0	0	0	520	496	316	506	38	0	
8	0	0	0	0	520	500	316	504	38	0	
9	0	0	0	0	513	506	316	507	38	0	
10	0	0	0	0	513	511	315	510	38	0	
11	0	0	0	0	505	518	315	514	38	0	
12	0	0	0	0	509	523	315	518	38	0	
13	0	0	0	0	506	527	315	516	38	0	
14	0	0	0	0	497	527	315	515	38	0	
15	0	0	0	0	498	526	315	513	38	0	
0	0	0	0	0	499	523	315	510	38	0	
1	0	0	0	0	497	519	315	507	38	0	
2	0	0	0	0	504	513	316	505	38	0	
3	0	0	0	0	503	507	316	503	38	0	
4	0	0	0	0	510	504	316	501	38	0	
5	0	0	0	0	513	500	316	501	38	0	
6	0	0	0	0	511	495	316	502	38	0	
7	0	0	0	0	522	496	316	502	38	0	
8	0	0	0	0	523	498	316	504	38	0	
9	0	0	0	0	519	502	316	508	38	0	
10	0	0	0	0	523	509	316	513	38	0	
11	0	0	0	0	510	515	315	519	38	0	
12	0	0	0	0	505	520	316	523	38	0	
13	0	0	0	0	503	524	315	524	38	0	
14	0	0	0	0	496	527	316	524	38	0	
15	0	0	0	0	497	528	316	524	38	0	
0	0	0	0	0	494	526	316	521	38	0	
1	0	0	0	0	496	521	316	518	38	0	
2	0	0	0	0	497	513	316	515	38	0	
3	0	0	0	0	507	506	316	512	38	0	
4	0	0	0	0	510	499	316	510	38	0	
5	0	0	0	0	519	494	316	507	38	0	
6	0	0	0	0	512	489	316	507	38	0	
7	0	0	0	0	521	486	315	507	38	0	
8	0	0	0	0	523	486	316	507	38	0	
9	0	0	0	0	514	489	315	508	38	0	
10	0	0	0	0	514	495	316	508	38	0	
11	0	0	0	0	512	502	316	515	38	0	
12	0	0	0	0	511	508	316	522	38	0	
13	0	0	0	0	504	514	315	525	38	0	
14	0	0	0	0	500	518	316	524	38	0	
15	0	0	0	0	496	521	316	523	38	0	
0	0	0	0	0	493	523	316	521	38	0	
1	0	0	0	0	499	521	315	517	38	0	
2	0	0	0	0	496	516	315	515	38	0	
3	0	0	0	0	499	509	315	513	38	0	
4	0	0	0	0	506	503	315	509	38	0	
5	0	0	0	0	512	498	316	507	38	0	
6	0	0	0	0	512	494	316	507	38	0	
7	0	0	0	0	507	489	316	503	38	0	
8	0	0	0	0	520	486	315	500	38	0	
9	0	0	0	0	518	488	316	499	38	0	
10	0	0	0	0	520	494	316	501	38	0	
11	0	0	0	0	518	501	316	503	38	0	
12	0	0	0	0	519	508	316	513	38	0	
13	0	0	0	0	508	516	316	521	38	0	
14	0	0	0	0	509	520	316	525	38	0	
15	0	0	0	0	506	523	316	527	38	0	
0	0	0	0	0	508	524	315	525	38	0	
1	0	0	0	0	494	523	316	523	38	0	
2	0	0	0	0	488	519	316	520	38	0	
3	0	0	0	0	494	513	315	517	38	0	
4	0	0	0	0	499	506	316	514	38	0	
5	0	0	0	0	502	499	316	510	38	0	
6	0	0	0	0	510	495	316	508	38	0	
7	0	0	0	0	519	492	316	506	38	0	
8	0	0	0	0	516	489	316	505	38	0	
9	0	0	0	0	519	488	316	505	38	0	
10	0	0	0	0	519	492	316	507	38	0	
11	0	0	0	0	523	499	316	509	38	0	
12	0	0	0	0	520	505	316	520	38	0	
13	0	0	0	0	514	511	315	514	38	0	
14	0	0	0	0	508	516	316	515	38	0	
15	0	0	0	0	499	520	316	516	38	0	
0	0	0	0	0	500	523	316	517	38	0	
1	0	0	0	0	500	524	315	516	38	0	
2	0	0	0	0	493	522	315	514	38	0	
3	0	0	0	0	503	518	315	510	38	0	
4	0	0	0	0	496	513	316	508	38	0	
5	0	0	0	0	503	508	316	506	38	0	
6	0	0	0	0	508	504	316	504	38	0	
7	0	0	0	0	516	499	316	503	38	0	
8	0	0	0	0	512	497	316	500	38	0	
9	0	0	0	0	516	496	316	500	38	0	
10	0	0	0	0	519	497	316	503	38	0	
11	0	0	0	0	518	500	315	505	38	0	
12	0	0	0	0	514	504	315	509	38	0	
13	0	0	0	0	515	511	316	513	38	0	
14	0	0	0	0	504	518	316	515	38	0	
15	0	0	0	0	506	523	316	519	38	0	
0	0	0	0	0	499	526	315	524	38	0	
1	0	0	0	0	502	529	315	525	38	0	
2	0	0	0	0	496	530	315	525	38	0	
3	0	0	0	0	500	526	316	524	38	0	
4	0	0	0	0	495	521	316	520	38	0	
5	0	0	0	0	505	513	316	516	38	0	
6	0	0	0	0	503	506	316	513	38	0	
7	0	0	0	0	504	502	316	508	38	0	
8	0	0	0	0	512	498	316	505	38	0	
9	0	0	0	0	519	496	316	503	38	0	
10	0	0	0	0	522	494	316	500	38	0	
11	0	0	0	0	525	496	316	500	38	0	
12	0	0	0	0	515	500	316	502	38	0	
13	0	0	0	0	516	505	316	505	38	0	
14	0	0	0	0	506	509	316	508	38	0	
15	0	0	0	0	513	514	316	510	38	0	
0	0	0	0	0	511	517	316	514	38	0	
1	0	0	0	0	504	521	316	516	38	0	
2	0	0	0	0	498	525	316	518	38	0	
3	0	0	0	0	494	525	316	516	38	0	
4	0	0	0	0	498	520	316	515	38	0	
5	0	0	0	0	493	514	316	511	38	0	
6	0	0	0	0	501	509	316	507	38	0	
7	0	0	0	0	509	504	316	505	38	0	
8	0	0	0	0	510	501	316	503	38	0	
9	0	0	0	0	517	499	316	503	38	0	
10	0	0	0	0	522	498	316	502	38	0	
11	0	0	0	0	523	497	316	502	38	0	
12	0	0	0	0	524	501	316	503	38	0	
13	0	0	0	0	517	507	316	506	38	0	
14	0	0	0	0	510	513	316	512	38	0	
15	0	0	0	0	508	519	316	521	38	0	
0	0	0	0	0	502	524	316	524	38	0	
1	0	0	0	0	502	529	316	524	38	0	
2	0	0	0	0	503	534	316	528	38	0	
3	0	0	0	0	501	537	316	527	38	0	
4	0	0	0	0	496	535	316	524	38	0	
5	0	0	0	0	503	532	316	519	38	0	
6	0	0	0	0	499	527	316	512	38	0	
7	0	0	0	0	499	519	316	507	38	0	
8	0	0	0	0	511	515	316	503	38	0	
9	0	0	0	0	503	509	316	499	38	0	
10	0	0	0	0	516	506	316	499	38	0	
11	0	0	0	0	513	504	316	498	38	0	
12	0	0	0	0	522	505	316	499	38	0	
13	0	0	0	0	525	509	316	501	38	0	
14	0	0	0	0	516	514	316	504	38	0	
15	0	0	0	0	512	521	316	510	38	0	
0	0	0	0	0	503	528	316	513	38	0	
1	0	0	0	0	510	534	316	519	38	0	
2	0	0	0	0	504	537	316	522	38	0	
3	0	0	0	0	501	540	316	524	38	0	
4	0	0	0	0	493	540	316	524	38	0	
5	0	0	0	0	492	537	316	522	38	0	
6	0	0	0	0	499	532	316	519	38	0	
7	0	0	0	0	501	526	316	514	38	0	
8	0	0	0	0	506	520	316	508	38	0	
9	0	0	0	0	512	518	316	506	38	0	
10	0	0	0	0	519	514	316	504	38	0	
11	0	0	0	0	511	511	316	503	38	0	
12	0	0	0	0	511	508	316	502	38	0	
13	0	0	0	0	520	511	316	503	38	0	
14	0	0	0	0	519	517	316	507	38	0	
15	0	0	0	0	517	524	315	507	38	0	
0	0	0	0	0	509	534	316	510	38	0	
1	0	0	0	0	510	541	316	513	38	0	
2	0	0	0	0	506	546	316	516	38	0	
3	0	0	0	0	499	550	316	517	38	0	
4	0	0	0	0	506	552	316	518	38	0	
5	0	0	0	0	500	550	316	518	38	0	
6	0	0	0	0	500	546	316	516	38	0	
7	0	0	0	0	493	541	316	513	38	0	
8	0	0	0	0	504	535	316	511	38	0	
9	0	0	0	0	500	529	316	508	38	0	
10	0	0	0	0	511	524	316	507	38	0	
11	0	0	0	0	519	521	316	504	38	0	
12	0	0	0	0	510	518	316	503	38	0	
13	0	0	0	0	524	518	316	504	38	0	
14	0	0	0	0	528	523	316	503	38	0	
15	0	0	0	0	506	528	316	505	38	0	
0	0	0	0	0	516	534	316	508	38	0	
1	0	0	0	0	508	539	315	517	38	0	
2	0	0	0	0	508	544	316	526	38	0	
3	0	0	0	0	504	547	316	531	38	0	
4	0	0	0	0	508	550	316	533	38	0	
5	0	0	0	0	497	553	316	532	38	0	
6	0	0	0	0	490	552	316	530	38	0	
7	0	0	0	0	496	549	316	527	38	0	
8	0	0	0	0	499	543	316	521	38	0	
9	0	0	0	0	506	537	316	517	38	0	
10	0	0	0	0	515	532	316	509	38	0	
11	0	0	0	0	509	528	315	506	38	0	
12	0	0	0	0	510	526	316	502	38	0	
13	0	0	0	0	524	524	316	501	38	0	
14	0	0	0	0	527	525	316	503	38	0	
15	0	0	0	0	518	529	316	502	38	0	
0	0	0	0	0	518	533	316	502	38	0	
1	0	0	0	0	507	540	316	505	38	0	
2	0	0	0	0	513	545	316	509	38	0	
3	0	0	0	0	503	551	316	513	38	0	
4	0	0	0	0	507	555	316	515	38	0	
5	0	0	0	0	504	558	316	515	38	0	
6	0	0	0	0	492	559	316	517	38	0	
7	0	0	0	0	500	556	316	517	38	0	
8	0	0	0	0	499	551	316	514	38	0	
9	0	0	0	0	499	544	316	512	38	0	
10	0	0	0	0	502	539	316	509	38	0	
11	0	0	0	0	507	535	316	507	38	0	
12	0	0	0	0	516	532	316	504	38	0	
13	0	0	0	0	516	530	316	502	38	0	
14	0	0	0	0	516	529	316	500	38	0	
15	0	0	0	0	521	529	316	501	38	0	
0	0	0	0	0	512	531	316	502	38	0	
1	0	0	0	0	519	537	316	504	38	0	
2	0	0	0	0	510	543	316	507	38	0	
3	0	0	0	0	510	551	316	509	38	0	
4	0	0	0	0	502	556	316	511	38	0	
5	0	0	0	0	506	561	316	514	38	0	
6	0	0	0	0	502	562	316	513	38	0	
7	0	0	0	0	495	561	316	513	38	0	
8	0	0	0	0	493	557	316	512	38	0	
9	0	0	0	0	500	552	316	512	38	0	
10	0	0	0	0	506	545	316	510	38	0	
11	0	0	0	0	507	539	316	505	38	0	
12	0	0	0	0	511	534	316	503	38	0	
13	0	0	0	0	513	531	316	500	38	0	
14	0	0	0	0	513	527	316	499	38	0	
15	0	0	0	0	524	527	316	499	38	0	
0	0	0	0	0	521	531	316	499	38	0	
1	0	0	0	0	524	536	316	501	38	0	
2	0	0	0	0	517	543	316	503	38	0	
3	0	0	0	0	509	550	315	506	38	0	
4	0	0	0	0	500	556	316	510	38	0	
5	0	0	0	0	498	560	316	513	38	0	
6	0	0	0	0	504	563	316	517	38	0	
7	0	0	0	0	497	564	316	517	38	0	
8	0	0	0	0	495	562	316	518	38	0	
9	0	0	0	0	496	560	316	515	38	0	
10	0	0	0	0	498	556	316	512	38	0	
11	0	0	0	0	506	551	316	508	38	0	
12	0	0	0	0	507	545	316	504	38	0	
13	0	0	0	0	516	541	316	502	38	0	
14	0	0	0	0	514	539	316	500	38	0	
15	0	0	0	0	516	536	316	499	38	0	
0	0	0	0	0	526	536	316	499	38	0	
1	0	0	0	0	519	539	316	500	38	0	
2	0	0	0	0	513	543	316	503	38	0	
3	0	0	0	0	513	548	316	508	38	0	
4	0	0	0	0	511	553	316	516	38	0	
5	0	0	0	0	501	559	316	518	38	0	
6	0	0	0	0	508	562	316	519	38	0	
7	0	0	0	0	499	564	316	522	38	0	
8	0	0	0	0	502	566	316	524	38	0	
9	0	0	0	0	496	563	316	522	38	0	
10	0	0	0	0	499	559	316	521	38	0	
11	0	0	0	0	506	556	316	516	38	0	
12	0	0	0	0	503	552	316	513	38	0	
13	0	0	0	0	508	547	316	510	38	0	
14	0	0	0	0	513	542	316	507	38	0	
15	0	0	0	0	516	541	316	504	38	0	
0	0	0	0	0	513	540	316	503	38	0	
1	0	0	0	0	521	543	316	502	38	0	
2	0	0	0	0	517	547	316	502	38	0	
3	0	0	0	0	514	553	316	504	38	0	
4	0	0	0	0	512	560	316	509	38	0	
5	0	0	0	0	510	566	316	513	38	0	
6	0	0	0	0	508	571	316	516	38	0	
7	0	0	0	0	500	575	316	518	38	0	
8	0	0	0	0	505	578	316	516	38	0	
9	0	0	0	0	503	578	316	515	38	0	
10	0	0	0	0	504	575	316	512	38	0	
11	0	0	0	0	497	569	316	510	38	0	
12	0	0	0	0	508	563	316	508	38	0	
13	0	0	0	0	512	556	316	505	38	0	
14	0	0	0	0	506	552	316	504	38	0	
15	0	0	0	0	508	549	316	503	38	0	
0	0	0	0	0	512	547	316	501	38	0	
1	0	0	0	0	528	545	316	502	38	0	
2	0	0	0	0	514	547	316	504	38	0	
3	0	0	0	0	518	551	316	510	38	0	
4	0	0	0	0	519	558	316	514	38	0	
5	0	0	0	0	508	564	316	518	38	0	
6	0	0	0	0	511	570	316	520	38	0	
7	0	0	0	0	491	573	316	521	38	0	
8	0	0	0	0	501	576	316	523	38	0	
9	0	0	0	0	506	577	316	522	38	0	
10	0	0	0	0	494	576	316	520	38	0	
11	0	0	0	0	500	571	316	518	38	0	
12	0	0	0	0	502	563	316	515	38	0	
13	0	0	0	0	499	558	316	512	38	0	
14	0	0	0	0	506	553	316	514	38	0	
15	0	0	0	0	512	549	315	506	38	0	
0	0	0	0	0	519	547	316	505	38	0	
1	0	0	0	0	519	544	316	505	38	0	
2	0	0	0	0	517	546	316	507	38	0	
3	0	0	0	0	520	549	316	507	38	0	
4	0	0	0	0	525	554	316	510	38	0	
5	0	0	0	0	508	561	316	514	38	0	
6	0	0	0	0	506	567	316	517	38	0	
7	0	0	0	0	508	572	316	520	38	0	
8	0	0	0	0	503	576	316	523	38	0	
9	0	0	0	0	506	579	316	524	38	0	
10	0	0	0	0	497	579	316	522	38	0	
11	0	0	0	0	490	574	316	520	38	0	
12	0	0	0	0	498	568	316	516	38	0	
13	0	0	0	0	509	561	316	511	38	0	
14	0	0	0	0	508	554	316	507	38	0	
15	0	0	0	0	510	549	316	504	38	0	
0	0	0	0	0	510	546	316	503	38	0	
1	0	0	0	0	514	545	316	502	38	0	
2	0	0	0	0	511	544	316	501	38	0	
3	0	0	0	0	517	547	316	502	38	0	
4	0	0	0	0	518	551	316	504	38	0	
5	0	0	0	0	522	558	316	507	38	0	
6	0	0	0	0	509	565	316	511	38	0	
7	0	0	0	0	507	571	316	515	38	0	
8	0	0	0	0	508	577	316	520	38	0	
9	0	0	0	0	499	581	316	519	38	0	
10	0	0	0	0	499	584	316	519	38	0	
11	0	0	0	0	499	584	316	519	38	0	
12	0	0	0	0	502	582	316	517	38	0	
13	0	0	0	0	495	576	316	514	38	0	
14	0	0	0	0	504	570	316	511	38	0	
15	0	0	0	0	508	564	316	508	38	0	
0	0	0	0	0	517	560	316	503	38	0	
1	0	0	0	0	510	556	316	503	38	0	
2	0	0	0	0	514	552	316	502	38	0	
3	0	0	0	0	518	551	316	503	38	0	
4	0	0	0	0	523	553	316	505	38	0	
5	0	0	0	0	520	557	316	508	38	0	
6	0	0	0	0	520	563	316	512	38	0	
7	0	0	0	0	510	570	316	516	38	0	
8	0	0	0	0	505	577	316	521	38	0	
9	0	0	0	0	503	582	316	526	38	0	
10	0	0	0	0	501	585	316	532	38	0	
11	0	0	0	0	495	585	316	536	38	0	
12	0	0	0	0	499	583	316	533	38	0	
13	0	0	0	0	500	579	316	528	38	0	
14	0	0	0	0	502	571	316	522	38	0	
15	0	0	0	0	504	563	316	516	38	0	
0	0	0	0	0	507	557	316	511	38	0	
1	0	0	0	0	516	551	316	512	38	0	
2	0	0	0	0	514	548	316	507	38	0	
3	0	0	0	0	512	546	316	506	38	0	
4	0	0	0	0	523	546	316	507	38	0	
5	0	0	0	0	516	550	316	509	38	0	
6	0	0	0	0	508	555	316	511	38	0	
7	0	0	0	0	519	561	316	517	38	0	
8	0	0	0	0	508	566	316	523	38	0	
9	0	0	0	0	510	570	316	526	38	0	
10	0	0	0	0	509	575	316	527	38	0	
11	0	0	0	0	508	577	316	527	38	0	
12	0	0	0	0	496	577	316	526	38	0	
13	0	0	0	0	498	574	316	526	38	0	
14	0	0	0	0	502	568	316	523	38	0	
15	0	0	0	0	499	562	316	517	38	0	
0	0	0	0	0	504	554	316	511	38	0	
1	0	0	0	0	510	547	316	506	38	0	
2	0	0	0	0	509	543	316	504	38	0	
3	0	0	0	0	511	540	316	501	38	0	
4	0	0	0	0	526	539	316	500	38	0	
5	0	0	0	0	521	542	316	501	38	0	
6	0	0	0	0	518	546	316	504	38	0	
7	0	0	0	0	520	553	316	508	38	0	
8	0	0	0	0	514	560	316	513	38	0	
9	0	0	0	0	506	565	316	515	38	0	
10	0	0	0	0	503	568	316	517	38	0	
11	0	0	0	0	496	571	316	519	38	0	
12	0	0	0	0	506	572	316	521	38	0	
13	0	0	0	0	503	570	316	520	38	0	
14	0	0	0	0	489	566	316	519	38	0	
15	0	0	0	0	493	560	316	515	38	0	
0	0	0	0	0	506	554	316	512	38	0	
1	0	0	0	0	508	547	316	508	38	0	
2	0	0	0	0	510	543	316	505	38	0	
3	0	0	0	0	519	540	316	504	38	0	
4	0	0	0	0	518	538	316	502	38	0	
5	0	0	0	0	520	537	316	501	38	0	
6	0	0	0	0	515	540	316	502	38	0	
7	0	0	0	0	510	545	316	504	38	0	
8	0	0	0	0	516	553	316	509	38	0	
9	0	0	0	0	509	560	316	513	38	0	
10	0	0	0	0	513	566	316	517	38	0	
11	0	0	0	0	497	570	316	519	38	0	
12	0	0	0	0	501	572	316	519	38	0	
13	0	0	0	0	500	574	316	518	38	0	
14	0	0	0	0	496	571	316	515	38	0	
15	0	0	0	0	496	568	316	513	38	0	
0	0	0	0	0	499	561	316	510	38	0	
1	0	0	0	0	508	554	316	507	38	0	
2	0	0	0	0	508	548	316	504	38	0	
3	0	0	0	0	510	541	316	503	38	0	
4	0	0	0	0	519	537	316	503	38	0	
5	0	0	0	0	511	533	316	502	38	0	
6	0	0	0	0	522	533	316	502	38	0	
7	0	0	0	0	526	536	316	503	38	0	
8	0	0	0	0	513	542	316	504	38	0	
9	0	0	0	0	512	549	316	508	38	0	
10	0	0	0	0	506	555	316	512	38	0	
11	0	0	0	0	501	560	316	517	38	0	
12	0	0	0	0	503	564	316	519	38	0	
13	0	0	0	0	505	565	316	520	38	0	
14	0	0	0	0	495	565	316	520	38	0	
15	0	0	0	0	494	560	316	517	38	0	
0	0	0	0	0	494	555	316	516	38	0	
1	0	0	0	0	501	550	316	512	38	0	
2	0	0	0	0	503	543	316	510	38	0	
3	0	0	0	0	510	538	316	509	38	0	
4	0	0	0	0	511	534	316	506	38	0	
5	0	0	0	0	511	531	316	503	38	0	
6	0	0	0	0	521	528	316	502	38	0	
7	0	0	0	0	519	529	316	503	38	0	
8	0	0	0	0	513	534	316	504	38	0	
9	0	0	0	0	519	540	316	508	38	0	
10	0	0	0	0	503	546	316	512	38	0	
11	0	0	0	0	514	551	316	515	38	0	
12	0	0	0	0	507	555	316	518	38	0	
13	0	0	0	0	503	557	316	521	38	0	
14	0	0	0	0	509	558	316	521	38	0	
15	0	0	0	0	495	556	316	519	38	0	
0	0	0	0	0	491	551	316	515	38	0	
1	0	0	0	0	499	545	316	512	38	0	
2	0	0	0	0	505	539	316	507	38	0	
3	0	0	0	0	504	534	316	503	38	0	
4	0	0	0	0	522	530	316	502	38	0	
5	0	0	0	0	512	527	316	501	38	0	
6	0	0	0	0	519	524	316	503	38	0	
7	0	0	0	0	526	524	316	503	38	0	
8	0	0	0	0	515	526	316	505	38	0	
9	0	0	0	0	517	530	316	510	38	0	
10	0	0	0	0	515	537	316	515	38	0	
11	0	0	0	0	512	544	316	518	38	0	
12	0	0	0	0	504	550	316	523	38	0	
13	0	0	0	0	501	555	316	527	38	0	
14	0	0	0	0	494	559	316	529	38	0	
15	0	0	0	0	502	563	316	529	38	0	
0	0	0	0	0	494	561	316	526	38	0	
1	0	0	0	0	502	558	316	523	38	0	
2	0	0	0	0	489	551	316	519	38	0	
3	0	0	0	0	510	545	316	516	38	0	
4	0	0	0	0	517	539	316	512	38	0	
5	0	0	0	0	509	535	316	508	38	0	
6	0	0	0	0	515	532	316	505	38	0	
7	0	0	0	0	514	531	316	505	38	0	
8	0	0	0	0	523	532	316	502	38	0	
9	0	0	0	0	523	535	316	504	38	0	
10	0	0	0	0	518	540	316	504	38	0	
11	0	0	0	0	515	544	316	510	38	0	
12	0	0	0	0	505	550	316	515	38	0	
13	0	0	0	0	499	555	316	518	38	0	
14	0	0	0	0	502	558	316	519	38	0	
15	0	0	0	0	506	560	316	519	38	0	
0	0	0	0	0	495	559	316	515	38	0	
1	0	0	0	0	491	556	316	515	38	0	
2	0	0	0	0	490	549	316	520	38	0	
3	0	0	0	0	499	540	316	510	38	0	
4	0	0	0	0	509	534	316	504	38	0	
5	0	0	0	0	516	529	316	501	38	0	
6	0	0	0	0	516	525	316	499	38	0	
7	0	0	0	0	515	522	316	497	38	0	
8	0	0	0	0	525	521	316	495	38	0	
9	0	0	0	0	517	523	316	496	38	0	
10	0	0	0	0	517	527	316	502	38	0	
11	0	0	0	0	526	534	316	506	38	0	
12	0	0	0	0	505	540	316	512	38	0	
13	0	0	0	0	505	545	316	515	38	0	
14	0	0	0	0	502	550	316	516	38	0	
15	0	0	0	0	505	553	316	518	38	0	
0	0	0	0	0	506	555	316	519	38	0	
1	0	0	0	0	494	553	316	516	38	0	
2	0	0	0	0	502	549	316	515	38	0	
3	0	0	0	0	498	543	316	519	38	0	
4	0	0	0	0	508	536	316	511	38	0	
5	0	0	0	0	507	529	316	509	38	0	
6	0	0	0	0	517	524	316	507	38	0	
7	0	0	0	0	515	520	316	505	38	0	
8	0	0	0	0	510	518	316	504	38	0	
9	0	0	0	0	520	516	316	503	38	0	
10	0	0	0	0	520	520	316	504	38	0	
11	0	0	0	0	519	525	316	505	38	0	
12	0	0	0	0	517	532	316	509	38	0	
13	0	0	0	0	514	538	316	513	38	0	
14	0	0	0	0	514	543	316	515	38	0	
15	0	0	0	0	500	548	316	518	38	0	
0	0	0	0	0	503	551	316	519	38	0	
1	0	0	0	0	502	552	316	519	38	0	
2	0	0	0	0	494	549	316	519	38	0	
3	0	0	0	0	491	544	316	513	38	0	
4	0	0	0	0	487	538	316	509	38	0	
5	0	0	0	0	502	532	316	505	38	0	
6	0	0	0	0	510	524	316	504	38	0	
7	0	0	0	0	511	519	316	502	38	0	
8	0	0	0	0	510	515	316	499	38	0	
9	0	0	0	0	519	512	316	498	38	0	
10	0	0	0	0	527	513	316	499	38	0	
11	0	0	0	0	520	517	316	501	38	0	
12	0	0	0	0	524	522	316	505	38	0	
13	0	0	0	0	511	531	316	509	38	0	
14	0	0	0	0	503	537	316	522	38	0	
15	0	0	0	0	502	542	316	516	38	0	
0	0	0	0	0	512	545	316	518	38	0	
1	0	0	0	0	504	547	316	520	38	0	
2	0	0	0	0	497	548	316	524	38	0	
3	0	0	0	0	487	545	316	522	38	0	
4	0	0	0	0	495	541	316	519	38	0	
5	0	0	0	0	501	535	316	522	38	0	
6	0	0	0	0	507	528	316	511	38	0	
7	0	0	0	0	511	523	316	509	38	0	
8	0	0	0	0	516	519	316	506	38	0	
9	0	0	0	0	507	517	316	504	38	0	
10	0	0	0	0	522	516	316	503	38	0	
11	0	0	0	0	524	518	316	505	38	0	
12	0	0	0	0	526	521	316	507	38	0	
13	0	0	0	0	525	526	316	511	38	0	
14	0	0	0	0	511	530	316	521	38	0	
15	0	0	0	0	506	536	316	521	38	0	
0	0	0	0	0	507	541	316	526	38	0	
1	0	0	0	0	495	544	316	527	38	0	
2	0	0	0	0	500	546	316	527	38	0	
3	0	0	0	0	492	545	316	526	38	0	
4	0	0	0	0	493	543	316	524	38	0	
5	0	0	0	0	502	539	316	521	38	0	
6	0	0	0	0	502	533	316	518	38	0	
7	0	0	0	0	512	526	316	515	38	0	
8	0	0	0	0	506	521	316	512	38	0	
9	0	0	0	0	511	518	316	510	38	0	
10	0	0	0	0	510	515	316	509	38	0	
11	0	0	0	0	522	516	316	508	38	0	
12	0	0	0	0	522	520	316	510	38	0	
13	0	0	0	0	517	526	316	508	38	0	
14	0	0	0	0	512	534	316	512	38	0	
15	0	0	0	0	511	540	316	515	38	0	
0	0	0	0	0	508	545	316	519	38	0	
1	0	0	0	0	496	550	316	521	38	0	
2	0	0	0	0	504	552	316	521	38	0	
3	0	0	0	0	506	553	316	521	38	0	
4	0	0	0	0	502	551	316	517	38	0	
5	0	0	0	0	496	548	316	515	38	0	
6	0	0	0	0	501	542	316	510	38	0	
7	0	0	0	0	504	536	316	507	38	0	
8	0	0	0	0	507	529	316	504	38	0	
9	0	0	0	0	516	523	316	503	38	0	
10	0	0	0	0	513	519	316	503	38	0	
11	0	0	0	0	508	516	316	503	38	0	
12	0	0	0	0	523	517	316	504	38	0	
13	0	0	0	0	516	521	316	513	38	0	
14	0	0	0	0	527	526	316	508	38	0	
15	0	0	0	0	512	533	316	514	38	0	
0	0	0	0	0	504	539	316	519	38	0	
1	0	0	0	0	511	543	316	521	38	0	
2	0	0	0	0	495	548	316	523	38	0	
3	0	0	0	0	500	551	316	523	38	0	
4	0	0	0	0	492	554	316	522	38	0	
5	0	0	0	0	490	553	316	519	38	0	
6	0	0	0	0	499	550	316	516	38	0	
7	0	0	0	0	497	544	316	511	38	0	
8	0	0	0	0	514	537	316	508	38	0	
9	0	0	0	0	513	532	316	505	38	0	
10	0	0	0	0	514	528	316	503	38	0	
11	0	0	0	0	514	526	316	499	38	0	
12	0	0	0	0	515	524	316	499	38	0	
13	0	0	0	0	522	525	316	501	38	0	
14	0	0	0	0	521	528	316	506	38	0	
15	0	0	0	0	524	536	316	507	38	0	
0	0	0	0	0	513	542	316	512	38	0	
1	0	0	0	0	506	547	316	515	38	0	
2	0	0	0	0	497	552	316	519	38	0	
3	0	0	0	0	508	558	316	527	38	0	
4	0	0	0	0	507	561	316	520	38	0	
5	0	0	0	0	490	561	316	517	38	0	
6	0	0	0	0	501	557	316	513	38	0	
7	0	0	0	0	493	551	316	510	38	0	
8	0	0	0	0	500	546	316	508	38	0	
9	0	0	0	0	514	540	316	506	38	0	
10	0	0	0	0	512	534	316	504	38	0	
11	0	0	0	0	512	529	316	503	38	0	
12	0	0	0	0	512	526	316	502	38	0	
13	0	0	0	0	523	526	316	503	38	0	
14	0	0	0	0	525	528	316	504	38	0	
15	0	0	0	0	512	534	316	507	38	0	
0	0	0	0	0	518	541	316	510	38	0	
1	0	0	0	0	503	548	316	515	38	0	
2	0	0	0	0	506	556	316	518	38	0	
3	0	0	0	0	508	560	316	520	38	0	
4	0	0	0	0	506	564	316	519	38	0	
5	0	0	0	0	492	566	316	515	38	0	
6	0	0	0	0	494	564	316	515	38	0	
7	0	0	0	0	503	560	316	515	38	0	
8	0	0	0	0	493	554	316	513	38	0	
9	0	0	0	0	507	547	316	511	38	0	
10	0	0	0	0	511	542	316	510	38	0	
11	0	0	0	0	508	537	316	510	38	0	
12	0	0	0	0	519	535	316	509	38	0	
13	0	0	0	0	512	532	316	508	38	0	
14	0	0	0	0	519	534	316	508	38	0	
15	0	0	0	0	516	539	316	511	38	0	
0	0	0	0	0	524	545	316	513	38	0	
1	0	0	0	0	514	552	316	517	38	0	
2	0	0	0	0	512	560	316	519	38	0	
3	0	0	0	0	511	568	316	521	38	0	
4	0	0	0	0	500	572	316	521	38	0	
5	0	0	0	0	497	575	316	520	38	0	
6	0	0	0	0	496	576	316	519	38	0	
7	0	0	0	0	489	573	316	516	38	0	
8	0	0	0	0	497	569	316	514	38	0	
9	0	0	0	0	507	564	316	509	38	0	
10	0	0	0	0	508	559	316	504	38	0	
11	0	0	0	0	510	555	316	502	38	0	
12	0	0	0	0	517	552	316	500	38	0	
13	0	0	0	0	518	551	316	500	38	0	
14	0	0	0	0	513	550	316	501	38	0	
15	0	0	0	0	516	553	316	503	38	0	
0	0	0	0	0	522	558	316	505	38	0	
1	0	0	0	0	516	566	316	508	38	0	
2	0	0	0	0	513	574	316	513	38	0	
3	0	0	0	0	508	582	316	519	38	0	
4	0	0	0	0	507	589	316	523	38	0	
5	0	0	0	0	501	595	316	525	38	0	
6	0	0	0	0	503	599	316	530	38	0	
7	0	0	0	0	496	600	316	524	38	0	
8	0	0	0	0	492	598	316	521	38	0	
9	0	0	0	0	501	592	316	517	38	0	
10	0	0	0	0	498	585	316	513	38	0	
11	0	0	0	0	510	579	316	507	38	0	
12	0	0	0	0	507	571	316	504	38	0	
13	0	0	0	0	513	565	316	502	38	0	
14	0	0	0	0	514	559	316	500	38	0	
15	0	0	0	0	519	555	316	500	38	0	
0	0	0	0	0	517	553	316	501	38	0	
1	0	0	0	0	519	553	316	504	38	0	
2	0	0	0	0	522	554	316	509	38	0	
3	0	0	0	0	504	553	316	510	38	0	
4	0	0	0	0	507	553	316	513	38	0	
5	0	0	0	0	508	553	316	513	38	0	
6	0	0	0	0	502	551	316	513	38	0	
7	0	0	0	0	497	550	316	514	38	0	
8	0	0	0	0	492	545	316	513	38	0	
9	0	0	0	0	500	539	316	512	38	0	
10	0	0	0	0	500	529	316	512	38	0	
11	0	0	0	0	503	519	316	509	38	0	
12	0	0	0	0	500	508	316	507	38	0	
13	0	0	0	0	513	500	316	504	38	0	
14	0	0	0	0	514	495	316	502	38	0	
15	0	0	0	0	514	491	316	500	38	0	
0	0	0	0	0	520	490	316	500	38	0	
1	0	0	0	0	520	492	316	499	38	0	
2	0	0	0	0	522	495	316	503	38	0	
3	0	0	0	0	515	500	316	507	38	0	
4	0	0	0	0	510	504	316	512	38	0	
5	0	0	0	0	506	506	316	520	38	0	
6	0	0	0	0	499	508	316	526	38	0	
7	0	0	0	0	507	507	316	527	38	0	
8	0	0	0	0	503	505	316	526	38	0	
9	0	0	0	0	494	500	316	524	38	0	
10	0	0	0	0	496	495	316	526	38	0	
11	0	0	0	0	504	489	316	514	38	0	
12	0	0	0	0	504	485	316	510	38	0	
13	0	0	0	0	509	482	316	508	38	0	
14	0	0	0	0	512	481	316	505	38	0	
15	0	0	0	0	510	483	316	504	38	0	
0	0	0	0	0	517	486	316	505	38	0	
1	0	0	0	0	524	491	316	504	38	0	
2	0	0	0	0	525	499	316	505	38	0	
3	0	0	0	0	513	510	316	508	38	0	
4	0	0	0	0	505	520	316	515	38	0	
5	0	0	0	0	504	531	316	519	38	0	
6	0	0	0	0	506	539	316	526	38	0	
7	0	0	0	0	504	545	316	524	38	0	
8	0	0	0	0	501	549	316	524	38	0	
9	0	0	0	0	498	551	316	523	38	0	
10	0	0	0	0	492	551	316	520	38	0	
11	0	0	0	0	494	547	316	516	38	0	
12	0	0	0	0	505	543	316	512	38	0	
13	0	0	0	0	515	540	316	510	38	0	
14	0	0	0	0	519	536	316	506	38	0	
15	0	0	0	0	509	534	316	504	38	0	
0	0	0	0	0	515	532	316	504	38	0	
1	0	0	0	0	521	534	316	504	38	0	
2	0	0	0	0	517	538	316	507	38	0	
3	0	0	0	0	514	545	316	510	38	0	
4	0	0	0	0	521	553	316	511	38	0	
5	0	0	0	0	515	560	316	515	38	0	
6	0	0	0	0	497	567	316	519	38	0	
7	0	0	0	0	501	575	316	520	38	0	
8	0	0	0	0	506	580	316	521	38	0	
9	0	0	0	0	504	585	316	519	38	0	
10	0	0	0	0	497	586	316	518	38	0	
11	0	0	0	0	503	581	316	516	38	0	
12	0	0	0	0	500	575	316	510	38	0	
13	0	0	0	0	508	569	316	506	38	0	
14	0	0	0	0	506	563	316	504	38	0	
15	0	0	0	0	507	558	316	503	38	0	
0	0	0	0	0	514	555	316	501	38	0	
1	0	0	0	0	514	552	316	500	38	0	
2	0	0	0	0	527	551	316	502	38	0	
3	0	0	0	0	525	554	316	504	38	0	
4	0	0	0	0	520	558	316	507	38	0	
5	0	0	0	0	511	564	316	510	38	0	
6	0	0	0	0	506	570	316	513	38	0	
7	0	0	0	0	503	574	316	517	38	0	
8	0	0	0	0	507	577	316	527	38	0	
9	0	0	0	0	500	580	316	521	38	0	
10	0	0	0	0	492	579	316	521	38	0	
11	0	0	0	0	500	576	316	519	38	0	
12	0	0	0	0	496	571	316	516	38	0	
13	0	0	0	0	504	564	316	513	38	0	
14	0	0	0	0	505	558	316	510	38	0	
15	0	0	0	0	505	552	316	504	38	0	
0	0	0	0	0	518	549	316	502	38	0	
1	0	0	0	0	517	547	316	499	38	0	
2	0	0	0	0	516	544	316	498	38	0	
3	0	0	0	0	515	545	316	503	38	0	
4	0	0	0	0	518	549	316	508	38	0	
5	0	0	0	0	513	554	316	514	38	0	
6	0	0	0	0	508	557	316	521	38	0	
7	0	0	0	0	508	561	316	525	38	0	
8	0	0	0	0	504	565	316	527	38	0	
9	0	0	0	0	508	568	316	527	38	0	
10	0	0	0	0	502	569	316	527	38	0	
11	0	0	0	0	495	568	316	526	38	0	
12	0	0	0	0	499	565	316	521	38	0	
13	0	0	0	0	501	561	316	516	38	0	
14	0	0	0	0	504	554	316	510	38	0	
15	0	0	0	0	512	547	316	506	38	0	
0	0	0	0	0	516	542	316	503	38	0	
1	0	0	0	0	513	539	316	500	38	0	
2	0	0	0	0	511	537	316	499	38	0	
3	0	0	0	0	520	536	316	498	38	0	
4	0	0	0	0	525	539	316	499	38	0	
5	0	0	0	0	520	543	316	502	38	0	
6	0	0	0	0	513	548	316	508	38	0	
7	0	0	0	0	512	553	316	514	38	0	
8	0	0	0	0	505	558	316	521	38	0	
9	0	0	0	0	504	562	316	525	38	0	
10	0	0	0	0	495	565	316	523	38	0	
11	0	0	0	0	500	566	316	522	38	0	
12	0	0	0	0	498	563	316	519	38	0	
13	0	0	0	0	498	559	316	516	38	0	
14	0	0	0	0	496	552	316	513	38	0	
15	0	0	0	0	503	545	316	510	38	0	
0	0	0	0	0	510	539	316	505	38	0	
1	0	0	0	0	516	534	316	501	38	0	
2	0	0	0	0	512	531	316	500	38	0	
3	0	0	0	0	513	528	316	500	38	0	
4	0	0	0	0	517	528	316	502	38	0	
5	0	0	0	0	525	531	316	503	38	0	
6	0	0	0	0	518	537	316	507	38	0	
7	0	0	0	0	513	543	316	512	38	0	
8	0	0	0	0	504	548	316	515	38	0	
9	0	0	0	0	503	554	316	519	38	0	
10	0	0	0	0	500	558	316	522	38	0	
11	0	0	0	0	507	559	316	523	38	0	
12	0	0	0	0	499	559	316	524	38	0	
13	0	0	0	0	495	555	316	528	38	0	
14	0	0	0	0	496	548	316	517	38	0	
15	0	0	0	0	502	542	316	515	38	0	
0	0	0	0	0	505	537	316	512	38	0	
1	0	0	0	0	517	533	316	508	38	0	
2	0	0	0	0	517	528	316	506	38	0	
3	0	0	0	0	514	524	316	505	38	0	
4	0	0	0	0	523	521	316	504	38	0	
5	0	0	0	0	522	522	316	502	38	0	
6	0	0	0	0	518	526	316	505	38	0	
7	0	0	0	0	512	532	316	507	38	0	
8	0	0	0	0	505	538	316	512	38	0	
9	0	0	0	0	505	543	316	515	38	0	
10	0	0	0	0	513	547	316	519	38	0	
11	0	0	0	0	500	551	316	522	38	0	
12	0	0	0	0	508	553	316	523	38	0	
13	0	0	0	0	497	553	316	523	38	0	
14	0	0	0	0	504	550	316	521	38	0	
15	0	0	0	0	498	544	316	516	38	0	
0	0	0	0	0	501	540	316	512	38	0	
1	0	0	0	0	500	535	316	509	38	0	
2	0	0	0	0	509	530	316	506	38	0	
3	0	0	0	0	514	526	316	505	38	0	
4	0	0	0	0	525	522	316	504	38	0	
5	0	0	0	0	524	520	316	504	38	0	
6	0	0	0	0	514	521	316	504	38	0	
7	0	0	0	0	522	524	316	507	38	0	
8	0	0	0	0	513	531	316	508	38	0	
9	0	0	0	0	521	537	316	509	38	0	
10	0	0	0	0	503	542	316	512	38	0	
11	0	0	0	0	497	545	316	515	38	0	
12	0	0	0	0	500	548	316	516	38	0	
13	0	0	0	0	496	550	316	518	38	0	
14	0	0	0	0	493	548	316	514	38	0	
15	0	0	0	0	493	543	316	513	38	0	
0	0	0	0	0	505	537	316	510	38	0	
1	0	0	0	0	502	531	316	507	38	0	
2	0	0	0	0	510	527	316	504	38	0	
3	0	0	0	0	507	523	316	501	38	0	
4	0	0	0	0	515	521	316	499	38	0	
5	0	0	0	0	513	519	316	501	38	0	
6	0	0	0	0	525	519	316	500	38	0	
7	0	0	0	0	519	524	316	502	38	0	
8	0	0	0	0	523	530	316	506	38	0	
9	0	0	0	0	517	536	316	510	38	0	
10	0	0	0	0	512	542	316	519	38	0	
11	0	0	0	0	507	546	316	517	38	0	
12	0	0	0	0	499	549	316	519	38	0	
13	0	0	0	0	503	551	316	520	38	0	
14	0	0	0	0	493	551	316	521	38	0	
15	0	0	0	0	499	547	316	519	38	0	
0	0	0	0	0	497	541	316	518	38	0	
1	0	0	0	0	501	535	316	515	38	0	
2	0	0	0	0	505	529	316	511	38	0	
3	0	0	0	0	506	523	316	507	38	0	
4	0	0	0	0	510	518	316	504	38	0	
5	0	0	0	0	517	515	316	503	38	0	
6	0	0	0	0	514	514	316	502	38	0	
7	0	0	0	0	528	516	316	501	38	0	
8	0	0	0	0	521	520	316	503	38	0	
9	0	0	0	0	512	526	316	504	38	0	
10	0	0	0	0	513	532	316	508	38	0	
11	0	0	0	0	512	538	316	511	38	0	
12	0	0	0	0	503	542	316	512	38	0	
13	0	0	0	0	501	545	316	514	38	0	
14	0	0	0	0	504	546	316	518	38	0	
15	0	0	0	0	496	545	316	518	38	0	
0	0	0	0	0	499	541	316	526	38	0	
1	0	0	0	0	499	535	316	518	38	0	
2	0	0	0	0	512	529	316	516	38	0	
3	0	0	0	0	507	525	316	512	38	0	
4	0	0	0	0	508	519	316	511	38	0	
5	0	0	0	0	508	515	316	508	38	0	
6	0	0	0	0	510	514	316	505	38	0	
7	0	0	0	0	521	515	316	504	38	0	
8	0	0	0	0	520	519	316	507	38	0	
9	0	0	0	0	520	523	316	507	38	0	
10	0	0	0	0	518	528	316	509	38	0	
11	0	0	0	0	507	534	316	512	38	0	
12	0	0	0	0	503	540	316	515	38	0	
13	0	0	0	0	507	543	316	517	38	0	
14	0	0	0	0	505	545	316	519	38	0	
15	0	0	0	0	502	545	316	519	38	0	
0	0	0	0	0	490	542	316	518	38	0	
1	0	0	0	0	496	537	316	516	38	0	
2	0	0	0	0	499	531	316	514	38	0	
3	0	0	0	0	504	524	316	510	38	0	
4	0	0	0	0	510	518	316	508	38	0	
5	0	0	0	0	518	512	316	506	38	0	
6	0	0	0	0	517	508	316	504	38	0	
7	0	0	0	0	516	503	316	503	38	0	
8	0	0	0	0	528	503	316	502	38	0	
9	0	0	0	0	519	506	316	503	38	0	
10	0	0	0	0	518	511	316	507	38	0	
11	0	0	0	0	513	519	316	510	38	0	
12	0	0	0	0	505	525	316	514	38	0	
13	0	0	0	0	503	531	316	517	38	0	
14	0	0	0	0	502	534	316	518	38	0	
15	0	0	0	0	503	536	316	521	38	0	
0	0	0	0	0	496	536	316	523	38	0	
1	0	0	0	0	499	532	316	521	38	0	
2	0	0	0	0	497	527	316	518	38	0	
3	0	0	0	0	497	519	316	515	38	0	
4	0	0	0	0	512	513	316	511	38	0	
5	0	0	0	0	514	508	316	507	38	0	
6	0	0	0	0	510	503	316	503	38	0	
7	0	0	0	0	514	499	316	501	38	0	
8	0	0	0	0	515	499	316	503	38	0	
9	0	0	0	0	520	502	316	502	38	0	
10	0	0	0	0	515	507	316	504	38	0	
11	0	0	0	0	516	513	316	507	38	0	
12	0	0	0	0	507	520	316	512	38	0	
13	0	0	0	0	510	527	316	515	38	0	
14	0	0	0	0	503	531	316	517	38	0	
15	0	0	0	0	499	534	316	519	38	0	
0	0	0	0	0	503	537	316	517	38	0	
1	0	0	0	0	497	536	316	515	38	0	
2	0	0	0	0	502	531	316	513	38	0	
3	0	0	0	0	500	524	316	509	38	0	
4	0	0	0	0	504	518	316	507	38	0	
5	0	0	0	0	506	511	316	505	38	0	
6	0	0	0	0	512	504	316	504	38	0	
7	0	0	0	0	513	502	316	503	38	0	
8	0	0	0	0	515	500	316	504	38	0	
9	0	0	0	0	523	499	316	504	38	0	
10	0	0	0	0	512	502	316	506	38	0	
11	0	0	0	0	519	507	316	509	38	0	
12	0	0	0	0	523	513	316	512	38	0	
13	0	0	0	0	512	518	316	515	38	0	
14	0	0	0	0	500	523	316	517	38	0	
15	0	0	0	0	507	527	316	519	38	0	
0	0	0	0	0	499	530	316	519	38	0	
1	0	0	0	0	496	533	316	518	38	0	
2	0	0	0	0	499	531	316	519	38	0	
3	0	0	0	0	505	527	316	515	38	0	
4	0	0	0	0	494	523	316	512	38	0	
5	0	0	0	0	502	518	316	508	38	0	
6	0	0	0	0	511	513	316	504	38	0	
7	0	0	0	0	510	508	316	503	38	0	
8	0	0	0	0	511	504	316	502	38	0	
9	0	0	0	0	512	502	316	502	38	0	
10	0	0	0	0	521	502	316	502	38	0	
11	0	0	0	0	521	504	316	505	38	0	
12	0	0	0	0	524	509	316	510	38	0	
13	0	0	0	0	518	516	316	514	38	0	
14	0	0	0	0	502	521	316	518	38	0	
15	0	0	0	0	503	526	316	519	38	0	
0	0	0	0	0	501	529	316	520	38	0	
1	0	0	0	0	499	531	316	520	38	0	
2	0	0	0	0	494	532	316	519	38	0	
3	0	0	0	0	499	530	316	515	38	0	
4	0	0	0	0	499	525	316	510	38	0	
5	0	0	0	0	498	518	316	506	38	0	
6	0	0	0	0	508	509	316	504	38	0	
7	0	0	0	0	507	503	316	503	38	0	
8	0	0	0	0	508	499	316	503	38	0	
9	0	0	0	0	519	497	316	503	38	0	
10	0	0	0	0	517	496	316	501	38	0	
11	0	0	0	0	528	497	316	500	38	0	
12	0	0	0	0	518	500	316	502	38	0	
13	0	0	0	0	521	506	316	506	38	0	
14	0	0	0	0	516	513	316	518	38	0	
15	0	0	0	0	505	520	316	517	38	0	
0	0	0	0	0	498	526	316	523	38	0	
1	0	0	0	0	503	530	316	526	38	0	
2	0	0	0	0	496	531	316	528	38	0	
3	0	0	0	0	495	529	316	529	38	0	
4	0	0	0	0	495	526	316	524	38	0	
5	0	0	0	0	509	519	316	520	38	0	
6	0	0	0	0	508	511	316	516	38	0	
7	0	0	0	0	504	505	316	511	38	0	
8	0	0	0	0	507	501	316	506	38	0	
9	0	0	0	0	519	497	316	505	38	0	
10	0	0	0	0	511	494	316	504	38	0	
11	0	0	0	0	515	495	316	504	38	0	
12	0	0	0	0	524	499	316	504	38	0	
13	0	0	0	0	515	504	316	507	38	0	
14	0	0	0	0	518	510	316	511	38	0	
15	0	0	0	0	508	516	316	519	38	0	
0	0	0	0	0	500	521	316	525	38	0	
1	0	0	0	0	503	526	316	529	38	0	
2	0	0	0	0	509	530	316	528	38	0	
3	0	0	0	0	502	531	316	527	38	0	
4	0	0	0	0	498	530	316	524	38	0	
5	0	0	0	0	497	527	316	520	38	0	
6	0	0	0	0	499	521	316	517	38	0	
7	0	0	0	0	512	514	316	512	38	0	
8	0	0	0	0	508	509	316	510	38	0	
9	0	0	0	0	514	503	316	507	38	0	
10	0	0	0	0	521	499	316	505	38	0	
11	0	0	0	0	513	496	316	503	38	0	
12	0	0	0	0	519	494	316	503	38	0	
13	0	0	0	0	523	496	316	505	38	0	
14	0	0	0	0	519	500	316	504	38	0	
15	0	0	0	0	507	508	316	511	38	0	
0	0	0	0	0	505	515	316	515	38	0	
1	0	0	0	0	496	521	316	519	38	0	
2	0	0	0	0	506	526	316	524	38	0	
3	0	0	0	0	500	527	316	523	38	0	
4	0	0	0	0	491	528	316	523	38	0	
5	0	0	0	0	503	526	316	521	38	0	
6	0	0	0	0	497	521	316	518	38	0	
7	0	0	0	0	505	515	316	513	38	0	
8	0	0	0	0	508	510	316	511	38	0	
9	0	0	0	0	512	504	316	509	38	0	
10	0	0	0	0	513	499	316	506	38	0	
11	0	0	0	0	516	496	316	505	38	0	
12	0	0	0	0	519	493	316	505	38	0	
13	0	0	0	0	517	495	316	504	38	0	
14	0	0	0	0	521	500	316	504	38	0	
15	0	0	0	0	519	507	316	507	38	0	
0	0	0	0	0	511	515	316	512	38	0	
1	0	0	0	0	508	524	316	515	38	0	
2	0	0	0	0	497	531	316	519	38	0	
3	0	0	0	0	499	535	316	520	38	0	
4	0	0	0	0	503	537	316	520	38	0	
5	0	0	0	0	498	537	316	521	38	0	
6	0	0	0	0	495	534	316	519	38	0	
7	0	0	0	0	496	529	316	516	38	0	
8	0	0	0	0	505	523	316	513	38	0	
9	0	0	0	0	507	517	316	508	38	0	
10	0	0	0	0	519	510	316	505	38	0	
11	0	0	0	0	508	506	316	504	38	0	
12	0	0	0	0	512	504	316	504	38	0	
13	0	0	0	0	518	504	316	505	38	0	
14	0	0	0	0	519	506	316	504	38	0	
15	0	0	0	0	519	510	316	506	38	0	
0	0	0	0	0	520	517	316	509	38	0	
1	0	0	0	0	500	525	316	513	38	0	
2	0	0	0	0	503	530	316	520	38	0	
3	0	0	0	0	505	533	316	527	38	0	
4	0	0	0	0	499	535	316	528	38	0	
5	0	0	0	0	495	536	316	528	38	0	
6	0	0	0	0	494	533	316	526	38	0	
7	0	0	0	0	500	529	316	523	38	0	
8	0	0	0	0	500	523	316	519	38	0	
9	0	0	0	0	504	516	316	514	38	0	
10	0	0	0	0	513	510	316	508	38	0	
11	0	0	0	0	504	506	316	505	38	0	
12	0	0	0	0	517	504	316	503	38	0	
13	0	0	0	0	513	502	316	503	38	0	
14	0	0	0	0	526	503	316	500	38	0	
15	0	0	0	0	523	508	316	507	38	0	
0	0	0	0	0	522	513	316	504	38	0	
1	0	0	0	0	518	519	316	508	38	0	
2	0	0	0	0	509	525	316	512	38	0	
3	0	0	0	0	507	529	316	516	38	0	
4	0	0	0	0	500	533	316	527	38	0	
5	0	0	0	0	495	534	316	521	38	0	
6	0	0	0	0	495	534	316	522	38	0	
7	0	0	0	0	496	531	316	517	38	0	
8	0	0	0	0	501	527	316	512	38	0	
9	0	0	0	0	499	521	316	509	38	0	
10	0	0	0	0	509	514	316	506	38	0	
11	0	0	0	0	512	508	316	505	38	0	
12	0	0	0	0	514	503	316	505	38	0	
13	0	0	0	0	511	501	316	502	38	0	
14	0	0	0	0	514	499	316	502	38	0	
15	0	0	0	0	513	500	316	501	38	0	
0	0	0	0	0	520	504	316	503	38	0	
1	0	0	0	0	522	510	316	506	38	0	
2	0	0	0	0	519	515	316	512	38	0	
3	0	0	0	0	503	521	316	517	38	0	
4	0	0	0	0	507	524	316	518	38	0	
5	0	0	0	0	502	527	316	519	38	0	
6	0	0	0	0	500	530	316	519	38	0	
7	0	0	0	0	492	530	316	518	38	0	
8	0	0	0	0	504	527	316	515	38	0	
9	0	0	0	0	497	521	316	513	38	0	
10	0	0	0	0	508	517	316	511	38	0	
11	0	0	0	0	511	512	316	508	38	0	
12	0	0	0	0	508	508	316	507	38	0	
13	0	0	0	0	511	506	316	505	38	0	
14	0	0	0	0	509	504	316	504	38	0	
15	0	0	0	0	514	503	316	505	38	0	
0	0	0	0	0	523	505	316	507	38	0	
1	0	0	0	0	518	511	316	510	38	0	
2	0	0	0	0	512	519	316	514	38	0	
3	0	0	0	0	504	526	316	520	38	0	
4	0	0	0	0	508	531	316	526	38	0	
5	0	0	0	0	507	536	316	528	38	0	
6	0	0	0	0	504	539	316	528	38	0	
7	0	0	0	0	499	541	316	524	38	0	
8	0	0	0	0	501	540	316	519	38	0	
9	0	0	0	0	491	536	316	518	38	0	
10	0	0	0	0	502	530	316	511	38	0	
11	0	0	0	0	500	524	316	507	38	0	
12	0	0	0	0	515	518	316	504	38	0	
13	0	0	0	0	508	514	316	505	38	0	
14	0	0	0	0	514	511	316	502	38	0	
15	0	0	0	0	511	508	316	503	38	0	
0	0	0	0	0	528	508	316	502	38	0	
1	0	0	0	0	520	511	316	504	38	0	
2	0	0	0	0	518	516	316	507	38	0	
3	0	0	0	0	519	524	316	513	38	0	
4	0	0	0	0	499	532	316	519	38	0	
5	0	0	0	0	504	537	316	524	38	0	
6	0	0	0	0	498	541	316	524	38	0	
7	0	0	0	0	502	542	316	522	38	0	
8	0	0	0	0	496	542	316	523	38	0	
9	0	0	0	0	492	539	316	521	38	0	
10	0	0	0	0	493	534	316	519	38	0	
11	0	0	0	0	509	527	316	515	38	0	
12	0	0	0	0	506	521	316	511	38	0	
13	0	0	0	0	510	515	316	510	38	0	
14	0	0	0	0	512	512	316	510	38	0	
15	0	0	0	0	509	510	316	508	38	0	
0	0	0	0	0	521	508	316	508	38	0	
1	0	0	0	0	523	509	316	509	38	0	
2	0	0	0	0	520	513	316	511	38	0	
3	0	0	0	0	514	520	316	514	38	0	
4	0	0	0	0	511	527	316	516	38	0	
5	0	0	0	0	510	535	316	516	38	0	
6	0	0	0	0	511	540	316	519	38	0	
7	0	0	0	0	500	543	316	521	38	0	
8	0	0	0	0	503	546	316	524	38	0	
9	0	0	0	0	495	546	316	520	38	0	
10	0	0	0	0	493	544	316	517	38	0	
11	0	0	0	0	492	540	316	515	38	0	
12	0	0	0	0	504	534	316	512	38	0	
13	0	0	0	0	501	526	316	508	38	0	
14	0	0	0	0	514	519	316	505	38	0	
15	0	0	0	0	517	515	316	503	38	0	
0	0	0	0	0	514	512	316	503	38	0	
1	0	0	0	0	520	512	316	503	38	0	
2	0	0	0	0	519	514	316	504	38	0	
3	0	0	0	0	514	519	316	508	38	0	
4	0	0	0	0	512	526	316	512	38	0	
5	0	0	0	0	519	533	316	515	38	0	
6	0	0	0	0	504	540	316	525	38	0	
7	0	0	0	0	509	543	316	521	38	0	
8	0	0	0	0	508	547	316	521	38	0	
9	0	0	0	0	494	549	316	521	38	0	
10	0	0	0	0	487	547	316	519	38	0	
11	0	0	0	0	498	543	316	517	38	0	
12	0	0	0	0	495	538	316	512	38	0	
13	0	0	0	0	510	531	316	508	38	0	
14	0	0	0	0	510	525	316	503	38	0	
15	0	0	0	0	512	520	316	500	38	0	
0	0	0	0	0	504	518	316	498	38	0	
1	0	0	0	0	522	517	316	497	38	0	
2	0	0	0	0	520	519	316	499	38	0	
3	0	0	0	0	519	524	316	499	38	0	
4	0	0	0	0	517	531	316	502	38	0	
5	0	0	0	0	518	539	316	508	38	0	
6	0	0	0	0	511	544	316	513	38	0	
7	0	0	0	0	504	550	316	519	38	0	
8	0	0	0	0	498	555	316	523	38	0	
9	0	0	0	0	501	558	316	522	38	0	
10	0	0	0	0	494	561	316	521	38	0	
11	0	0	0	0	491	560	316	519	38	0	
12	0	0	0	0	498	555	316	516	38	0	
13	0	0	0	0	500	549	316	512	38	0	
14	0	0	0	0	509	543	316	507	38	0	
15	0	0	0	0	515	538	316	505	38	0	
0	0	0	0	0	519	535	316	504	38	0	
1	0	0	0	0	513	532	316	503	38	0	
2	0	0	0	0	512	531	316	505	38	0	
3	0	0	0	0	526	532	316	507	38	0	
4	0	0	0	0	516	536	316	512	38	0	
5	0	0	0	0	513	541	316	517	38	0	
6	0	0	0	0	512	547	316	520	38	0	
7	0	0	0	0	508	553	316	522	38	0	
8	0	0	0	0	510	559	316	523	38	0	
9	0	0	0	0	500	562	316	523	38	0	
10	0	0	0	0	502	564	316	522	38	0	
11	0	0	0	0	494	564	316	519	38	0	
12	0	0	0	0	498	561	316	518	38	0	
13	0	0	0	0	502	556	316	514	38	0	
14	0	0	0	0	509	550	316	509	38	0	
15	0	0	0	0	504	543	316	504	38	0	
0	0	0	0	0	507	536	316	500	38	0	
1	0	0	0	0	509	530	316	497	38	0	
2	0	0	0	0	515	528	316	496	38	0	
3	0	0	0	0	518	528	316	497	38	0	
4	0	0	0	0	522	531	316	500	38	0	
5	0	0	0	0	526	536	316	503	38	0	
6	0	0	0	0	514	543	316	509	38	0	
7	0	0	0	0	510	550	316	512	38	0	
8	0	0	0	0	505	556	316	515	38	0	
9	0	0	0	0	500	560	316	516	38	0	
10	0	0	0	0	497	563	316	518	38	0	
11	0	0	0	0	504	565	316	518	38	0	
12	0	0	0	0	497	563	316	518	38	0	
13	0	0	0	0	493	559	316	515	38	0	
14	0	0	0	0	500	551	316	512	38	0	
15	0	0	0	0	510	545	316	510	38	0	
0	0	0	0	0	511	539	316	509	38	0	
1	0	0	0	0	515	534	316	507	38	0	
2	0	0	0	0	511	531	316	506	38	0	
3	0	0	0	0	517	528	316	505	38	0	
4	0	0	0	0	514	527	316	505	38	0	
5	0	0	0	0	516	532	316	507	38	0	
6	0	0	0	0	524	537	316	517	38	0	
7	0	0	0	0	514	544	316	516	38	0	
8	0	0	0	0	512	550	316	520	38	0	
9	0	0	0	0	506	554	316	528	38	0	
10	0	0	0	0	504	556	316	534	38	0	
11	0	0	0	0	507	559	316	533	38	0	
12	0	0	0	0	491	560	316	531	38	0	
13	0	0	0	0	490	559	316	527	38	0	
14	0	0	0	0	491	555	316	523	38	0	
15	0	0	0	0	504	547	316	517	38	0	
0	0	0	0	0	507	540	316	512	38	0	
1	0	0	0	0	513	534	316	508	38	0	
2	0	0	0	0	508	528	316	505	38	0	
3	0	0	0	0	508	525	316	503	38	0	
4	0	0	0	0	521	523	316	503	38	0	
5	0	0	0	0	520	525	316	507	38	0	
6	0	0	0	0	516	530	316	504	38	0	
7	0	0	0	0	518	536	316	506	38	0	
8	0	0	0	0	519	543	316	509	38	0	
9	0	0	0	0	506	550	316	513	38	0	
10	0	0	0	0	508	554	316	516	38	0	
11	0	0	0	0	504	557	316	520	38	0	
12	0	0	0	0	504	558	316	520	38	0	
13	0	0	0	0	488	558	316	519	38	0	
14	0	0	0	0	491	554	316	518	38	0	
15	0	0	0	0	494	548	316	516	38	0	
0	0	0	0	0	505	542	316	512	38	0	
1	0	0	0	0	513	536	316	508	38	0	
2	0	0	0	0	511	532	316	504	38	0	
3	0	0	0	0	514	527	316	503	38	0	
4	0	0	0	0	511	523	316	507	38	0	
5	0	0	0	0	514	522	316	502	38	0	
6	0	0	0	0	519	524	316	503	38	0	
7	0	0	0	0	519	528	316	503	38	0	
8	0	0	0	0	519	534	316	505	38	0	
9	0	0	0	0	513	541	316	514	38	0	
10	0	0	0	0	504	548	316	521	38	0	
11	0	0	0	0	501	551	316	524	38	0	
12	0	0	0	0	503	554	316	525	38	0	
13	0	0	0	0	500	556	316	526	38	0	
14	0	0	0	0	497	554	316	530	38	0	
15	0	0	0	0	503	552	316	519	38	0	
0	0	0	0	0	501	546	316	512	38	0	
1	0	0	0	0	512	540	316	508	38	0	
2	0	0	0	0	499	535	316	504	38	0	
3	0	0	0	0	502	530	316	503	38	0	
4	0	0	0	0	513	527	316	500	38	0	
5	0	0	0	0	520	525	316	502	38	0	
6	0	0	0	0	525	525	316	500	38	0	
7	0	0	0	0	518	527	316	500	38	0	
8	0	0	0	0	515	531	316	503	38	0	
9	0	0	0	0	514	537	316	509	38	0	
10	0	0	0	0	510	543	316	523	38	0	
11	0	0	0	0	500	547	316	519	38	0	
12	0	0	0	0	497	550	316	523	38	0	
13	0	0	0	0	505	551	316	525	38	0	
14	0	0	0	0	499	551	316	524	38	0	
15	0	0	0	0	497	547	316	521	38	0	
0	0	0	0	0	499	541	316	518	38	0	
1	0	0	0	0	504	532	316	513	38	0	
2	0	0	0	0	515	526	316	508	38	0	
3	0	0	0	0	510	521	316	507	38	0	
4	0	0	0	0	512	517	316	504	38	0	
5	0	0	0	0	506	516	316	503	38	0	
6	0	0	0	0	514	514	316	503	38	0	
7	0	0	0	0	522	515	316	505	38	0	
8	0	0	0	0	519	520	316	508	38	0	
9	0	0	0	0	514	526	316	510	38	0	
10	0	0	0	0	511	532	316	516	38	0	
11	0	0	0	0	505	537	316	520	38	0	
12	0	0	0	0	509	542	316	521	38	0	
13	0	0	0	0	503	545	316	522	38	0	
14	0	0	0	0	507	546	316	524	38	0	
15	0	0	0	0	495	546	316	518	38	0	
0	0	0	0	0	494	543	316	515	38	0	
1	0	0	0	0	499	537	316	511	38	0	
2	0	0	0	0	503	531	316	508	38	0	
3	0	0	0	0	511	526	316	504	38	0	
4	0	0	0	0	515	521	316	504	38	0	
5	0	0	0	0	508	518	316	502	38	0	
6	0	0	0	0	508	516	316	499	38	0	
7	0	0	0	0	521	516	316	498	38	0	
8	0	0	0	0	518	519	316	500	38	0	
9	0	0	0	0	522	525	316	503	38	0	
10	0	0	0	0	517	531	316	509	38	0	
11	0	0	0	0	508	538	316	512	38	0	
12	0	0	0	0	510	544	316	519	38	0	
13	0	0	0	0	508	550	316	524	38	0	
14	0	0	0	0	498	553	316	526	38	0	
15	0	0	0	0	497	555	316	525	38	0	
0	0	0	0	0	495	554	316	520	38	0	
1	0	0	0	0	501	551	316	516	38	0	
2	0	0	0	0	495	546	316	511	38	0	
3	0	0	0	0	508	540	316	505	38	0	
4	0	0	0	0	507	535	316	500	38	0	
5	0	0	0	0	517	532	316	497	38	0	
6	0	0	0	0	512	529	316	495	38	0	
7	0	0	0	0	513	527	316	495	38	0	
8	0	0	0	0	517	526	316	495	38	0	
9	0	0	0	0	519	528	316	498	38	0	
10	0	0	0	0	523	531	316	504	38	0	
11	0	0	0	0	519	536	316	510	38	0	
12	0	0	0	0	505	542	316	515	38	0	
13	0	0	0	0	503	547	316	519	38	0	
14	0	0	0	0	507	551	316	519	38	0	
15	0	0	0	0	496	555	316	525	38	0	
0	0	0	0	0	495	557	316	518	38	0	
1	0	0	0	0	495	555	316	515	38	0	
2	0	0	0	0	500	551	316	512	38	0	
3	0	0	0	0	500	544	316	511	38	0	
4	0	0	0	0	507	538	316	509	38	0	
5	0	0	0	0	511	533	316	505	38	0	
6	0	0	0	0	512	529	316	503	38	0	
7	0	0	0	0	505	527	316	500	38	0	
8	0	0	0	0	520	527	316	499	38	0	
9	0	0	0	0	519	528	316	498	38	0	
10	0	0	0	0	522	532	316	500	38	0	
11	0	0	0	0	515	537	316	503	38	0	
12	0	0	0	0	515	543	316	508	38	0	
13	0	0	0	0	507	549	316	516	38	0	
14	0	0	0	0	507	553	316	519	38	0	
15	0	0	0	0	497	558	316	523	38	0	
0	0	0	0	0	502	560	316	523	38	0	
1	0	0	0	0	496	560	316	519	38	0	
2	0	0	0	0	494	558	316	516	38	0	
3	0	0	0	0	497	552	316	511	38	0	
4	0	0	0	0	506	545	316	508	38	0	
5	0	0	0	0	513	539	316	505	38	0	
6	0	0	0	0	514	534	316	502	38	0	
7	0	0	0	0	514	531	316	504	38	0	
8	0	0	0	0	515	528	316	498	38	0	
9	0	0	0	0	510	527	316	500	38	0	
10	0	0	0	0	521	530	316	503	38	0	
11	0	0	0	0	520	536	316	505	38	0	
12	0	0	0	0	516	540	316	510	38	0	
13	0	0	0	0	511	544	316	513	38	0	
14	0	0	0	0	508	549	316	515	38	0	
15	0	0	0	0	505	554	316	518	38	0	
0	0	0	0	0	492	556	316	520	38	0	
1	0	0	0	0	502	558	316	522	38	0	
2	0	0	0	0	492	558	316	523	38	0	
3	0	0	0	0	500	556	316	524	38	0	
4	0	0	0	0	497	551	316	518	38	0	
5	0	0	0	0	504	547	316	515	38	0	
6	0	0	0	0	507	541	316	511	38	0	
7	0	0	0	0	519	536	316	509	38	0	
8	0	0	0	0	518	533	316	507	38	0	
9	0	0	0	0	513	529	316	505	38	0	
10	0	0	0	0	519	528	316	503	38	0	
11	0	0	0	0	524	529	316	503	38	0	
12	0	0	0	0	520	531	316	505	38	0	
13	0	0	0	0	511	536	316	509	38	0	
14	0	0	0	0	507	542	316	513	38	0	
15	0	0	0	0	505	547	316	518	38	0	
0	0	0	0	0	506	552	316	519	38	0	
1	0	0	0	0	496	553	316	519	38	0	
2	0	0	0	0	496	553	316	519	38	0	
3	0	0	0	0	494	550	316	518	38	0	
4	0	0	0	0	499	544	316	522	38	0	
5	0	0	0	0	503	536	316	512	38	0	
6	0	0	0	0	504	527	316	509	38	0	
7	0	0	0	0	509	520	316	505	38	0	
8	0	0	0	0	516	515	316	504	38	0	
9	0	0	0	0	509	512	316	503	38	0	
10	0	0	0	0	519	510	316	502	38	0	
11	0	0	0	0	517	513	316	503	38	0	
12	0	0	0	0	518	517	316	506	38	0	
13	0	0	0	0	524	524	316	507	38	0	
14	0	0	0	0	508	531	316	510	38	0	
15	0	0	0	0	504	536	316	514	38	0	
0	0	0	0	0	508	540	316	517	38	0	
1	0	0	0	0	507	545	316	520	38	0	
2	0	0	0	0	502	546	316	522	38	0	
3	0	0	0	0	494	545	316	523	38	0	
4	0	0	0	0	496	542	316	520	38	0	
5	0	0	0	0	497	537	316	518	38	0	
6	0	0	0	0	508	531	316	512	38	0	
7	0	0	0	0	509	526	316	514	38	0	
8	0	0	0	0	506	523	316	504	38	0	
9	0	0	0	0	512	519	316	502	38	0	
10	0	0	0	0	512	515	316	500	38	0	
11	0	0	0	0	513	513	316	502	38	0	
12	0	0	0	0	521	514	316	502	38	0	
13	0	0	0	0	519	518	316	504	38	0	
14	0	0	0	0	513	523	316	507	38	0	
15	0	0	0	0	511	528	316	511	38	0	
0	0	0	0	0	503	534	316	515	38	0	
1	0	0	0	0	506	537	316	516	38	0	
2	0	0	0	0	494	539	316	519	38	0	
3	0	0	0	0	497	540	316	519	38	0	
4	0	0	0	0	493	540	316	517	38	0	
5	0	0	0	0	496	538	316	513	38	0	
6	0	0	0	0	504	531	316	509	38	0	
7	0	0	0	0	505	525	316	507	38	0	
8	0	0	0	0	514	519	316	504	38	0	
9	0	0	0	0	520	515	316	501	38	0	
10	0	0	0	0	514	511	316	499	38	0	
11	0	0	0	0	516	509	316	498	38	0	
12	0	0	0	0	515	509	316	499	38	0	
13	0	0	0	0	515	511	316	500	38	0	
14	0	0	0	0	520	515	316	504	38	0	
15	0	0	0	0	510	522	316	509	38	0	
0	0	0	0	0	505	527	316	513	38	0	
1	0	0	0	0	509	532	316	519	38	0	
2	0	0	0	0	510	536	316	524	38	0	
3	0	0	0	0	504	539	316	526	38	0	
4	0	0	0	0	497	540	316	526	38	0	
5	0	0	0	0	494	536	316	523	38	0	
6	0	0	0	0	503	531	316	520	38	0	
7	0	0	0	0	501	524	316	518	38	0	
8	0	0	0	0	501	519	316	510	38	0	
9	0	0	0	0	512	514	316	507	38	0	
10	0	0	0	0	515	511	316	504	38	0	
11	0	0	0	0	515	508	316	502	38	0	
12	0	0	0	0	519	506	316	504	38	0	
13	0	0	0	0	523	507	316	505	38	0	
14	0	0	0	0	521	510	316	510	38	0	
15	0	0	0	0	519	515	316	515	38	0	
0	0	0	0	0	509	520	316	520	38	0	
1	0	0	0	0	512	526	316	525	38	0	
2	0	0	0	0	509	530	316	526	38	0	
3	0	0	0	0	499	534	316	529	38	0	
4	0	0	0	0	504	536	316	528	38	0	
5	0	0	0	0	490	537	316	527	38	0	
6	0	0	0	0	499	535	316	524	38	0	
7	0	0	0	0	504	531	316	518	38	0	
8	0	0	0	0	499	525	316	515	38	0	
9	0	0	0	0	510	519	316	511	38	0	
10	0	0	0	0	510	514	316	508	38	0	
11	0	0	0	0	518	511	316	507	38	0	
12	0	0	0	0	513	510	316	504	38	0	
13	0	0	0	0	515	511	316	504	38	0	
14	0	0	0	0	517	513	316	503	38	0	
15	0	0	0	0	516	517	316	505	38	0	
0	0	0	0	0	515	523	316	508	38	0	
1	0	0	0	0	518	530	316	514	38	0	
2	0	0	0	0	507	536	316	518	38	0	
3	0	0	0	0	507	542	316	519	38	0	
4	0	0	0	0	495	545	316	520	38	0	
5	0	0	0	0	496	547	316	519	38	0	
6	0	0	0	0	498	544	316	515	38	0	
7	0	0	0	0	502	539	316	512	38	0	
8	0	0	0	0	496	534	316	509	38	0	
9	0	0	0	0	507	527	316	506	38	0	
10	0	0	0	0	501	522	316	508	38	0	
11	0	0	0	0	515	518	316	500	38	0	
12	0	0	0	0	512	517	316	499	38	0	
13	0	0	0	0	513	515	316	499	38	0	
14	0	0	0	0	518	514	316	499	38	0	
15	0	0	0	0	524	515	316	508	38	0	
0	0	0	0	0	521	519	316	508	38	0	
1	0	0	0	0	513	526	316	514	38	0	
2	0	0	0	0	509	533	316	518	38	0	
3	0	0	0	0	499	540	316	521	38	0	
4	0	0	0	0	502	544	316	523	38	0	
5	0	0	0	0	499	546	316	524	38	0	
6	0	0	0	0	499	547	316	523	38	0	
7	0	0	0	0	501	546	316	519	38	0	
8	0	0	0	0	493	541	316	517	38	0	
9	0	0	0	0	498	534	316	513	38	0	
10	0	0	0	0	504	529	316	507	38	0	
11	0	0	0	0	513	523	316	506	38	0	
12	0	0	0	0	519	519	316	503	38	0	
13	0	0	0	0	515	516	316	500	38	0	
14	0	0	0	0	515	515	316	502	38	0	
15	0	0	0	0	525	519	316	500	38	0	
0	0	0	0	0	524	523	316	503	38	0	
1	0	0	0	0	518	528	316	505	38	0	
2	0	0	0	0	511	533	316	511	38	0	
3	0	0	0	0	509	538	316	516	38	0	
4	0	0	0	0	511	542	316	521	38	0	
5	0	0	0	0	502	545	316	524	38	0	
6	0	0	0	0	501	544	316	525	38	0	
7	0	0	0	0	497	543	316	525	38	0	
8	0	0	0	0	503	540	316	524	38	0	
9	0	0	0	0	491	535	316	521	38	0	
10	0	0	0	0	498	530	316	516	38	0	
11	0	0	0	0	506	527	316	512	38	0	
12	0	0	0	0	515	524	316	512	38	0	
13	0	0	0	0	514	521	316	506	38	0	
14	0	0	0	0	520	519	316	503	38	0	
15	0	0	0	0	516	520	316	502	38	0	
0	0	0	0	0	517	524	316	502	38	0	
1	0	0	0	0	516	528	316	503	38	0	
2	0	0	0	0	514	534	316	504	38	0	
3	0	0	0	0	513	540	316	509	38	0	
4	0	0	0	0	510	546	316	513	38	0	
5	0	0	0	0	505	550	316	514	38	0	
6	0	0	0	0	502	552	316	516	38	0	
7	0	0	0	0	504	555	316	516	38	0	
8	0	0	0	0	495	553	316	515	38	0	
9	0	0	0	0	495	551	316	511	38	0	
10	0	0	0	0	498	546	316	508	38	0	
11	0	0	0	0	503	540	316	507	38	0	
12	0	0	0	0	510	536	316	504	38	0	
13	0	0	0	0	515	532	316	504	38	0	
14	0	0	0	0	520	529	316	501	38	0	
15	0	0	0	0	518	527	316	500	38	0	
0	0	0	0	0	514	527	316	501	38	0	
1	0	0	0	0	521	531	316	505	38	0	
2	0	0	0	0	518	536	316	510	38	0	
3	0	0	0	0	510	543	316	515	38	0	
4	0	0	0	0	513	551	316	518	38	0	
5	0	0	0	0	504	558	316	521	38	0	
6	0	0	0	0	508	562	316	522	38	0	
7	0	0	0	0	505	563	316	522	38	0	
8	0	0	0	0	498	565	316	523	38	0	
9	0	0	0	0	492	563	316	521	38	0	
10	0	0	0	0	497	562	316	516	38	0	
11	0	0	0	0	501	558	316	515	38	0	
12	0	0	0	0	506	554	316	513	38	0	
13	0	0	0	0	511	551	316	508	38	0	
14	0	0	0	0	518	547	316	505	38	0	
15	0	0	0	0	508	546	316	503	38	0	
0	0	0	0	0	519	546	316	502	38	0	
1	0	0	0	0	519	548	316	501	38	0	
2	0	0	0	0	517	552	316	502	38	0	
3	0	0	0	0	518	558	316	507	38	0	
4	0	0	0	0	515	564	316	510	38	0	
5	0	0	0	0	508	571	316	512	38	0	
6	0	0	0	0	508	577	316	515	38	0	
7	0	0	0	0	501	583	316	516	38	0	
8	0	0	0	0	509	587	316	519	38	0	
9	0	0	0	0	501	588	316	519	38	0	
10	0	0	0	0	497	585	316	516	38	0	
11	0	0	0	0	497	581	316	514	38	0	
12	0	0	0	0	494	575	316	511	38	0	
13	0	0	0	0	502	569	316	508	38	0	
14	0	0	0	0	512	564	316	513	38	0	
15	0	0	0	0	510	560	316	505	38	0	
0	0	0	0	0	510	555	316	504	38	0	
1	0	0	0	0	518	550	316	502	38	0	
2	0	0	0	0	515	548	316	505	38	0	
3	0	0	0	0	522	546	316	506	38	0	
4	0	0	0	0	513	547	316	511	38	0	
5	0	0	0	0	518	547	316	514	38	0	
6	0	0	0	0	506	548	316	517	38	0	
7	0	0	0	0	512	547	316	519	38	0	
8	0	0	0	0	499	543	316	528	38	0	
9	0	0	0	0	509	539	316	519	38	0	
10	0	0	0	0	497	533	316	519	38	0	
11	0	0	0	0	496	526	316	517	38	0	
12	0	0	0	0	498	518	316	515	38	0	
13	0	0	0	0	506	508	316	512	38	0	
14	0	0	0	0	506	499	316	510	38	0	
15	0	0	0	0	518	489	316	507	38	0	
0	0	0	0	0	519	482	316	507	38	0	
1	0	0	0	0	515	475	316	506	38	0	
2	0	0	0	0	516	471	316	507	38	0	
3	0	0	0	0	516	472	316	510	38	0	
4	0	0	0	0	513	475	316	513	38	0	
5	0	0	0	0	513	480	316	514	38	0	
6	0	0	0	0	505	485	316	517	38	0	
7	0	0	0	0	505	489	316	520	38	0	
8	0	0	0	0	508	492	316	520	38	0	
9	0	0	0	0	504	492	316	520	38	0	
10	0	0	0	0	493	492	316	518	38	0	
11	0	0	0	0	493	486	316	515	38	0	
12	0	0	0	0	500	480	316	515	38	0	
13	0	0	0	0	496	474	316	511	38	0	
14	0	0	0	0	508	468	316	508	38	0	
15	0	0	0	0	514	466	316	504	38	0	
0	0	0	0	0	520	465	316	501	38	0	
1	0	0	0	0	509	466	316	500	38	0	
2	0	0	0	0	512	468	316	499	38	0	
3	0	0	0	0	522	475	316	499	38	0	
4	0	0	0	0	519	484	316	502	38	0	
5	0	0	0	0	513	495	316	506	38	0	
6	0	0	0	0	512	505	316	516	38	0	
7	0	0	0	0	508	515	316	521	38	0	
8	0	0	0	0	507	524	316	526	38	0	
9	0	0	0	0	498	530	316	530	38	0	
10	0	0	0	0	501	536	316	531	38	0	
11	0	0	0	0	500	540	316	527	38	0	
12	0	0	0	0	494	541	316	524	38	0	
13	0	0	0	0	500	539	316	520	38	0	
14	0	0	0	0	500	536	316	517	38	0	
15	0	0	0	0	505	533	316	512	38	0	
0	0	0	0	0	511	530	316	509	38	0	
1	0	0	0	0	517	528	316	506	38	0	
2	0	0	0	0	511	527	316	508	38	0	
3	0	0	0	0	521	527	316	505	38	0	
4	0	0	0	0	520	529	316	506	38	0	
5	0	0	0	0	517	532	316	508	38	0	
6	0	0	0	0	523	537	316	511	38	0	
7	0	0	0	0	509	543	316	513	38	0	
8	0	0	0	0	497	547	316	516	38	0	
9	0	0	0	0	514	550	316	518	38	0	
10	0	0	0	0	502	552	316	518	38	0	
11	0	0	0	0	497	553	316	519	38	0	
12	0	0	0	0	495	552	316	517	38	0	
13	0	0	0	0	501	549	316	513	38	0	
14	0	0	0	0	497	543	316	509	38	0	
15	0	0	0	0	506	538	316	507	38	0	
0	0	0	0	0	509	533	316	503	38	0	
1	0	0	0	0	511	528	316	501	38	0	
2	0	0	0	0	518	526	316	499	38	0	
3	0	0	0	0	508	523	316	498	38	0	
4	0	0	0	0	518	521	316	495	38	0	
5	0	0	0	0	519	523	316	496	38	0	
6	0	0	0	0	520	527	316	499	38	0	
7	0	0	0	0	513	534	316	503	38	0	
8	0	0	0	0	506	539	316	507	38	0	
9	0	0	0	0	504	543	316	510	38	0	
10	0	0	0	0	505	547	316	513	38	0	
11	0	0	0	0	497	550	316	518	38	0	
12	0	0	0	0	497	551	317	520	38	0	
13	0	0	0	0	490	550	316	520	38	0	
14	0	0	0	0	500	546	316	519	38	0	
15	0	0	0	0	506	541	316	517	38	0	
0	0	0	0	0	502	538	316	514	38	0	
1	0	0	0	0	510	533	316	510	38	0	
2	0	0	0	0	520	528	316	508	38	0	
3	0	0	0	0	508	525	316	506	38	0	
4	0	0	0	0	524	521	316	507	38	0	
5	0	0	0	0	514	521	316	511	38	0	
6	0	0	0	0	515	524	316	516	38	0	
7	0	0	0	0	510	531	316	522	38	0	
8	0	0	0	0	521	538	316	525	38	0	
9	0	0	0	0	504	544	316	526	38	0	
10	0	0	0	0	511	548	316	525	38	0	
11	0	0	0	0	502	552	316	526	38	0	
12	0	0	0	0	505	555	317	524	38	0	
13	0	0	0	0	501	555	316	522	38	0	
14	0	0	0	0	492	552	316	519	38	0	
15	0	0	0	0	504	547	316	516	38	0	
0	0	0	0	0	502	542	316	512	38	0	
1	0	0	0	0	504	537	316	510	38	0	
2	0	0	0	0	517	531	316	507	38	0	
3	0	0	0	0	518	527	316	506	38	0	
4	0	0	0	0	510	523	316	507	38	0	
5	0	0	0	0	515	521	316	506	38	0	
6	0	0	0	0	521	521	316	507	38	0	
7	0	0	0	0	516	523	316	508	38	0	
8	0	0	0	0	518	527	316	511	38	0	
9	0	0	0	0	510	533	316	513	38	0	
10	0	0	0	0	508	539	316	517	38	0	
11	0	0	0	0	514	544	316	518	38	0	
12	0	0	0	0	496	547	316	517	38	0	
13	0	0	0	0	502	549	316	517	38	0	
14	0	0	0	0	496	546	316	516	38	0	
15	0	0	0	0	500	542	316	513	38	0	
0	0	0	0	0	498	536	316	511	38	0	
1	0	0	0	0	507	531	316	508	38	0	
2	0	0	0	0	507	526	316	505	38	0	
3	0	0	0	0	520	522	316	502	38	0	
4	0	0	0	0	515	521	316	500	38	0	
5	0	0	0	0	507	518	316	499	38	0	
6	0	0	0	0	521	517	316	505	38	0	
7	0	0	0	0	524	519	316	502	38	0	
8	0	0	0	0	516	525	316	504	38	0	
9	0	0	0	0	505	530	316	505	38	0	
10	0	0	0	0	507	536	316	508	38	0	
11	0	0	0	0	508	539	316	510	38	0	
12	0	0	0	0	504	543	316	512	38	0	
13	0	0	0	0	497	545	316	514	38	0	
14	0	0	0	0	497	545	316	515	38	0	
15	0	0	0	0	495	542	316	513	38	0	
0	0	0	0	0	492	537	316	515	38	0	
1	0	0	0	0	503	530	316	508	38	0	
2	0	0	0	0	503	523	316	505	38	0	
3	0	0	0	0	504	517	316	504	38	0	
4	0	0	0	0	520	512	316	502	38	0	
5	0	0	0	0	510	508	316	502	38	0	
6	0	0	0	0	522	506	316	501	38	0	
7	0	0	0	0	526	506	316	501	38	0	
8	0	0	0	0	513	510	316	502	38	0	
9	0	0	0	0	522	514	316	504	38	0	
10	0	0	0	0	513	520	316	507	38	0	
11	0	0	0	0	504	528	316	512	38	0	
12	0	0	0	0	504	532	316	518	38	0	
13	0	0	0	0	502	537	316	525	38	0	
14	0	0	0	0	499	539	316	527	38	0	
15	0	0	0	0	487	538	316	524	38	0	
0	0	0	0	0	497	535	316	522	38	0	
1	0	0	0	0	501	529	316	520	38	0	
2	0	0	0	0	510	523	316	515	38	0	
3	0	0	0	0	510	516	316	511	38	0	
4	0	0	0	0	514	511	316	508	38	0	
5	0	0	0	0	519	508	316	507	38	0	
6	0	0	0	0	509	504	316	513	38	0	
7	0	0	0	0	522	503	316	505	38	0	
8	0	0	0	0	525	505	316	504	38	0	
9	0	0	0	0	518	508	316	505	38	0	
10	0	0	0	0	516	513	316	507	38	0	
11	0	0	0	0	513	519	316	511	38	0	
12	0	0	0	0	505	523	316	515	38	0	
13	0	0	0	0	508	527	316	519	38	0	
14	0	0	0	0	492	529	316	520	38	0	
15	0	0	0	0	501	531	316	520	38	0	
0	0	0	0	0	495	530	316	517	38	0	
1	0	0	0	0	499	527	316	515	38	0	
2	0	0	0	0	496	520	316	513	38	0	
3	0	0	0	0	505	513	316	511	38	0	
4	0	0	0	0	515	507	316	509	38	0	
5	0	0	0	0	513	502	316	507	38	0	
6	0	0	0	0	524	498	316	505	38	0	
7	0	0	0	0	510	496	316	507	38	0	
8	0	0	0	0	519	496	316	505	38	0	
9	0	0	0	0	518	499	316	508	38	0	
10	0	0	0	0	515	503	316	512	38	0	
11	0	0	0	0	513	510	316	514	38	0	
12	0	0	0	0	508	516	316	515	38	0	
13	0	0	0	0	508	522	316	517	38	0	
14	0	0	0	0	513	527	316	519	38	0	
15	0	0	0	0	501	531	316	520	38	0	
0	0	0	0	0	498	532	316	519	38	0	
1	0	0	0	0	497	529	316	516	38	0	
2	0	0	0	0	496	524	316	513	38	0	
3	0	0	0	0	498	516	316	511	38	0	
4	0	0	0	0	509	511	316	508	38	0	
5	0	0	0	0	506	507	316	506	38	0	
6	0	0	0	0	514	502	316	502	38	0	
7	0	0	0	0	502	499	316	501	38	0	
8	0	0	0	0	512	497	316	500	38	0	
9	0	0	0	0	527	497	316	499	38	0	
10	0	0	0	0	519	500	316	500	38	0	
11	0	0	0	0	514	505	316	503	38	0	
12	0	0	0	0	511	511	316	503	38	0	
13	0	0	0	0	504	517	316	503	38	0	
14	0	0	0	0	510	522	316	504	38	0	
15	0	0	0	0	499	526	316	507	38	0	
0	0	0	0	0	494	527	316	508	38	0	
1	0	0	0	0	493	525	316	510	38	0	
2	0	0	0	0	496	522	316	509	38	0	
3	0	0	0	0	499	518	316	510	38	0	
4	0	0	0	0	509	513	316	508	38	0	
5	0	0	0	0	504	508	316	507	38	0	
6	0	0	0	0	513	502	316	504	38	0	
7	0	0	0	0	521	499	316	502	38	0	
8	0	0	0	0	513	496	316	504	38	0	
9	0	0	0	0	519	493	316	502	38	0	
10	0	0	0	0	513	495	316	503	38	0	
11	0	0	0	0	515	499	316	506	38	0	
12	0	0	0	0	516	507	316	509	38	0	
13	0	0	0	0	511	513	316	512	38	0	
14	0	0	0	0	506	521	316	523	38	0	
15	0	0	0	0	512	526	316	515	38	0	
0	0	0	0	0	493	529	316	524	38	0	
1	0	0	0	0	498	530	316	516	38	0	
2	0	0	0	0	499	528	316	515	38	0	
3	0	0	0	0	501	524	316	514	38	0	
4	0	0	0	0	490	519	316	512	38	0	
5	0	0	0	0	507	511	316	508	38	0	
6	0	0	0	0	518	506	316	505	38	0	
7	0	0	0	0	524	501	316	502	38	0	
8	0	0	0	0	513	499	316	501	38	0	
9	0	0	0	0	508	496	316	502	38	0	
10	0	0	0	0	514	496	316	505	38	0	
11	0	0	0	0	512	499	316	506	38	0	
12	0	0	0	0	524	503	316	509	38	0	
13	0	0	0	0	524	508	316	513	38	0	
14	0	0	0	0	508	514	316	517	38	0	
15	0	0	0	0	508	519	316	527	38	0	
0	0	0	0	0	504	525	316	521	38	0	
1	0	0	0	0	497	527	316	519	38	0	
2	0	0	0	0	491	525	316	518	38	0	
3	0	0	0	0	493	520	316	516	38	0	
4	0	0	0	0	497	514	316	513	38	0	
5	0	0	0	0	507	505	316	512	38	0	
6	0	0	0	0	509	499	316	510	38	0	
7	0	0	0	0	516	494	316	509	38	0	
8	0	0	0	0	521	491	316	507	38	0	
9	0	0	0	0	502	490	316	507	38	0	
10	0	0	0	0	510	489	316	505	38	0	
11	0	0	0	0	518	491	316	505	38	0	
12	0	0	0	0	523	494	316	507	38	0	
13	0	0	0	0	517	499	316	507	38	0	
14	0	0	0	0	515	506	316	511	38	0	
15	0	0	0	0	503	511	316	514	38	0	
0	0	0	0	0	503	515	316	518	38	0	
1	0	0	0	0	502	520	316	520	38	0	
2	0	0	0	0	502	522	316	521	38	0	
3	0	0	0	0	497	523	316	523	38	0	
4	0	0	0	0	501	519	316	521	38	0	
5	0	0	0	0	497	514	316	519	38	0	
6	0	0	0	0	498	507	316	515	38	0	
7	0	0	0	0	507	502	316	511	38	0	
8	0	0	0	0	508	499	316	508	38	0	
9	0	0	0	0	516	496	316	507	38	0	
10	0	0	0	0	509	493	316	506	38	0	
11	0	0	0	0	519	492	316	506	38	0	
12	0	0	0	0	518	494	316	507	38	0	
13	0	0	0	0	524	498	316	508	38	0	
14	0	0	0	0	522	503	316	511	38	0	
15	0	0	0	0	512	507	316	513	38	0	
0	0	0	0	0	509	512	316	516	38	0	
1	0	0	0	0	509	516	316	517	38	0	
2	0	0	0	0	499	520	316	518	38	0	
3	0	0	0	0	500	522	316	520	38	0	
4	0	0	0	0	491	521	316	519	38	0	
5	0	0	0	0	501	517	316	518	38	0	
6	0	0	0	0	498	511	316	515	38	0	
7	0	0	0	0	506	504	316	516	38	0	
8	0	0	0	0	509	499	316	509	38	0	
9	0	0	0	0	510	495	316	506	38	0	
10	0	0	0	0	513	494	316	503	38	0	
11	0	0	0	0	515	491	316	502	38	0	
12	0	0	0	0	522	491	316	500	38	0	
13	0	0	0	0	519	492	316	502	38	0	
14	0	0	0	0	520	496	316	505	38	0	
15	0	0	0	0	513	503	316	510	38	0	
0	0	0	0	0	507	510	316	512	38	0	
1	0	0	0	0	504	513	316	513	38	0	
2	0	0	0	0	507	517	316	513	38	0	
3	0	0	0	0	494	519	316	514	38	0	
4	0	0	0	0	498	521	316	515	38	0	
5	0	0	0	0	510	519	316	512	38	0	
6	0	0	0	0	495	517	316	508	38	0	
7	0	0	0	0	502	511	316	505	38	0	
8	0	0	0	0	508	504	316	504	38	0	
9	0	0	0	0	509	498	316	504	38	0	
10	0	0	0	0	514	494	316	502	38	0	
11	0	0	0	0	513	491	316	503	38	0	
12	0	0	0	0	514	489	316	503	38	0	
13	0	0	0	0	526	491	316	505	38	0	
14	0	0	0	0	516	495	316	507	38	0	
15	0	0	0	0	516	502	316	509	38	0	
0	0	0	0	0	511	508	316	512	38	0	
1	0	0	0	0	514	514	316	518	38	0	
2	0	0	0	0	510	519	316	519	38	0	
3	0	0	0	0	505	523	316	522	38	0	
4	0	0	0	0	496	526	316	524	38	0	
5	0	0	0	0	498	525	316	523	38	0	
6	0	0	0	0	507	522	316	519	38	0	
7	0	0	0	0	498	518	316	517	38	0	
8	0	0	0	0	499	510	316	514	38	0	
9	0	0	0	0	508	504	316	511	38	0	
10	0	0	0	0	506	499	316	510	38	0	
11	0	0	0	0	516	495	316	506	38	0	
12	0	0	0	0	507	492	316	506	38	0	
13	0	0	0	0	523	490	316	504	38	0	
14	0	0	0	0	519	492	316	504	38	0	
15	0	0	0	0	518	495	316	510	38	0	
0	0	0	0	0	512	500	316	515	38	0	
1	0	0	0	0	511	507	316	521	38	0	
2	0	0	0	0	503	513	316	524	38	0	
3	0	0	0	0	510	518	316	529	38	0	
4	0	0	0	0	505	523	316	534	38	0	
5	0	0	0	0	503	525	316	533	38	0	
6	0	0	0	0	504	523	316	530	38	0	
7	0	0	0	0	494	520	316	526	38	0	
8	0	0	0	0	498	514	316	521	38	0	
9	0	0	0	0	503	505	316	520	38	0	
10	0	0	0	0	509	499	316	510	38	0	
11	0	0	0	0	514	493	316	505	38	0	
12	0	0	0	0	509	490	316	503	38	0	
13	0	0	0	0	512	487	316	503	38	0	
14	0	0	0	0	527	486	316	504	38	0	
15	0	0	0	0	519	487	316	508	38	0	
0	0	0	0	0	521	492	316	513	38	0	
1	0	0	0	0	511	498	316	517	38	0	
2	0	0	0	0	506	504	316	519	38	0	
3	0	0	0	0	505	509	316	523	38	0	
4	0	0	0	0	504	514	316	524	38	0	
5	0	0	0	0	503	517	316	524	38	0	
6	0	0	0	0	497	519	316	523	38	0	
7	0	0	0	0	494	516	316	521	38	0	
8	0	0	0	0	497	512	316	518	38	0	
9	0	0	0	0	499	506	316	513	38	0	
10	0	0	0	0	513	500	316	508	38	0	
11	0	0	0	0	515	495	316	505	38	0	
12	0	0	0	0	520	492	316	503	38	0	
13	0	0	0	0	512	490	316	502	38	0	
14	0	0	0	0	514	488	316	503	38	0	
15	0	0	0	0	519	488	316	502	38	0	
0	0	0	0	0	513	492	316	504	38	0	
1	0	0	0	0	512	499	316	508	38	0	
2	0	0	0	0	518	505	316	511	38	0	
3	0	0	0	0	508	511	316	516	38	0	
4	0	0	0	0	505	516	316	518	38	0	
5	0	0	0	0	504	521	316	521	38	0	
6	0	0	0	0	500	524	316	521	38	0	
7	0	0	0	0	488	524	316	519	38	0	
8	0	0	0	0	496	522	316	516	38	0	
9	0	0	0	0	503	519	316	512	38	0	
10	0	0	0	0	509	514	316	510	38	0	
11	0	0	0	0	507	509	316	508	38	0	
12	0	0	0	0	508	504	316	504	38	0	
13	0	0	0	0	519	502	316	504	38	0	
14	0	0	0	0	506	500	316	502	38	0	
15	0	0	0	0	524	499	316	503	38	0	
0	0	0	0	0	520	501	316	504	38	0	
1	0	0	0	0	514	506	316	505	38	0	
2	0	0	0	0	515	513	316	508	38	0	
3	0	0	0	0	509	519	316	516	38	0	
4	0	0	0	0	507	524	316	525	38	0	
5	0	0	0	0	509	529	316	532	38	0	
6	0	0	0	0	499	534	316	535	38	0	
7	0	0	0	0	500	536	316	533	38	0	
8	0	0	0	0	494	534	316	538	38	0	
9	0	0	0	0	505	530	316	525	38	0	
10	0	0	0	0	497	524	316	521	38	0	
11	0	0	0	0	487	518	316	515	38	0	
12	0	0	0	0	507	512	316	510	38	0	
13	0	0	0	0	517	507	316	505	38	0	
14	0	0	0	0	521	504	316	504	38	0	
15	0	0	0	0	510	501	316	503	38	0	
0	0	0	0	0	522	502	316	501	38	0	
1	0	0	0	0	522	504	316	502	38	0	
2	0	0	0	0	523	509	316	504	38	0	
3	0	0	0	0	510	515	316	509	38	0	
4	0	0	0	0	501	520	316	514	38	0	
5	0	0	0	0	504	526	316	517	38	0	
6	0	0	0	0	500	530	316	519	38	0	
7	0	0	0	0	496	534	316	520	38	0	
8	0	0	0	0	499	536	316	523	38	0	
9	0	0	0	0	491	535	316	522	38	0	
10	0	0	0	0	505	531	316	520	38	0	
11	0	0	0	0	503	524	316	518	38	0	
12	0	0	0	0	509	518	316	514	38	0	
13	0	0	0	0	502	513	316	511	38	0	
14	0	0	0	0	518	509	316	509	38	0	
15	0	0	0	0	513	507	316	505	38	0	
0	0	0	0	0	517	505	316	503	38	0	
1	0	0	0	0	524	507	316	502	38	0	
2	0	0	0	0	520	511	316	503	38	0	
3	0	0	0	0	517	516	316	506	38	0	
4	0	0	0	0	508	522	316	511	38	0	
5	0	0	0	0	508	527	316	518	38	0	
6	0	0	0	0	510	531	316	520	38	0	
7	0	0	0	0	500	534	316	521	38	0	
8	0	0	0	0	495	535	316	522	38	0	
9	0	0	0	0	496	535	316	520	38	0	
10	0	0	0	0	492	532	316	516	38	0	
11	0	0	0	0	496	529	316	515	38	0	
12	0	0	0	0	505	525	316	511	38	0	
13	0	0	0	0	511	521	316	509	38	0	
14	0	0	0	0	512	517	316	506	38	0	
15	0	0	0	0	513	515	316	504	38	0	
0	0	0	0	0	507	513	316	505	38	0	
1	0	0	0	0	516	514	316	499	38	0	
2	0	0	0	0	517	516	316	500	38	0	
3	0	0	0	0	519	519	316	502	38	0	
4	0	0	0	0	523	525	316	506	38	0	
5	0	0	0	0	514	531	316	512	38	0	
6	0	0	0	0	508	534	316	514	38	0	
7	0	0	0	0	514	536	316	515	38	0	
8	0	0	0	0	499	538	316	515	38	0	
9	0	0	0	0	496	538	316	516	38	0	
10	0	0	0	0	489	536	316	523	38	0	
11	0	0	0	0	497	532	316	516	38	0	
12	0	0	0	0	493	527	316	513	38	0	
13	0	0	0	0	503	521	316	510	38	0	
14	0	0	0	0	507	515	316	507	38	0	
15	0	0	0	0	516	510	316	505	38	0	
0	0	0	0	0	513	508	316	506	38	0	
1	0	0	0	0	514	505	316	504	38	0	
2	0	0	0	0	517	505	316	504	38	0	
3	0	0	0	0	520	509	316	504	38	0	
4	0	0	0	0	523	515	316	505	38	0	
5	0	0	0	0	513	523	316	508	38	0	
6	0	0	0	0	510	529	316	508	38	0	
7	0	0	0	0	503	534	316	511	38	0	
8	0	0	0	0	508	537	316	514	38	0	
9	0	0	0	0	499	540	316	515	38	0	
10	0	0	0	0	496	542	316	515	38	0	
11	0	0	0	0	502	540	316	514	38	0	
12	0	0	0	0	504	537	316	511	38	0	
13	0	0	0	0	491	532	316	509	38	0	
14	0	0	0	0	504	527	316	509	38	0	
15	0	0	0	0	513	521	316	504	38	0	
0	0	0	0	0	515	517	316	502	38	0	
1	0	0	0	0	518	514	316	501	38	0	
2	0	0	0	0	518	512	316	501	38	0	
3	0	0	0	0	516	513	316	503	38	0	
4	0	0	0	0	519	518	316	507	38	0	
5	0	0	0	0	517	525	316	510	38	0	
6	0	0	0	0	507	531	316	516	38	0	
7	0	0	0	0	512	538	316	521	38	0	
8	0	0	0	0	503	542	316	524	38	0	
9	0	0	0	0	504	546	316	525	38	0	
10	0	0	0	0	491	548	316	524	38	0	
11	0	0	0	0	494	549	316	523	38	0	
12	0	0	0	0	500	545	316	520	38	0	
13	0	0	0	0	494	538	316	516	38	0	
14	0	0	0	0	504	531	316	513	38	0	
15	0	0	0	0	506	524	316	509	38	0	
0	0	0	0	0	517	519	316	508	38	0	
1	0	0	0	0	515	517	316	505	38	0	
2	0	0	0	0	513	516	316	504	38	0	
3	0	0	0	0	517	515	316	505	38	0	
4	0	0	0	0	522	516	316	505	38	0	
5	0	0	0	0	518	519	316	512	38	0	
6	0	0	0	0	518	525	316	507	38	0	
7	0	0	0	0	516	531	316	511	38	0	
8	0	0	0	0	506	537	316	518	38	0	
9	0	0	0	0	509	543	316	522	38	0	
10	0	0	0	0	499	545	316	526	38	0	
11	0	0	0	0	500	545	316	529	38	0	
12	0	0	0	0	496	543	316	528	38	0	
13	0	0	0	0	493	540	316	526	38	0	
14	0	0	0	0	499	534	316	521	38	0	
15	0	0	0	0	502	528	316	515	38	0	
0	0	0	0	0	511	524	316	511	38	0	
1	0	0	0	0	509	520	316	504	38	0	
2	0	0	0	0	515	519	316	503	38	0	
3	0	0	0	0	512	517	316	503	38	0	
4	0	0	0	0	518	518	316	504	38	0	
5	0	0	0	0	526	520	316	506	38	0	
6	0	0	0	0	516	522	316	509	38	0	
7	0	0	0	0	513	527	316	512	38	0	
8	0	0	0	0	511	532	316	515	38	0	
9	0	0	0	0	501	537	316	518	38	0	
10	0	0	0	0	503	541	316	521	38	0	
11	0	0	0	0	492	544	316	524	38	0	
12	0	0	0	0	495	545	316	523	38	0	
13	0	0	0	0	488	543	316	520	38	0	
14	0	0	0	0	501	540	316	517	38	0	
15	0	0	0	0	503	534	316	512	38	0	
0	0	0	0	0	511	528	316	510	38	0	
1	0	0	0	0	511	524	316	508	38	0	
2	0	0	0	0	518	522	316	506	38	0	
3	0	0	0	0	516	521	316	507	38	0	
4	0	0	0	0	517	519	316	505	38	0	
5	0	0	0	0	520	520	316	504	38	0	
6	0	0	0	0	522	523	316	506	38	0	
7	0	0	0	0	523	527	316	508	38	0	
8	0	0	0	0	510	532	316	513	38	0	
9	0	0	0	0	508	537	316	516	38	0	
10	0	0	0	0	507	542	316	516	38	0	
11	0	0	0	0	502	546	316	519	38	0	
12	0	0	0	0	490	548	316	519	38	0	
13	0	0	0	0	497	548	316	519	38	0	
14	0	0	0	0	496	546	316	518	38	0	
15	0	0	0	0	503	542	316	515	38	0	
0	0	0	0	0	504	535	316	512	38	0	
1	0	0	0	0	507	530	316	509	38	0	
2	0	0	0	0	507	527	316	504	38	0	
3	0	0	0	0	520	525	316	504	38	0	
4	0	0	0	0	506	524	316	503	38	0	
5	0	0	0	0	518	524	316	504	38	0	
6	0	0	0	0	523	527	316	505	38	0	
7	0	0	0	0	517	530	316	505	38	0	
8	0	0	0	0	510	536	316	509	38	0	
9	0	0	0	0	521	541	316	515	38	0	
10	0	0	0	0	504	547	316	524	38	0	
11	0	0	0	0	510	551	316	527	38	0	
12	0	0	0	0	504	555	316	529	38	0	
13	0	0	0	0	497	556	316	530	38	0	
14	0	0	0	0	495	554	316	527	38	0	
15	0	0	0	0	494	551	316	525	38	0	
0	0	0	0	0	497	547	316	519	38	0	
1	0	0	0	0	505	541	316	515	38	0	
2	0	0	0	0	506	536	316	511	38	0	
3	0	0	0	0	514	534	316	507	38	0	
4	0	0	0	0	519	532	316	504	38	0	
5	0	0	0	0	521	529	316	502	38	0	
6	0	0	0	0	525	527	316	503	38	0	
7	0	0	0	0	523	528	316	504	38	0	
8	0	0	0	0	518	533	316	506	38	0	
9	0	0	0	0	516	539	316	508	38	0	
10	0	0	0	0	502	544	316	513	38	0	
11	0	0	0	0	500	549	316	519	38	0	
12	0	0	0	0	513	553	316	526	38	0	
13	0	0	0	0	498	556	316	524	38	0	
14	0	0	0	0	501	558	316	524	38	0	
15	0	0	0	0	493	556	316	521	38	0	
0	0	0	0	0	498	551	316	518	38	0	
1	0	0	0	0	499	546	316	514	38	0	
2	0	0	0	0	508	540	316	509	38	0	
3	0	0	0	0	512	536	316	505	38	0	
4	0	0	0	0	511	532	316	504	38	0	
5	0	0	0	0	517	530	316	502	38	0	
6	0	0	0	0	519	528	316	502	38	0	
7	0	0	0	0	522	529	316	501	38	0	
8	0	0	0	0	516	533	316	504	38	0	
9	0	0	0	0	515	539	316	508	38	0	
10	0	0	0	0	511	545	316	512	38	0	
11	0	0	0	0	507	551	316	516	38	0	
12	0	0	0	0	508	555	316	519	38	0	
13	0	0	0	0	505	560	316	521	38	0	
14	0	0	0	0	499	562	316	519	38	0	
15	0	0	0	0	495	563	316	521	38	0	
0	0	0	0	0	496	561	316	519	38	0	
1	0	0	0	0	497	557	316	516	38	0	
2	0	0	0	0	505	550	316	516	38	0	
3	0	0	0	0	509	543	316	515	38	0	
4	0	0	0	0	517	537	316	513	38	0	
5	0	0	0	0	515	533	316	516	38	0	
6	0	0	0	0	510	529	316	506	38	0	
7	0	0	0	0	518	528	316	504	38	0	
8	0	0	0	0	515	530	316	503	38	0	
9	0	0	0	0	518	534	316	504	38	0	
10	0	0	0	0	515	540	316	505	38	0	
11	0	0	0	0	508	544	316	510	38	0	
12	0	0	0	0	504	550	316	513	38	0	
13	0	0	0	0	515	553	316	515	38	0	
14	0	0	0	0	501	556	316	517	38	0	
15	0	0	0	0	494	556	316	516	38	0	
0	0	0	0	0	499	555	316	515	38	0	
1	0	0	0	0	505	553	316	515	38	0	
2	0	0	0	0	506	548	316	511	38	0	
3	0	0	0	0	503	542	316	509	38	0	
4	0	0	0	0	507	536	316	506	38	0	
5	0	0	0	0	512	531	316	504	38	0	
6	0	0	0	0	511	528	316	502	38	0	
7	0	0	0	0	507	526	316	501	38	0	
8	0	0	0	0	526	526	316	502	38	0	
9	0	0	0	0	521	529	316	502	38	0	
10	0	0	0	0	516	534	316	504	38	0	
11	0	0	0	0	521	541	316	512	38	0	
12	0	0	0	0	508	548	316	508	38	0	
13	0	0	0	0	497	553	316	515	38	0	
14	0	0	0	0	511	557	316	519	38	0	
15	0	0	0	0	499	560	316	523	38	0	
0	0	0	0	0	497	562	316	524	38	0	
1	0	0	0	0	491	560	316	520	38	0	
2	0	0	0	0	500	555	316	515	38	0	
3	0	0	0	0	504	549	316	511	38	0	
