# OpenSignals Text File Format. Version 1
# {"98:D3:B1:FD:3D:90": {"position": 0, "device": "bitalino_rev", "device name": "98:D3:B1:FD:3D:90", "device connection": "/dev/tty.BITalino-DevB", "sampling rate": 1000, "resolution": [4, 1, 1, 1, 1, 10, 10, 10, 10, 6, 6], "firmware version": 1281, "comments": "", "keywords": "", "mode": 0, "sync interval": 2, "date": "2022-4-7", "time": "8:20:48.767", "channels": [1, 2, 3, 4, 5, 6], "sensor": ["RAW", "ECGBIT", "EDABITREV", "RAW", "RAW", "RAW"], "label": ["A1", "A2", "A3", "A4", "A5", "A6"], "column": ["nSeq", "I1", "I2", "O1", "O2", "A1", "A2", "A3", "A4", "A5", "A6"], "special": [{}, {}, {}, {}, {}, {}], "digital IO": [0, 0, 1, 1]}}
# EndOfHeader
0	0	0	0	0	495	523	133	508	38	0	
1	0	0	0	0	499	508	132	507	38	0	
2	0	0	0	0	517	494	132	505	38	0	
3	0	0	0	0	535	484	132	502	38	0	
4	0	0	0	0	533	478	132	501	38	0	
5	0	0	0	0	557	480	132	503	38	0	
6	0	0	0	0	542	488	132	506	38	0	
7	0	0	0	0	540	500	132	512	38	0	
8	0	0	0	0	535	516	131	521	38	0	
9	0	0	0	0	513	534	131	524	38	0	
10	0	0	0	0	500	547	131	529	38	0	
11	0	0	0	0	491	558	131	532	38	0	
12	0	0	0	0	486	563	132	530	38	0	
13	0	0	0	0	468	563	132	529	38	0	
14	0	0	0	0	469	556	132	539	38	0	
15	0	0	0	0	475	545	133	523	38	0	
0	0	0	0	0	483	530	133	519	38	0	
1	0	0	0	0	492	513	133	514	38	0	
2	0	0	0	0	506	498	133	509	38	0	
3	0	0	0	0	523	485	133	505	38	0	
4	0	0	0	0	525	477	133	502	38	0	
5	0	0	0	0	543	473	133	504	38	0	
6	0	0	0	0	556	478	133	503	38	0	
7	0	0	0	0	546	486	132	506	38	0	
8	0	0	0	0	533	499	132	511	38	0	
9	0	0	0	0	534	516	131	517	38	0	
10	0	0	0	0	512	534	132	524	38	0	
11	0	0	0	0	499	550	132	524	38	0	
12	0	0	0	0	488	559	132	528	38	0	
13	0	0	0	0	489	563	132	528	38	0	
14	0	0	0	0	468	559	132	526	38	0	
15	0	0	0	0	472	551	132	524	38	0	
0	0	0	0	0	479	540	132	519	38	0	
1	0	0	0	0	490	524	132	514	38	0	
2	0	0	0	0	496	508	132	510	38	0	
3	0	0	0	0	518	494	132	506	38	0	
4	0	0	0	0	525	484	132	504	38	0	
5	0	0	0	0	524	478	132	502	38	0	
6	0	0	0	0	541	476	132	501	38	0	
7	0	0	0	0	542	483	132	501	38	0	
8	0	0	0	0	547	495	132	503	38	0	
9	0	0	0	0	530	510	132	507	38	0	
10	0	0	0	0	519	526	132	514	38	0	
11	0	0	0	0	512	541	132	520	38	0	
12	0	0	0	0	490	552	132	527	38	0	
13	0	0	0	0	492	556	132	529	38	0	
14	0	0	0	0	480	556	132	529	38	0	
15	0	0	0	0	472	550	132	527	38	0	
0	0	0	0	0	484	540	133	523	38	0	
1	0	0	0	0	479	526	133	518	38	0	
2	0	0	0	0	487	511	132	512	38	0	
3	0	0	0	0	501	497	132	507	38	0	
4	0	0	0	0	520	485	132	505	38	0	
5	0	0	0	0	531	478	132	503	38	0	
6	0	0	0	0	521	472	132	502	38	0	
7	0	0	0	0	550	472	132	501	38	0	
8	0	0	0	0	543	479	132	504	38	0	
9	0	0	0	0	538	492	132	507	38	0	
10	0	0	0	0	532	509	132	513	38	0	
11	0	0	0	0	525	527	132	518	38	0	
12	0	0	0	0	508	543	132	528	38	0	
13	0	0	0	0	496	556	133	536	38	0	
14	0	0	0	0	490	563	132	544	38	0	
15	0	0	0	0	463	566	131	534	38	0	
0	0	0	0	0	466	560	131	529	38	0	
1	0	0	0	0	477	550	132	523	38	0	
2	0	0	0	0	481	535	132	519	38	0	
3	0	0	0	0	496	519	132	512	38	0	
4	0	0	0	0	503	503	132	519	38	0	
5	0	0	0	0	523	492	133	502	38	0	
6	0	0	0	0	529	484	133	500	38	0	
7	0	0	0	0	541	481	133	501	38	0	
8	0	0	0	0	550	485	133	502	38	0	
9	0	0	0	0	543	494	133	504	38	0	
10	0	0	0	0	537	507	133	508	38	0	
11	0	0	0	0	526	522	132	510	38	0	
12	0	0	0	0	512	537	132	518	38	0	
13	0	0	0	0	506	551	132	522	38	0	
14	0	0	0	0	497	560	132	523	38	0	
15	0	0	0	0	485	564	132	524	38	0	
0	0	0	0	0	469	560	132	523	38	0	
1	0	0	0	0	468	551	132	521	38	0	
2	0	0	0	0	477	536	132	517	38	0	
3	0	0	0	0	478	519	132	514	38	0	
4	0	0	0	0	503	501	133	510	38	0	
5	0	0	0	0	507	485	133	505	38	0	
6	0	0	0	0	525	472	133	504	38	0	
7	0	0	0	0	531	463	133	502	38	0	
8	0	0	0	0	542	461	133	500	38	0	
9	0	0	0	0	547	468	132	499	38	0	
10	0	0	0	0	543	480	132	500	38	0	
11	0	0	0	0	539	495	132	504	38	0	
12	0	0	0	0	524	512	131	511	38	0	
13	0	0	0	0	510	529	131	518	38	0	
14	0	0	0	0	491	544	131	521	38	0	
15	0	0	0	0	489	552	131	524	38	0	
0	0	0	0	0	476	555	131	524	38	0	
1	0	0	0	0	464	550	132	522	38	0	
2	0	0	0	0	477	539	132	518	38	0	
3	0	0	0	0	473	525	133	515	38	0	
4	0	0	0	0	493	509	132	511	38	0	
5	0	0	0	0	500	493	132	507	38	0	
6	0	0	0	0	512	478	132	502	38	0	
7	0	0	0	0	524	465	132	499	38	0	
8	0	0	0	0	535	459	132	498	38	0	
9	0	0	0	0	554	460	132	499	38	0	
10	0	0	0	0	538	468	133	501	38	0	
11	0	0	0	0	544	481	132	505	38	0	
12	0	0	0	0	533	496	132	511	38	0	
13	0	0	0	0	515	513	132	515	38	0	
14	0	0	0	0	507	527	132	517	38	0	
15	0	0	0	0	498	538	132	520	38	0	
0	0	0	0	0	490	542	132	519	38	0	
1	0	0	0	0	467	543	132	519	38	0	
2	0	0	0	0	478	538	132	516	38	0	
3	0	0	0	0	477	527	132	514	38	0	
4	0	0	0	0	482	510	133	511	38	0	
5	0	0	0	0	502	493	133	507	38	0	
6	0	0	0	0	505	478	132	502	38	0	
7	0	0	0	0	522	465	132	500	38	0	
8	0	0	0	0	524	457	132	499	38	0	
9	0	0	0	0	540	452	132	497	38	0	
10	0	0	0	0	545	457	133	499	38	0	
11	0	0	0	0	532	468	133	502	38	0	
12	0	0	0	0	544	482	133	505	38	0	
13	0	0	0	0	521	499	132	509	38	0	
14	0	0	0	0	519	513	132	516	38	0	
15	0	0	0	0	504	526	133	523	38	0	
0	0	0	0	0	495	536	132	529	38	0	
1	0	0	0	0	483	542	132	529	38	0	
2	0	0	0	0	463	540	131	527	38	0	
3	0	0	0	0	472	531	131	525	38	0	
4	0	0	0	0	467	519	131	520	38	0	
5	0	0	0	0	481	504	132	514	38	0	
6	0	0	0	0	493	490	132	510	38	0	
7	0	0	0	0	515	476	132	504	38	0	
8	0	0	0	0	525	466	132	502	38	0	
9	0	0	0	0	528	460	133	500	38	0	
10	0	0	0	0	552	459	133	500	38	0	
11	0	0	0	0	554	466	133	503	38	0	
12	0	0	0	0	541	478	133	505	38	0	
13	0	0	0	0	534	493	133	510	38	0	
14	0	0	0	0	522	509	132	515	38	0	
15	0	0	0	0	508	523	132	520	38	0	
0	0	0	0	0	493	534	133	524	38	0	
1	0	0	0	0	487	540	132	525	38	0	
2	0	0	0	0	483	542	132	523	38	0	
3	0	0	0	0	468	535	131	519	38	0	
4	0	0	0	0	475	526	131	517	38	0	
5	0	0	0	0	476	513	131	514	38	0	
6	0	0	0	0	495	498	132	512	38	0	
7	0	0	0	0	501	484	132	519	38	0	
8	0	0	0	0	511	472	132	505	38	0	
9	0	0	0	0	520	462	132	505	38	0	
10	0	0	0	0	531	456	132	503	38	0	
11	0	0	0	0	560	456	132	503	38	0	
12	0	0	0	0	547	464	132	504	38	0	
13	0	0	0	0	540	476	132	508	38	0	
14	0	0	0	0	528	490	132	514	38	0	
15	0	0	0	0	519	504	131	517	38	0	
0	0	0	0	0	508	518	131	523	38	0	
1	0	0	0	0	495	528	131	527	38	0	
2	0	0	0	0	481	536	132	527	38	0	
3	0	0	0	0	475	539	132	527	38	0	
4	0	0	0	0	473	534	132	522	38	0	
5	0	0	0	0	483	523	132	518	38	0	
6	0	0	0	0	481	507	132	513	38	0	
7	0	0	0	0	489	490	133	510	38	0	
8	0	0	0	0	509	475	133	507	38	0	
9	0	0	0	0	518	464	133	504	38	0	
10	0	0	0	0	524	458	133	503	38	0	
11	0	0	0	0	542	456	132	504	38	0	
12	0	0	0	0	542	463	132	504	38	0	
13	0	0	0	0	547	475	133	506	38	0	
14	0	0	0	0	543	491	133	512	38	0	
15	0	0	0	0	526	507	133	515	38	0	
0	0	0	0	0	514	523	133	525	38	0	
1	0	0	0	0	501	536	132	529	38	0	
2	0	0	0	0	492	544	131	530	38	0	
3	0	0	0	0	486	550	131	528	38	0	
4	0	0	0	0	463	548	131	527	38	0	
5	0	0	0	0	475	539	132	524	38	0	
6	0	0	0	0	485	526	132	518	38	0	
7	0	0	0	0	480	511	132	516	38	0	
8	0	0	0	0	497	496	132	512	38	0	
9	0	0	0	0	514	482	132	509	38	0	
10	0	0	0	0	523	470	132	506	38	0	
11	0	0	0	0	533	463	132	504	38	0	
12	0	0	0	0	543	463	132	500	38	0	
13	0	0	0	0	543	471	132	500	38	0	
14	0	0	0	0	545	483	132	502	38	0	
15	0	0	0	0	534	499	132	507	38	0	
0	0	0	0	0	519	515	132	514	38	0	
1	0	0	0	0	515	528	132	519	38	0	
2	0	0	0	0	496	540	131	520	38	0	
3	0	0	0	0	486	547	131	521	38	0	
4	0	0	0	0	480	550	131	523	38	0	
5	0	0	0	0	469	545	131	519	38	0	
6	0	0	0	0	473	536	132	517	38	0	
7	0	0	0	0	473	523	132	511	38	0	
8	0	0	0	0	489	509	133	507	38	0	
9	0	0	0	0	503	494	133	502	38	0	
10	0	0	0	0	512	479	133	499	38	0	
11	0	0	0	0	527	469	133	497	38	0	
12	0	0	0	0	527	463	133	496	38	0	
13	0	0	0	0	545	464	133	496	38	0	
14	0	0	0	0	547	472	133	497	38	0	
15	0	0	0	0	540	483	133	499	38	0	
0	0	0	0	0	528	498	133	505	38	0	
1	0	0	0	0	522	515	133	510	38	0	
2	0	0	0	0	510	530	132	515	38	0	
3	0	0	0	0	493	542	133	515	38	0	
4	0	0	0	0	488	550	132	516	38	0	
5	0	0	0	0	466	550	131	515	38	0	
6	0	0	0	0	468	542	131	512	38	0	
7	0	0	0	0	480	529	132	509	38	0	
8	0	0	0	0	483	513	132	506	38	0	
9	0	0	0	0	490	496	133	504	38	0	
10	0	0	0	0	507	481	133	500	38	0	
11	0	0	0	0	514	470	133	499	38	0	
12	0	0	0	0	529	464	133	499	38	0	
13	0	0	0	0	542	463	133	499	38	0	
14	0	0	0	0	548	471	133	500	38	0	
15	0	0	0	0	543	483	133	504	38	0	
0	0	0	0	0	540	499	132	509	38	0	
1	0	0	0	0	526	515	133	514	38	0	
2	0	0	0	0	511	531	133	520	38	0	
3	0	0	0	0	500	543	133	526	38	0	
4	0	0	0	0	491	552	132	527	38	0	
5	0	0	0	0	487	558	132	528	38	0	
6	0	0	0	0	468	556	132	527	38	0	
7	0	0	0	0	473	548	133	521	38	0	
8	0	0	0	0	476	535	133	518	38	0	
9	0	0	0	0	481	519	133	514	38	0	
10	0	0	0	0	495	504	132	512	38	0	
11	0	0	0	0	514	491	132	508	38	0	
12	0	0	0	0	530	478	132	505	38	0	
13	0	0	0	0	532	472	132	502	38	0	
14	0	0	0	0	547	472	132	501	38	0	
15	0	0	0	0	545	481	132	502	38	0	
0	0	0	0	0	538	494	132	504	38	0	
1	0	0	0	0	535	510	132	511	38	0	
2	0	0	0	0	519	527	132	519	38	0	
3	0	0	0	0	508	543	132	523	38	0	
4	0	0	0	0	492	556	132	529	38	0	
5	0	0	0	0	499	564	132	530	38	0	
6	0	0	0	0	484	568	132	529	38	0	
7	0	0	0	0	466	565	132	526	38	0	
8	0	0	0	0	474	557	132	522	38	0	
9	0	0	0	0	476	543	133	518	38	0	
10	0	0	0	0	494	527	133	513	38	0	
11	0	0	0	0	505	511	133	509	38	0	
12	0	0	0	0	515	496	132	505	38	0	
13	0	0	0	0	523	486	132	504	38	0	
14	0	0	0	0	533	482	132	502	38	0	
15	0	0	0	0	549	484	132	502	38	0	
0	0	0	0	0	542	495	132	503	38	0	
1	0	0	0	0	536	509	132	507	38	0	
2	0	0	0	0	530	527	132	511	38	0	
3	0	0	0	0	519	545	132	515	38	0	
4	0	0	0	0	515	561	132	521	38	0	
5	0	0	0	0	488	574	132	525	38	0	
6	0	0	0	0	486	581	132	525	38	0	
7	0	0	0	0	469	580	132	527	38	0	
8	0	0	0	0	470	572	132	522	38	0	
9	0	0	0	0	478	559	132	516	38	0	
10	0	0	0	0	477	545	133	524	38	0	
11	0	0	0	0	496	530	133	508	38	0	
12	0	0	0	0	504	517	133	506	38	0	
13	0	0	0	0	516	507	133	504	38	0	
14	0	0	0	0	523	502	133	503	38	0	
15	0	0	0	0	539	499	133	504	38	0	
0	0	0	0	0	551	503	133	506	38	0	
1	0	0	0	0	545	513	133	505	38	0	
2	0	0	0	0	545	526	133	511	38	0	
3	0	0	0	0	524	539	132	513	38	0	
4	0	0	0	0	511	551	132	515	38	0	
5	0	0	0	0	505	562	132	517	38	0	
6	0	0	0	0	498	569	132	523	38	0	
7	0	0	0	0	487	570	132	519	38	0	
8	0	0	0	0	469	563	133	517	38	0	
9	0	0	0	0	470	549	132	515	38	0	
10	0	0	0	0	480	531	132	512	38	0	
11	0	0	0	0	483	510	132	508	38	0	
12	0	0	0	0	494	487	132	504	38	0	
13	0	0	0	0	507	467	132	500	38	0	
14	0	0	0	0	520	451	133	509	38	0	
15	0	0	0	0	526	439	133	495	38	0	
0	0	0	0	0	552	433	133	496	38	0	
1	0	0	0	0	546	438	133	497	38	0	
2	0	0	0	0	540	449	133	500	38	0	
3	0	0	0	0	532	466	132	506	38	0	
4	0	0	0	0	521	483	132	512	38	0	
5	0	0	0	0	519	499	132	518	38	0	
6	0	0	0	0	497	510	132	522	38	0	
7	0	0	0	0	485	514	132	524	38	0	
8	0	0	0	0	482	512	133	524	38	0	
9	0	0	0	0	471	501	132	520	38	0	
10	0	0	0	0	475	487	132	518	38	0	
11	0	0	0	0	478	469	132	514	38	0	
12	0	0	0	0	493	451	132	511	38	0	
13	0	0	0	0	501	436	132	507	38	0	
14	0	0	0	0	520	424	132	502	38	0	
15	0	0	0	0	531	418	133	508	38	0	
0	0	0	0	0	527	417	133	499	38	0	
1	0	0	0	0	550	423	133	499	38	0	
2	0	0	0	0	545	435	133	502	38	0	
3	0	0	0	0	536	451	133	505	38	0	
4	0	0	0	0	532	468	133	510	38	0	
5	0	0	0	0	519	487	133	516	38	0	
6	0	0	0	0	505	505	133	522	38	0	
7	0	0	0	0	489	519	133	527	38	0	
8	0	0	0	0	487	530	133	528	38	0	
9	0	0	0	0	474	535	133	526	38	0	
10	0	0	0	0	472	531	132	523	38	0	
11	0	0	0	0	477	523	132	519	38	0	
12	0	0	0	0	477	510	133	514	38	0	
13	0	0	0	0	491	496	133	509	38	0	
14	0	0	0	0	505	480	133	504	38	0	
15	0	0	0	0	521	469	133	501	38	0	
0	0	0	0	0	526	463	132	499	38	0	
1	0	0	0	0	537	463	132	497	38	0	
2	0	0	0	0	547	470	132	497	38	0	
3	0	0	0	0	543	479	132	499	38	0	
4	0	0	0	0	541	492	132	504	38	0	
5	0	0	0	0	528	509	132	508	38	0	
6	0	0	0	0	510	526	132	515	38	0	
7	0	0	0	0	504	540	132	523	38	0	
8	0	0	0	0	494	552	132	526	38	0	
9	0	0	0	0	487	558	132	526	38	0	
10	0	0	0	0	465	556	132	524	38	0	
11	0	0	0	0	475	548	132	519	38	0	
12	0	0	0	0	475	536	133	515	38	0	
13	0	0	0	0	480	522	133	511	38	0	
14	0	0	0	0	500	507	132	507	38	0	
15	0	0	0	0	506	492	132	509	38	0	
0	0	0	0	0	518	481	132	506	38	0	
1	0	0	0	0	537	472	132	504	38	0	
2	0	0	0	0	552	468	132	504	38	0	
3	0	0	0	0	552	473	133	506	38	0	
4	0	0	0	0	544	482	133	508	38	0	
5	0	0	0	0	535	499	132	512	38	0	
6	0	0	0	0	519	517	132	513	38	0	
7	0	0	0	0	504	533	132	517	38	0	
8	0	0	0	0	495	546	133	520	38	0	
9	0	0	0	0	491	556	132	521	38	0	
10	0	0	0	0	476	561	132	522	38	0	
11	0	0	0	0	468	557	132	521	38	0	
12	0	0	0	0	468	547	133	519	38	0	
13	0	0	0	0	470	534	133	515	38	0	
14	0	0	0	0	492	519	132	510	38	0	
15	0	0	0	0	507	504	132	507	38	0	
0	0	0	0	0	518	492	132	503	38	0	
1	0	0	0	0	526	480	132	501	38	0	
2	0	0	0	0	536	475	132	498	38	0	
3	0	0	0	0	554	477	132	498	38	0	
4	0	0	0	0	543	484	132	499	38	0	
5	0	0	0	0	539	496	132	501	38	0	
6	0	0	0	0	529	511	132	507	38	0	
7	0	0	0	0	517	527	132	515	38	0	
8	0	0	0	0	510	541	132	520	38	0	
9	0	0	0	0	499	552	132	524	38	0	
10	0	0	0	0	486	560	132	526	38	0	
11	0	0	0	0	465	562	132	526	38	0	
12	0	0	0	0	469	555	132	524	38	0	
13	0	0	0	0	477	542	133	520	38	0	
14	0	0	0	0	483	526	133	516	38	0	
15	0	0	0	0	491	508	132	511	38	0	
0	0	0	0	0	504	491	132	515	38	0	
1	0	0	0	0	522	479	132	507	38	0	
2	0	0	0	0	528	471	132	503	38	0	
3	0	0	0	0	541	468	133	500	38	0	
4	0	0	0	0	542	475	132	504	38	0	
5	0	0	0	0	542	486	132	515	38	0	
6	0	0	0	0	544	502	132	512	38	0	
7	0	0	0	0	523	520	132	533	38	0	
8	0	0	0	0	508	537	132	552	38	0	
9	0	0	0	0	499	551	132	558	38	0	
10	0	0	0	0	490	559	132	554	38	0	
11	0	0	0	0	484	563	132	547	38	0	
12	0	0	0	0	473	560	132	540	38	0	
13	0	0	0	0	472	551	132	533	38	0	
14	0	0	0	0	471	537	133	525	38	0	
15	0	0	0	0	483	521	133	517	38	0	
0	0	0	0	0	507	505	132	511	38	0	
1	0	0	0	0	516	489	132	504	38	0	
2	0	0	0	0	522	478	132	515	38	0	
3	0	0	0	0	537	472	132	511	38	0	
4	0	0	0	0	545	471	132	500	38	0	
5	0	0	0	0	537	477	132	500	38	0	
6	0	0	0	0	538	487	132	499	38	0	
7	0	0	0	0	535	499	132	507	38	0	
8	0	0	0	0	520	512	132	510	38	0	
9	0	0	0	0	514	526	132	513	38	0	
10	0	0	0	0	498	537	132	517	38	0	
11	0	0	0	0	487	545	132	519	38	0	
12	0	0	0	0	480	548	132	519	38	0	
13	0	0	0	0	469	543	132	518	38	0	
14	0	0	0	0	472	533	133	514	38	0	
15	0	0	0	0	476	519	133	510	38	0	
0	0	0	0	0	489	503	133	504	38	0	
1	0	0	0	0	507	488	133	500	38	0	
2	0	0	0	0	515	478	133	498	38	0	
3	0	0	0	0	526	469	133	496	38	0	
4	0	0	0	0	525	463	132	496	38	0	
5	0	0	0	0	556	465	132	495	38	0	
6	0	0	0	0	546	472	132	496	38	0	
7	0	0	0	0	542	486	133	500	38	0	
8	0	0	0	0	528	503	132	504	38	0	
9	0	0	0	0	515	519	132	508	38	0	
10	0	0	0	0	506	534	133	512	38	0	
11	0	0	0	0	486	545	132	516	38	0	
12	0	0	0	0	488	553	131	517	38	0	
13	0	0	0	0	473	556	131	517	38	0	
14	0	0	0	0	470	549	132	515	38	0	
15	0	0	0	0	475	538	132	512	38	0	
0	0	0	0	0	482	523	132	510	38	0	
1	0	0	0	0	491	505	133	507	38	0	
2	0	0	0	0	508	489	133	505	38	0	
3	0	0	0	0	522	476	133	504	38	0	
4	0	0	0	0	532	468	133	501	38	0	
5	0	0	0	0	538	464	132	501	38	0	
6	0	0	0	0	549	467	133	502	38	0	
7	0	0	0	0	533	476	132	507	38	0	
8	0	0	0	0	535	489	132	511	38	0	
9	0	0	0	0	528	505	132	515	38	0	
10	0	0	0	0	518	521	132	529	38	0	
11	0	0	0	0	494	534	132	541	38	0	
12	0	0	0	0	488	544	132	545	38	0	
13	0	0	0	0	489	550	132	543	38	0	
14	0	0	0	0	461	547	132	540	38	0	
15	0	0	0	0	473	540	133	534	38	0	
0	0	0	0	0	477	527	132	526	38	0	
1	0	0	0	0	493	511	133	532	38	0	
2	0	0	0	0	497	494	133	514	38	0	
3	0	0	0	0	509	478	133	508	38	0	
4	0	0	0	0	524	465	133	503	38	0	
5	0	0	0	0	527	458	133	500	38	0	
6	0	0	0	0	544	456	133	500	38	0	
7	0	0	0	0	548	461	133	499	38	0	
8	0	0	0	0	540	469	133	502	38	0	
9	0	0	0	0	539	484	133	507	38	0	
10	0	0	0	0	514	500	133	513	38	0	
11	0	0	0	0	512	515	133	518	38	0	
12	0	0	0	0	491	527	133	518	38	0	
13	0	0	0	0	486	535	132	518	38	0	
14	0	0	0	0	476	538	132	517	38	0	
15	0	0	0	0	464	533	131	515	38	0	
0	0	0	0	0	477	521	131	511	38	0	
1	0	0	0	0	479	507	132	507	38	0	
2	0	0	0	0	491	491	132	501	38	0	
3	0	0	0	0	505	474	132	496	38	0	
4	0	0	0	0	518	460	133	492	38	0	
5	0	0	0	0	526	451	133	490	38	0	
6	0	0	0	0	529	444	133	490	38	0	
7	0	0	0	0	552	445	133	490	38	0	
8	0	0	0	0	538	454	133	492	38	0	
9	0	0	0	0	540	467	133	495	38	0	
10	0	0	0	0	531	483	133	500	38	0	
11	0	0	0	0	520	498	132	505	38	0	
12	0	0	0	0	511	510	133	512	38	0	
13	0	0	0	0	500	519	133	518	38	0	
14	0	0	0	0	487	524	133	519	38	0	
15	0	0	0	0	473	525	132	518	38	0	
0	0	0	0	0	477	520	131	518	38	0	
1	0	0	0	0	476	510	131	515	38	0	
2	0	0	0	0	475	496	132	512	38	0	
3	0	0	0	0	492	483	132	508	38	0	
4	0	0	0	0	508	470	133	506	38	0	
5	0	0	0	0	516	458	133	505	38	0	
6	0	0	0	0	532	450	133	504	38	0	
7	0	0	0	0	538	447	133	502	38	0	
8	0	0	0	0	549	452	132	503	38	0	
9	0	0	0	0	538	464	132	505	38	0	
10	0	0	0	0	541	480	132	507	38	0	
11	0	0	0	0	524	497	131	511	38	0	
12	0	0	0	0	513	515	131	518	38	0	
13	0	0	0	0	498	530	132	523	38	0	
14	0	0	0	0	493	540	132	525	38	0	
15	0	0	0	0	492	544	132	524	38	0	
0	0	0	0	0	466	542	132	523	38	0	
1	0	0	0	0	475	532	133	531	38	0	
2	0	0	0	0	471	519	132	527	38	0	
3	0	0	0	0	487	503	132	512	38	0	
4	0	0	0	0	491	487	132	507	38	0	
5	0	0	0	0	515	473	132	502	38	0	
6	0	0	0	0	524	462	132	500	38	0	
7	0	0	0	0	526	455	133	499	38	0	
8	0	0	0	0	546	453	133	500	38	0	
9	0	0	0	0	545	459	133	502	38	0	
10	0	0	0	0	545	467	133	505	38	0	
11	0	0	0	0	536	481	133	509	38	0	
12	0	0	0	0	523	497	133	518	38	0	
13	0	0	0	0	508	513	133	526	38	0	
14	0	0	0	0	490	527	133	532	38	0	
15	0	0	0	0	491	536	133	535	38	0	
0	0	0	0	0	476	540	132	535	38	0	
1	0	0	0	0	472	535	131	531	38	0	
2	0	0	0	0	478	526	131	524	38	0	
3	0	0	0	0	478	512	132	516	38	0	
4	0	0	0	0	497	496	132	511	38	0	
5	0	0	0	0	500	481	132	506	38	0	
6	0	0	0	0	516	467	133	500	38	0	
7	0	0	0	0	527	457	133	499	38	0	
8	0	0	0	0	530	451	133	496	38	0	
9	0	0	0	0	545	453	133	497	38	0	
10	0	0	0	0	540	463	133	498	38	0	
11	0	0	0	0	540	477	133	500	38	0	
12	0	0	0	0	529	492	132	504	38	0	
13	0	0	0	0	525	507	133	508	38	0	
14	0	0	0	0	513	520	133	513	38	0	
15	0	0	0	0	492	530	133	516	38	0	
0	0	0	0	0	490	536	132	517	38	0	
1	0	0	0	0	472	536	132	521	38	0	
2	0	0	0	0	473	527	131	519	38	0	
3	0	0	0	0	477	516	132	518	38	0	
4	0	0	0	0	478	502	132	513	38	0	
5	0	0	0	0	495	487	133	509	38	0	
6	0	0	0	0	505	472	133	504	38	0	
7	0	0	0	0	519	460	133	500	38	0	
8	0	0	0	0	528	450	133	498	38	0	
9	0	0	0	0	540	444	133	498	38	0	
10	0	0	0	0	545	448	132	497	38	0	
11	0	0	0	0	538	458	132	500	38	0	
12	0	0	0	0	545	473	132	507	38	0	
13	0	0	0	0	525	490	132	515	38	0	
14	0	0	0	0	515	507	132	519	38	0	
15	0	0	0	0	506	522	132	522	38	0	
0	0	0	0	0	496	534	132	523	38	0	
1	0	0	0	0	486	543	133	521	38	0	
2	0	0	0	0	469	543	133	517	38	0	
3	0	0	0	0	468	535	133	513	38	0	
4	0	0	0	0	471	521	132	511	38	0	
5	0	0	0	0	491	504	132	507	38	0	
6	0	0	0	0	493	485	132	504	38	0	
7	0	0	0	0	508	471	132	499	38	0	
8	0	0	0	0	529	462	132	497	38	0	
9	0	0	0	0	533	458	132	498	38	0	
10	0	0	0	0	544	458	132	499	38	0	
11	0	0	0	0	542	466	132	501	38	0	
12	0	0	0	0	537	478	132	503	38	0	
13	0	0	0	0	534	494	132	508	38	0	
14	0	0	0	0	525	509	132	514	38	0	
15	0	0	0	0	511	524	132	520	38	0	
0	0	0	0	0	503	536	132	525	38	0	
1	0	0	0	0	488	544	132	528	38	0	
2	0	0	0	0	481	548	132	526	38	0	
3	0	0	0	0	464	543	132	521	38	0	
4	0	0	0	0	475	534	133	516	38	0	
5	0	0	0	0	476	520	133	512	38	0	
6	0	0	0	0	496	505	133	507	38	0	
7	0	0	0	0	501	490	133	504	38	0	
8	0	0	0	0	518	477	133	506	38	0	
9	0	0	0	0	527	466	133	504	38	0	
10	0	0	0	0	531	460	132	501	38	0	
11	0	0	0	0	548	462	132	501	38	0	
12	0	0	0	0	541	471	132	504	38	0	
13	0	0	0	0	536	483	132	508	38	0	
14	0	0	0	0	531	500	132	513	38	0	
15	0	0	0	0	516	516	131	519	38	0	
0	0	0	0	0	515	528	131	525	38	0	
1	0	0	0	0	490	538	132	530	38	0	
2	0	0	0	0	489	543	132	532	38	0	
3	0	0	0	0	467	543	132	531	38	0	
4	0	0	0	0	472	535	132	527	38	0	
5	0	0	0	0	472	523	132	521	38	0	
6	0	0	0	0	478	508	133	517	38	0	
7	0	0	0	0	494	493	133	512	38	0	
8	0	0	0	0	498	479	133	506	38	0	
9	0	0	0	0	526	467	133	503	38	0	
10	0	0	0	0	534	458	132	501	38	0	
11	0	0	0	0	536	455	132	500	38	0	
12	0	0	0	0	553	460	132	500	38	0	
13	0	0	0	0	542	469	132	503	38	0	
14	0	0	0	0	542	482	132	508	38	0	
15	0	0	0	0	529	497	132	512	38	0	
0	0	0	0	0	516	512	132	522	38	0	
1	0	0	0	0	506	525	132	528	38	0	
2	0	0	0	0	494	534	132	530	38	0	
3	0	0	0	0	484	538	133	530	38	0	
4	0	0	0	0	466	534	133	529	38	0	
5	0	0	0	0	471	524	132	525	38	0	
6	0	0	0	0	476	511	131	520	38	0	
7	0	0	0	0	485	495	132	514	38	0	
8	0	0	0	0	492	480	132	510	38	0	
9	0	0	0	0	508	467	132	505	38	0	
10	0	0	0	0	519	455	133	502	38	0	
11	0	0	0	0	534	448	133	498	38	0	
12	0	0	0	0	549	447	133	496	38	0	
13	0	0	0	0	540	454	133	496	38	0	
14	0	0	0	0	538	465	133	499	38	0	
15	0	0	0	0	542	481	133	504	38	0	
0	0	0	0	0	517	498	133	509	38	0	
1	0	0	0	0	508	513	133	517	38	0	
2	0	0	0	0	506	527	133	522	38	0	
3	0	0	0	0	489	535	133	523	38	0	
4	0	0	0	0	478	537	133	523	38	0	
5	0	0	0	0	468	532	132	521	38	0	
6	0	0	0	0	474	522	133	518	38	0	
7	0	0	0	0	472	507	132	513	38	0	
8	0	0	0	0	490	493	132	510	38	0	
9	0	0	0	0	500	478	132	506	38	0	
10	0	0	0	0	512	464	132	504	38	0	
11	0	0	0	0	524	455	132	501	38	0	
12	0	0	0	0	536	451	132	499	38	0	
13	0	0	0	0	551	454	133	498	38	0	
14	0	0	0	0	545	463	133	502	38	0	
15	0	0	0	0	541	475	133	504	38	0	
0	0	0	0	0	530	490	132	508	38	0	
1	0	0	0	0	517	505	132	512	38	0	
2	0	0	0	0	510	519	132	515	38	0	
3	0	0	0	0	491	530	132	519	38	0	
4	0	0	0	0	491	537	132	519	38	0	
5	0	0	0	0	472	537	132	518	38	0	
6	0	0	0	0	465	530	133	514	38	0	
7	0	0	0	0	475	521	133	509	38	0	
8	0	0	0	0	488	507	133	505	38	0	
9	0	0	0	0	492	492	132	502	38	0	
10	0	0	0	0	500	476	132	500	38	0	
11	0	0	0	0	520	465	132	497	38	0	
12	0	0	0	0	528	458	132	495	38	0	
13	0	0	0	0	545	456	132	496	38	0	
14	0	0	0	0	545	463	132	497	38	0	
15	0	0	0	0	536	473	133	500	38	0	
0	0	0	0	0	544	484	132	504	38	0	
1	0	0	0	0	526	499	132	509	38	0	
2	0	0	0	0	505	514	132	515	38	0	
3	0	0	0	0	495	526	132	519	38	0	
4	0	0	0	0	492	537	133	523	38	0	
5	0	0	0	0	489	543	132	522	38	0	
6	0	0	0	0	470	541	131	520	38	0	
7	0	0	0	0	471	532	131	518	38	0	
8	0	0	0	0	473	518	132	513	38	0	
9	0	0	0	0	486	502	132	509	38	0	
10	0	0	0	0	495	487	133	504	38	0	
11	0	0	0	0	512	472	133	500	38	0	
12	0	0	0	0	526	462	133	498	38	0	
13	0	0	0	0	529	455	133	496	38	0	
14	0	0	0	0	539	453	133	497	38	0	
15	0	0	0	0	547	458	133	500	38	0	
0	0	0	0	0	542	469	133	504	38	0	
1	0	0	0	0	536	483	133	509	38	0	
2	0	0	0	0	513	501	132	514	38	0	
3	0	0	0	0	513	517	131	518	38	0	
4	0	0	0	0	501	532	131	521	38	0	
5	0	0	0	0	492	541	131	521	38	0	
6	0	0	0	0	472	547	131	525	38	0	
7	0	0	0	0	461	545	131	525	38	0	
8	0	0	0	0	473	537	132	523	38	0	
9	0	0	0	0	475	523	132	518	38	0	
10	0	0	0	0	496	505	133	512	38	0	
11	0	0	0	0	504	489	133	507	38	0	
12	0	0	0	0	509	476	133	504	38	0	
13	0	0	0	0	536	466	133	501	38	0	
14	0	0	0	0	538	461	133	500	38	0	
15	0	0	0	0	555	465	133	499	38	0	
0	0	0	0	0	545	474	133	503	38	0	
1	0	0	0	0	536	486	132	507	38	0	
2	0	0	0	0	527	501	132	516	38	0	
3	0	0	0	0	519	517	132	525	38	0	
4	0	0	0	0	513	531	131	528	38	0	
5	0	0	0	0	492	542	131	537	38	0	
6	0	0	0	0	489	550	132	541	38	0	
7	0	0	0	0	467	550	132	540	38	0	
8	0	0	0	0	467	543	132	537	38	0	
9	0	0	0	0	475	531	132	531	38	0	
10	0	0	0	0	486	517	133	526	38	0	
11	0	0	0	0	492	501	133	519	38	0	
12	0	0	0	0	505	488	133	511	38	0	
13	0	0	0	0	524	478	133	512	38	0	
14	0	0	0	0	530	471	133	503	38	0	
15	0	0	0	0	534	468	133	499	38	0	
0	0	0	0	0	546	473	133	498	38	0	
1	0	0	0	0	539	481	133	502	38	0	
2	0	0	0	0	547	494	133	505	38	0	
3	0	0	0	0	531	507	132	510	38	0	
4	0	0	0	0	524	521	132	515	38	0	
5	0	0	0	0	496	534	132	518	38	0	
6	0	0	0	0	487	543	132	519	38	0	
7	0	0	0	0	482	549	133	519	38	0	
8	0	0	0	0	463	548	133	518	38	0	
9	0	0	0	0	477	542	133	516	38	0	
10	0	0	0	0	472	530	133	512	38	0	
11	0	0	0	0	487	513	133	510	38	0	
12	0	0	0	0	503	498	133	506	38	0	
13	0	0	0	0	508	483	133	502	38	0	
14	0	0	0	0	527	472	133	500	38	0	
15	0	0	0	0	526	465	132	499	38	0	
0	0	0	0	0	548	465	132	500	38	0	
1	0	0	0	0	542	473	132	502	38	0	
2	0	0	0	0	541	484	132	504	38	0	
3	0	0	0	0	540	499	132	508	38	0	
4	0	0	0	0	520	514	132	515	38	0	
5	0	0	0	0	514	530	132	520	38	0	
6	0	0	0	0	492	544	132	524	38	0	
7	0	0	0	0	491	552	132	528	38	0	
8	0	0	0	0	478	554	132	526	38	0	
9	0	0	0	0	461	549	133	521	38	0	
10	0	0	0	0	476	539	133	518	38	0	
11	0	0	0	0	474	524	132	514	38	0	
12	0	0	0	0	491	508	132	508	38	0	
13	0	0	0	0	506	492	132	505	38	0	
14	0	0	0	0	513	482	132	502	38	0	
15	0	0	0	0	521	474	132	502	38	0	
0	0	0	0	0	530	470	133	501	38	0	
1	0	0	0	0	559	473	133	500	38	0	
2	0	0	0	0	543	481	133	502	38	0	
3	0	0	0	0	545	494	133	504	38	0	
4	0	0	0	0	532	510	132	509	38	0	
5	0	0	0	0	523	525	132	514	38	0	
6	0	0	0	0	502	537	133	520	38	0	
7	0	0	0	0	495	546	133	526	38	0	
8	0	0	0	0	487	551	133	527	38	0	
9	0	0	0	0	476	552	132	525	38	0	
10	0	0	0	0	471	545	132	523	38	0	
11	0	0	0	0	468	534	132	519	38	0	
12	0	0	0	0	483	517	132	513	38	0	
13	0	0	0	0	495	500	132	509	38	0	
14	0	0	0	0	506	485	132	504	38	0	
15	0	0	0	0	520	473	132	503	38	0	
0	0	0	0	0	527	464	132	500	38	0	
1	0	0	0	0	545	460	132	498	38	0	
2	0	0	0	0	553	464	133	512	38	0	
3	0	0	0	0	544	472	133	504	38	0	
4	0	0	0	0	540	486	133	505	38	0	
5	0	0	0	0	523	500	132	510	38	0	
6	0	0	0	0	511	515	133	516	38	0	
7	0	0	0	0	499	528	132	519	38	0	
8	0	0	0	0	487	537	133	520	38	0	
9	0	0	0	0	486	542	133	518	38	0	
10	0	0	0	0	466	538	132	516	38	0	
11	0	0	0	0	472	528	132	513	38	0	
12	0	0	0	0	475	515	132	509	38	0	
13	0	0	0	0	488	500	132	505	38	0	
14	0	0	0	0	504	485	132	502	38	0	
15	0	0	0	0	515	469	132	498	38	0	
0	0	0	0	0	522	457	132	496	38	0	
1	0	0	0	0	522	451	132	496	38	0	
2	0	0	0	0	550	450	132	496	38	0	
3	0	0	0	0	547	458	133	498	38	0	
4	0	0	0	0	543	469	133	500	38	0	
5	0	0	0	0	540	483	133	505	38	0	
6	0	0	0	0	522	499	132	509	38	0	
7	0	0	0	0	512	515	132	513	38	0	
8	0	0	0	0	499	528	132	515	38	0	
9	0	0	0	0	481	539	132	515	38	0	
10	0	0	0	0	475	546	132	515	38	0	
11	0	0	0	0	467	544	132	513	38	0	
12	0	0	0	0	481	538	132	511	38	0	
13	0	0	0	0	472	527	132	506	38	0	
14	0	0	0	0	494	515	133	503	38	0	
15	0	0	0	0	500	502	133	500	38	0	
0	0	0	0	0	510	490	133	498	38	0	
1	0	0	0	0	531	482	133	496	38	0	
2	0	0	0	0	531	479	133	507	38	0	
3	0	0	0	0	553	481	133	505	38	0	
4	0	0	0	0	545	491	133	515	38	0	
5	0	0	0	0	536	502	132	523	38	0	
6	0	0	0	0	531	518	132	524	38	0	
7	0	0	0	0	518	535	133	527	38	0	
8	0	0	0	0	508	549	133	530	38	0	
9	0	0	0	0	493	559	132	531	38	0	
10	0	0	0	0	483	565	133	532	38	0	
11	0	0	0	0	462	565	132	530	38	0	
12	0	0	0	0	469	559	132	525	38	0	
13	0	0	0	0	475	547	131	518	38	0	
14	0	0	0	0	482	534	131	513	38	0	
15	0	0	0	0	496	519	132	508	38	0	
0	0	0	0	0	502	505	132	501	38	0	
1	0	0	0	0	526	493	133	499	38	0	
2	0	0	0	0	531	483	133	496	38	0	
3	0	0	0	0	548	479	133	496	38	0	
4	0	0	0	0	544	483	133	498	38	0	
5	0	0	0	0	539	495	133	501	38	0	
6	0	0	0	0	545	511	132	505	38	0	
7	0	0	0	0	525	527	132	511	38	0	
8	0	0	0	0	515	542	132	516	38	0	
9	0	0	0	0	500	555	132	519	38	0	
10	0	0	0	0	483	564	132	522	38	0	
11	0	0	0	0	486	570	132	522	38	0	
12	0	0	0	0	463	568	132	519	38	0	
13	0	0	0	0	477	561	133	516	38	0	
14	0	0	0	0	476	548	133	512	38	0	
15	0	0	0	0	484	533	132	509	38	0	
0	0	0	0	0	500	518	133	505	38	0	
1	0	0	0	0	508	503	132	503	38	0	
2	0	0	0	0	526	494	133	500	38	0	
3	0	0	0	0	524	488	133	499	38	0	
4	0	0	0	0	546	489	132	499	38	0	
5	0	0	0	0	547	495	132	502	38	0	
6	0	0	0	0	546	503	132	505	38	0	
7	0	0	0	0	536	515	132	511	38	0	
8	0	0	0	0	521	527	132	519	38	0	
9	0	0	0	0	511	537	132	533	38	0	
10	0	0	0	0	497	545	132	531	38	0	
11	0	0	0	0	485	550	131	533	38	0	
12	0	0	0	0	481	552	131	531	38	0	
13	0	0	0	0	465	549	132	525	38	0	
14	0	0	0	0	476	543	133	520	38	0	
15	0	0	0	0	475	531	133	515	38	0	
0	0	0	0	0	491	517	133	510	38	0	
1	0	0	0	0	504	502	133	505	38	0	
2	0	0	0	0	515	487	133	502	38	0	
3	0	0	0	0	527	476	133	499	38	0	
4	0	0	0	0	534	470	133	499	38	0	
5	0	0	0	0	545	473	133	498	38	0	
6	0	0	0	0	538	484	133	502	38	0	
7	0	0	0	0	539	498	132	505	38	0	
8	0	0	0	0	531	515	132	510	38	0	
9	0	0	0	0	517	531	132	514	38	0	
10	0	0	0	0	506	546	133	518	38	0	
11	0	0	0	0	489	558	132	524	38	0	
12	0	0	0	0	489	565	132	528	38	0	
13	0	0	0	0	471	565	132	530	38	0	
14	0	0	0	0	471	558	132	528	38	0	
15	0	0	0	0	472	548	132	523	38	0	
0	0	0	0	0	480	531	132	518	38	0	
1	0	0	0	0	494	516	132	513	38	0	
2	0	0	0	0	508	502	133	508	38	0	
3	0	0	0	0	525	491	133	505	38	0	
4	0	0	0	0	529	482	133	503	38	0	
5	0	0	0	0	540	478	133	503	38	0	
6	0	0	0	0	554	481	132	505	38	0	
7	0	0	0	0	543	488	133	508	38	0	
8	0	0	0	0	538	501	132	512	38	0	
9	0	0	0	0	526	517	132	517	38	0	
10	0	0	0	0	514	532	132	520	38	0	
11	0	0	0	0	501	545	132	523	38	0	
12	0	0	0	0	483	552	132	523	38	0	
13	0	0	0	0	486	555	132	524	38	0	
14	0	0	0	0	463	551	131	521	38	0	
15	0	0	0	0	466	542	132	519	38	0	
0	0	0	0	0	473	528	132	520	38	0	
1	0	0	0	0	486	512	132	517	38	0	
2	0	0	0	0	494	496	133	509	38	0	
3	0	0	0	0	512	482	133	503	38	0	
4	0	0	0	0	522	472	133	499	38	0	
5	0	0	0	0	526	467	133	498	38	0	
6	0	0	0	0	547	466	133	498	38	0	
7	0	0	0	0	553	472	133	501	38	0	
8	0	0	0	0	542	483	133	504	38	0	
9	0	0	0	0	536	499	132	508	38	0	
10	0	0	0	0	526	515	132	513	38	0	
11	0	0	0	0	516	529	132	518	38	0	
12	0	0	0	0	499	541	132	521	38	0	
13	0	0	0	0	489	549	132	523	38	0	
14	0	0	0	0	467	551	132	523	38	0	
15	0	0	0	0	462	544	132	520	38	0	
0	0	0	0	0	473	533	132	516	38	0	
1	0	0	0	0	479	517	132	512	38	0	
2	0	0	0	0	489	500	132	508	38	0	
3	0	0	0	0	506	485	133	506	38	0	
4	0	0	0	0	514	471	133	504	38	0	
5	0	0	0	0	531	463	133	501	38	0	
6	0	0	0	0	532	458	132	499	38	0	
7	0	0	0	0	557	461	132	499	38	0	
8	0	0	0	0	537	470	133	501	38	0	
9	0	0	0	0	531	483	133	506	38	0	
10	0	0	0	0	527	499	133	512	38	0	
11	0	0	0	0	521	514	133	522	38	0	
12	0	0	0	0	503	528	132	524	38	0	
13	0	0	0	0	491	539	132	529	38	0	
14	0	0	0	0	486	546	131	527	38	0	
15	0	0	0	0	468	546	131	526	38	0	
0	0	0	0	0	473	538	131	522	38	0	
1	0	0	0	0	485	526	132	516	38	0	
2	0	0	0	0	484	510	132	513	38	0	
3	0	0	0	0	488	492	132	508	38	0	
4	0	0	0	0	508	477	132	505	38	0	
5	0	0	0	0	513	465	132	502	38	0	
6	0	0	0	0	529	457	133	502	38	0	
7	0	0	0	0	536	455	133	502	38	0	
8	0	0	0	0	551	460	133	504	38	0	
9	0	0	0	0	537	470	133	507	38	0	
10	0	0	0	0	536	484	133	511	38	0	
11	0	0	0	0	524	499	133	514	38	0	
12	0	0	0	0	515	514	132	519	38	0	
13	0	0	0	0	506	528	133	524	38	0	
14	0	0	0	0	499	537	132	528	38	0	
15	0	0	0	0	483	541	133	530	38	0	
0	0	0	0	0	467	538	133	530	38	0	
1	0	0	0	0	467	531	132	527	38	0	
2	0	0	0	0	471	519	132	522	38	0	
3	0	0	0	0	483	503	132	516	38	0	
4	0	0	0	0	498	488	132	512	38	0	
5	0	0	0	0	506	475	132	506	38	0	
6	0	0	0	0	524	465	132	504	38	0	
7	0	0	0	0	529	461	132	503	38	0	
8	0	0	0	0	550	461	132	503	38	0	
9	0	0	0	0	547	469	132	504	38	0	
10	0	0	0	0	536	480	132	507	38	0	
11	0	0	0	0	539	493	132	513	38	0	
12	0	0	0	0	526	506	132	519	38	0	
13	0	0	0	0	518	520	132	522	38	0	
14	0	0	0	0	492	531	132	525	38	0	
15	0	0	0	0	493	538	132	525	38	0	
0	0	0	0	0	473	541	133	525	38	0	
1	0	0	0	0	468	537	133	524	38	0	
2	0	0	0	0	474	527	132	521	38	0	
3	0	0	0	0	476	513	132	518	38	0	
4	0	0	0	0	491	499	132	513	38	0	
5	0	0	0	0	503	483	133	509	38	0	
6	0	0	0	0	511	467	133	505	38	0	
7	0	0	0	0	523	456	133	504	38	0	
8	0	0	0	0	532	449	133	500	38	0	
9	0	0	0	0	555	448	132	498	38	0	
10	0	0	0	0	545	452	132	500	38	0	
11	0	0	0	0	535	463	132	503	38	0	
12	0	0	0	0	528	478	132	507	38	0	
13	0	0	0	0	524	495	132	512	38	0	
14	0	0	0	0	508	510	131	516	38	0	
15	0	0	0	0	492	523	131	520	38	0	
0	0	0	0	0	485	531	131	521	38	0	
1	0	0	0	0	471	534	131	520	38	0	
2	0	0	0	0	478	527	132	517	38	0	
3	0	0	0	0	472	516	132	514	38	0	
4	0	0	0	0	481	500	133	509	38	0	
5	0	0	0	0	491	485	133	505	38	0	
6	0	0	0	0	506	471	133	501	38	0	
7	0	0	0	0	524	459	133	497	38	0	
8	0	0	0	0	531	451	133	494	38	0	
9	0	0	0	0	542	447	132	494	38	0	
10	0	0	0	0	549	452	132	494	38	0	
11	0	0	0	0	535	461	132	495	38	0	
12	0	0	0	0	534	472	132	500	38	0	
13	0	0	0	0	527	488	133	509	38	0	
14	0	0	0	0	510	504	133	521	38	0	
15	0	0	0	0	497	518	133	530	38	0	
0	0	0	0	0	494	527	133	533	38	0	
1	0	0	0	0	487	533	133	532	38	0	
2	0	0	0	0	464	530	133	529	38	0	
3	0	0	0	0	467	523	133	525	38	0	
4	0	0	0	0	479	511	133	517	38	0	
5	0	0	0	0	492	497	133	513	38	0	
6	0	0	0	0	503	482	132	507	38	0	
7	0	0	0	0	512	470	132	500	38	0	
8	0	0	0	0	521	461	132	499	38	0	
9	0	0	0	0	530	456	132	497	38	0	
10	0	0	0	0	551	457	132	497	38	0	
11	0	0	0	0	544	465	132	500	38	0	
12	0	0	0	0	538	477	132	502	38	0	
13	0	0	0	0	532	494	133	511	38	0	
14	0	0	0	0	518	510	133	532	38	0	
15	0	0	0	0	509	526	132	550	38	0	
0	0	0	0	0	504	538	133	559	38	0	
1	0	0	0	0	487	543	133	559	38	0	
2	0	0	0	0	475	545	132	554	38	0	
3	0	0	0	0	466	539	132	547	38	0	
4	0	0	0	0	476	528	133	539	38	0	
5	0	0	0	0	476	515	132	530	38	0	
6	0	0	0	0	486	498	132	519	38	0	
7	0	0	0	0	507	483	132	515	38	0	
8	0	0	0	0	512	470	132	508	38	0	
9	0	0	0	0	524	460	132	502	38	0	
10	0	0	0	0	534	455	132	499	38	0	
11	0	0	0	0	553	459	133	498	38	0	
12	0	0	0	0	540	469	133	499	38	0	
13	0	0	0	0	543	484	133	504	38	0	
14	0	0	0	0	531	503	133	512	38	0	
15	0	0	0	0	524	521	132	519	38	0	
0	0	0	0	0	510	536	132	525	38	0	
1	0	0	0	0	489	549	132	528	38	0	
2	0	0	0	0	487	555	132	527	38	0	
3	0	0	0	0	467	555	132	525	38	0	
4	0	0	0	0	470	548	133	520	38	0	
5	0	0	0	0	477	538	133	516	38	0	
6	0	0	0	0	473	525	133	511	38	0	
7	0	0	0	0	491	511	133	505	38	0	
8	0	0	0	0	505	497	132	501	38	0	
9	0	0	0	0	524	484	132	497	38	0	
10	0	0	0	0	532	476	132	495	38	0	
11	0	0	0	0	538	472	132	493	38	0	
12	0	0	0	0	552	478	132	494	38	0	
13	0	0	0	0	537	489	132	497	38	0	
14	0	0	0	0	537	502	132	503	38	0	
15	0	0	0	0	526	519	132	509	38	0	
0	0	0	0	0	519	535	132	517	38	0	
1	0	0	0	0	501	550	132	523	38	0	
2	0	0	0	0	491	560	133	526	38	0	
3	0	0	0	0	479	566	133	526	38	0	
4	0	0	0	0	462	562	133	522	38	0	
5	0	0	0	0	476	554	132	519	38	0	
6	0	0	0	0	474	542	131	514	38	0	
7	0	0	0	0	487	529	132	511	38	0	
8	0	0	0	0	506	516	132	505	38	0	
9	0	0	0	0	512	502	132	498	38	0	
10	0	0	0	0	528	490	133	497	38	0	
11	0	0	0	0	530	481	132	496	38	0	
12	0	0	0	0	552	478	132	496	38	0	
13	0	0	0	0	546	481	132	497	38	0	
14	0	0	0	0	535	489	132	500	38	0	
15	0	0	0	0	530	505	132	505	38	0	
0	0	0	0	0	515	520	132	510	38	0	
1	0	0	0	0	511	537	132	516	38	0	
2	0	0	0	0	500	551	132	518	38	0	
3	0	0	0	0	492	559	133	519	38	0	
4	0	0	0	0	475	563	133	518	38	0	
5	0	0	0	0	464	560	133	515	38	0	
6	0	0	0	0	471	551	132	511	38	0	
7	0	0	0	0	472	537	133	507	38	0	
8	0	0	0	0	499	521	133	505	38	0	
9	0	0	0	0	508	507	133	499	38	0	
10	0	0	0	0	519	494	133	496	38	0	
11	0	0	0	0	530	483	133	496	38	0	
12	0	0	0	0	524	478	133	496	38	0	
13	0	0	0	0	551	480	132	496	38	0	
14	0	0	0	0	543	487	132	498	38	0	
15	0	0	0	0	540	500	132	503	38	0	
0	0	0	0	0	534	516	132	506	38	0	
1	0	0	0	0	516	532	132	510	38	0	
2	0	0	0	0	510	547	132	514	38	0	
3	0	0	0	0	488	560	133	516	38	0	
4	0	0	0	0	487	568	133	519	38	0	
5	0	0	0	0	470	570	133	520	38	0	
6	0	0	0	0	464	564	132	519	38	0	
7	0	0	0	0	478	555	131	515	38	0	
8	0	0	0	0	476	541	132	511	38	0	
9	0	0	0	0	495	524	132	507	38	0	
10	0	0	0	0	515	506	133	503	38	0	
11	0	0	0	0	526	493	133	500	38	0	
12	0	0	0	0	528	484	133	499	38	0	
13	0	0	0	0	539	480	133	496	38	0	
14	0	0	0	0	551	483	133	496	38	0	
15	0	0	0	0	536	492	133	498	38	0	
0	0	0	0	0	541	505	133	500	38	0	
1	0	0	0	0	527	521	133	504	38	0	
2	0	0	0	0	516	536	133	510	38	0	
3	0	0	0	0	499	548	132	515	38	0	
4	0	0	0	0	488	557	132	517	38	0	
5	0	0	0	0	484	562	131	518	38	0	
6	0	0	0	0	468	560	132	517	38	0	
7	0	0	0	0	468	553	132	514	38	0	
8	0	0	0	0	471	540	133	512	38	0	
9	0	0	0	0	488	525	133	509	38	0	
10	0	0	0	0	502	508	133	512	38	0	
11	0	0	0	0	507	494	133	503	38	0	
12	0	0	0	0	518	484	133	502	38	0	
13	0	0	0	0	530	478	133	501	38	0	
14	0	0	0	0	551	477	132	500	38	0	
15	0	0	0	0	547	482	132	502	38	0	
0	0	0	0	0	538	492	132	504	38	0	
1	0	0	0	0	534	509	132	519	38	0	
2	0	0	0	0	531	526	132	531	38	0	
3	0	0	0	0	506	543	132	538	38	0	
4	0	0	0	0	493	555	132	540	38	0	
5	0	0	0	0	492	562	132	536	38	0	
6	0	0	0	0	480	563	132	533	38	0	
7	0	0	0	0	472	555	132	528	38	0	
8	0	0	0	0	475	543	133	522	38	0	
9	0	0	0	0	474	527	133	515	38	0	
10	0	0	0	0	488	508	133	510	38	0	
11	0	0	0	0	507	492	133	503	38	0	
12	0	0	0	0	521	476	133	498	38	0	
13	0	0	0	0	529	466	133	496	38	0	
14	0	0	0	0	532	460	133	496	38	0	
15	0	0	0	0	547	464	133	498	38	0	
0	0	0	0	0	533	476	133	503	38	0	
1	0	0	0	0	545	489	133	508	38	0	
2	0	0	0	0	531	504	132	512	38	0	
3	0	0	0	0	518	521	132	518	38	0	
4	0	0	0	0	505	536	132	521	38	0	
5	0	0	0	0	488	547	132	523	38	0	
6	0	0	0	0	484	554	132	523	38	0	
7	0	0	0	0	469	555	133	521	38	0	
8	0	0	0	0	470	549	133	518	38	0	
9	0	0	0	0	472	538	133	512	38	0	
10	0	0	0	0	480	523	133	509	38	0	
11	0	0	0	0	494	506	133	504	38	0	
12	0	0	0	0	508	491	133	501	38	0	
13	0	0	0	0	518	478	133	500	38	0	
14	0	0	0	0	527	471	133	499	38	0	
15	0	0	0	0	542	467	133	497	38	0	
0	0	0	0	0	550	473	133	498	38	0	
1	0	0	0	0	543	485	133	500	38	0	
2	0	0	0	0	539	501	133	503	38	0	
3	0	0	0	0	523	519	132	506	38	0	
4	0	0	0	0	512	534	133	511	38	0	
5	0	0	0	0	507	547	132	514	38	0	
6	0	0	0	0	492	554	131	518	38	0	
7	0	0	0	0	487	559	131	519	38	0	
8	0	0	0	0	464	555	131	519	38	0	
9	0	0	0	0	473	546	132	518	38	0	
10	0	0	0	0	473	534	132	516	38	0	
11	0	0	0	0	489	519	132	510	38	0	
12	0	0	0	0	498	506	133	507	38	0	
13	0	0	0	0	507	492	133	504	38	0	
14	0	0	0	0	517	483	133	504	38	0	
15	0	0	0	0	523	478	133	503	38	0	
0	0	0	0	0	540	478	133	502	38	0	
1	0	0	0	0	554	488	133	504	38	0	
2	0	0	0	0	538	500	133	506	38	0	
3	0	0	0	0	534	515	133	510	38	0	
4	0	0	0	0	521	528	133	514	38	0	
5	0	0	0	0	514	543	132	519	38	0	
6	0	0	0	0	499	555	131	520	38	0	
7	0	0	0	0	488	561	131	521	38	0	
8	0	0	0	0	472	565	132	522	38	0	
9	0	0	0	0	471	558	132	521	38	0	
10	0	0	0	0	478	546	133	519	38	0	
11	0	0	0	0	476	532	133	515	38	0	
12	0	0	0	0	492	516	133	512	38	0	
13	0	0	0	0	509	500	133	508	38	0	
14	0	0	0	0	516	486	133	504	38	0	
15	0	0	0	0	529	477	133	501	38	0	
0	0	0	0	0	529	472	133	499	38	0	
1	0	0	0	0	553	475	132	499	38	0	
2	0	0	0	0	541	483	133	501	38	0	
3	0	0	0	0	536	496	132	506	38	0	
4	0	0	0	0	529	511	133	513	38	0	
5	0	0	0	0	522	527	133	517	38	0	
6	0	0	0	0	508	539	133	520	38	0	
7	0	0	0	0	487	549	133	523	38	0	
8	0	0	0	0	483	555	132	523	38	0	
9	0	0	0	0	472	555	132	520	38	0	
10	0	0	0	0	469	548	131	519	38	0	
11	0	0	0	0	476	537	132	515	38	0	
12	0	0	0	0	478	522	132	511	38	0	
13	0	0	0	0	491	505	132	507	38	0	
14	0	0	0	0	510	487	132	504	38	0	
15	0	0	0	0	522	473	132	500	38	0	
0	0	0	0	0	527	465	133	499	38	0	
1	0	0	0	0	540	465	133	498	38	0	
2	0	0	0	0	550	473	133	499	38	0	
3	0	0	0	0	541	483	133	502	38	0	
4	0	0	0	0	544	498	133	505	38	0	
5	0	0	0	0	520	516	132	510	38	0	
6	0	0	0	0	512	534	132	516	38	0	
7	0	0	0	0	502	550	132	519	38	0	
8	0	0	0	0	491	560	132	522	38	0	
9	0	0	0	0	486	564	131	522	38	0	
10	0	0	0	0	464	560	131	519	38	0	
11	0	0	0	0	472	550	131	517	38	0	
12	0	0	0	0	476	536	132	514	38	0	
13	0	0	0	0	486	518	132	509	38	0	
14	0	0	0	0	502	501	133	507	38	0	
15	0	0	0	0	509	486	133	504	38	0	
0	0	0	0	0	518	476	133	502	38	0	
1	0	0	0	0	533	470	133	500	38	0	
2	0	0	0	0	554	468	133	512	38	0	
3	0	0	0	0	542	477	133	502	38	0	
4	0	0	0	0	539	492	133	504	38	0	
5	0	0	0	0	533	512	132	508	38	0	
6	0	0	0	0	524	530	133	515	38	0	
7	0	0	0	0	507	546	133	521	38	0	
8	0	0	0	0	496	556	133	525	38	0	
9	0	0	0	0	480	561	133	525	38	0	
10	0	0	0	0	474	560	133	524	38	0	
11	0	0	0	0	469	550	133	521	38	0	
12	0	0	0	0	481	537	133	518	38	0	
13	0	0	0	0	478	523	133	512	38	0	
14	0	0	0	0	501	508	133	507	38	0	
15	0	0	0	0	510	496	133	504	38	0	
0	0	0	0	0	517	486	133	502	38	0	
1	0	0	0	0	518	481	132	499	38	0	
2	0	0	0	0	534	479	132	499	38	0	
3	0	0	0	0	550	484	132	499	38	0	
4	0	0	0	0	540	494	133	503	38	0	
5	0	0	0	0	544	507	133	505	38	0	
6	0	0	0	0	534	522	133	511	38	0	
7	0	0	0	0	516	539	133	519	38	0	
8	0	0	0	0	504	552	133	526	38	0	
9	0	0	0	0	492	562	133	531	38	0	
10	0	0	0	0	486	568	133	531	38	0	
11	0	0	0	0	465	568	133	529	38	0	
12	0	0	0	0	477	562	133	525	38	0	
13	0	0	0	0	482	549	133	519	38	0	
14	0	0	0	0	484	531	133	516	38	0	
15	0	0	0	0	494	512	133	511	38	0	
0	0	0	0	0	507	497	133	506	38	0	
1	0	0	0	0	517	486	133	502	38	0	
2	0	0	0	0	525	479	132	500	38	0	
3	0	0	0	0	534	476	132	499	38	0	
4	0	0	0	0	558	482	133	500	38	0	
5	0	0	0	0	540	492	133	502	38	0	
6	0	0	0	0	538	506	133	506	38	0	
7	0	0	0	0	531	521	133	510	38	0	
8	0	0	0	0	510	536	133	516	38	0	
9	0	0	0	0	504	549	133	521	38	0	
10	0	0	0	0	487	559	132	527	38	0	
11	0	0	0	0	492	563	131	526	38	0	
12	0	0	0	0	471	560	132	522	38	0	
13	0	0	0	0	477	552	132	519	38	0	
14	0	0	0	0	468	539	133	515	38	0	
15	0	0	0	0	485	523	133	510	38	0	
0	0	0	0	0	500	507	133	506	38	0	
1	0	0	0	0	509	492	133	501	38	0	
2	0	0	0	0	520	481	133	498	38	0	
3	0	0	0	0	526	475	133	496	38	0	
4	0	0	0	0	552	475	133	496	38	0	
5	0	0	0	0	543	483	132	498	38	0	
6	0	0	0	0	540	496	132	502	38	0	
7	0	0	0	0	535	512	132	507	38	0	
8	0	0	0	0	522	528	132	513	38	0	
9	0	0	0	0	502	543	132	517	38	0	
10	0	0	0	0	502	554	132	519	38	0	
11	0	0	0	0	490	563	132	519	38	0	
12	0	0	0	0	473	566	132	521	38	0	
13	0	0	0	0	472	562	133	520	38	0	
14	0	0	0	0	472	552	133	516	38	0	
15	0	0	0	0	475	539	133	511	38	0	
0	0	0	0	0	491	522	133	508	38	0	
1	0	0	0	0	508	505	133	506	38	0	
2	0	0	0	0	522	492	133	504	38	0	
3	0	0	0	0	523	483	133	502	38	0	
4	0	0	0	0	526	479	133	500	38	0	
5	0	0	0	0	554	482	132	500	38	0	
6	0	0	0	0	538	491	132	503	38	0	
7	0	0	0	0	542	502	132	506	38	0	
8	0	0	0	0	533	516	132	513	38	0	
9	0	0	0	0	515	532	132	519	38	0	
10	0	0	0	0	506	544	132	525	38	0	
11	0	0	0	0	494	554	132	528	38	0	
12	0	0	0	0	491	560	132	527	38	0	
13	0	0	0	0	470	560	132	524	38	0	
14	0	0	0	0	463	553	133	521	38	0	
15	0	0	0	0	471	542	133	519	38	0	
0	0	0	0	0	487	527	133	516	38	0	
1	0	0	0	0	491	510	133	512	38	0	
2	0	0	0	0	503	495	133	507	38	0	
3	0	0	0	0	523	483	134	504	38	0	
4	0	0	0	0	525	473	133	503	38	0	
5	0	0	0	0	539	469	132	502	38	0	
6	0	0	0	0	543	473	132	503	38	0	
7	0	0	0	0	544	483	132	504	38	0	
8	0	0	0	0	545	496	132	509	38	0	
9	0	0	0	0	528	511	132	512	38	0	
10	0	0	0	0	516	526	132	523	38	0	
11	0	0	0	0	498	539	132	533	38	0	
12	0	0	0	0	492	550	132	540	38	0	
13	0	0	0	0	483	558	132	536	38	0	
14	0	0	0	0	463	558	132	533	38	0	
15	0	0	0	0	476	551	132	529	38	0	
0	0	0	0	0	474	539	132	523	38	0	
1	0	0	0	0	487	524	133	517	38	0	
2	0	0	0	0	498	510	133	513	38	0	
3	0	0	0	0	505	497	133	509	38	0	
4	0	0	0	0	527	488	133	506	38	0	
5	0	0	0	0	527	482	133	503	38	0	
6	0	0	0	0	550	482	133	501	38	0	
7	0	0	0	0	540	491	133	499	38	0	
8	0	0	0	0	540	501	133	501	38	0	
9	0	0	0	0	534	515	133	515	38	0	
10	0	0	0	0	526	532	133	526	38	0	
11	0	0	0	0	507	549	132	532	38	0	
12	0	0	0	0	497	562	132	535	38	0	
13	0	0	0	0	492	569	132	533	38	0	
14	0	0	0	0	478	574	131	531	38	0	
15	0	0	0	0	469	572	132	526	38	0	
0	0	0	0	0	481	563	132	521	38	0	
1	0	0	0	0	478	549	132	517	38	0	
2	0	0	0	0	498	534	132	510	38	0	
3	0	0	0	0	501	519	132	507	38	0	
4	0	0	0	0	518	506	132	503	38	0	
5	0	0	0	0	517	498	132	500	38	0	
6	0	0	0	0	534	495	132	498	38	0	
7	0	0	0	0	547	499	132	497	38	0	
8	0	0	0	0	543	508	133	499	38	0	
9	0	0	0	0	545	520	133	502	38	0	
10	0	0	0	0	533	535	133	504	38	0	
11	0	0	0	0	512	551	133	509	38	0	
12	0	0	0	0	505	568	133	513	38	0	
13	0	0	0	0	492	581	133	516	38	0	
14	0	0	0	0	490	591	133	515	38	0	
15	0	0	0	0	464	595	133	515	38	0	
0	0	0	0	0	478	590	133	512	38	0	
1	0	0	0	0	481	581	133	509	38	0	
2	0	0	0	0	478	569	132	505	38	0	
3	0	0	0	0	490	554	133	502	38	0	
4	0	0	0	0	510	537	132	499	38	0	
5	0	0	0	0	524	521	132	496	38	0	
6	0	0	0	0	522	510	132	495	38	0	
7	0	0	0	0	542	504	133	495	38	0	
8	0	0	0	0	552	504	133	497	38	0	
9	0	0	0	0	538	507	133	499	38	0	
10	0	0	0	0	542	516	133	505	38	0	
11	0	0	0	0	519	527	133	510	38	0	
12	0	0	0	0	518	539	133	514	38	0	
13	0	0	0	0	494	549	133	519	38	0	
14	0	0	0	0	483	555	133	523	38	0	
15	0	0	0	0	487	556	133	526	38	0	
0	0	0	0	0	471	549	133	526	38	0	
1	0	0	0	0	472	536	133	525	38	0	
2	0	0	0	0	479	519	133	520	38	0	
3	0	0	0	0	494	497	133	515	38	0	
4	0	0	0	0	496	477	133	509	38	0	
5	0	0	0	0	509	460	133	508	38	0	
6	0	0	0	0	520	447	133	500	38	0	
7	0	0	0	0	521	438	133	496	38	0	
8	0	0	0	0	545	435	133	497	38	0	
9	0	0	0	0	546	439	133	497	38	0	
10	0	0	0	0	531	445	133	503	38	0	
11	0	0	0	0	538	456	133	510	38	0	
12	0	0	0	0	518	469	133	517	38	0	
13	0	0	0	0	511	482	133	521	38	0	
14	0	0	0	0	506	493	133	522	38	0	
15	0	0	0	0	491	499	133	523	38	0	
0	0	0	0	0	474	505	133	523	38	0	
1	0	0	0	0	468	502	132	520	38	0	
2	0	0	0	0	474	497	132	517	38	0	
3	0	0	0	0	475	489	132	513	38	0	
4	0	0	0	0	495	479	132	510	38	0	
5	0	0	0	0	504	467	133	507	38	0	
6	0	0	0	0	517	458	133	504	38	0	
7	0	0	0	0	526	453	133	499	38	0	
8	0	0	0	0	528	452	133	497	38	0	
9	0	0	0	0	543	458	133	498	38	0	
10	0	0	0	0	543	470	133	502	38	0	
11	0	0	0	0	546	485	133	506	38	0	
12	0	0	0	0	526	504	133	512	38	0	
13	0	0	0	0	514	524	133	517	38	0	
14	0	0	0	0	507	540	132	521	38	0	
15	0	0	0	0	495	551	132	524	38	0	
0	0	0	0	0	492	557	132	526	38	0	
1	0	0	0	0	461	559	132	525	38	0	
2	0	0	0	0	466	553	133	523	38	0	
3	0	0	0	0	481	542	133	519	38	0	
4	0	0	0	0	478	527	133	515	38	0	
5	0	0	0	0	494	513	134	510	38	0	
6	0	0	0	0	508	498	133	518	38	0	
7	0	0	0	0	517	486	133	504	38	0	
8	0	0	0	0	528	479	133	500	38	0	
9	0	0	0	0	541	478	134	499	38	0	
10	0	0	0	0	551	485	134	499	38	0	
11	0	0	0	0	539	495	134	502	38	0	
12	0	0	0	0	535	510	133	506	38	0	
13	0	0	0	0	524	526	132	513	38	0	
14	0	0	0	0	514	540	132	519	38	0	
15	0	0	0	0	502	553	132	522	38	0	
0	0	0	0	0	493	563	132	525	38	0	
1	0	0	0	0	490	567	132	524	38	0	
2	0	0	0	0	469	565	133	523	38	0	
3	0	0	0	0	469	556	133	521	38	0	
4	0	0	0	0	472	542	133	517	38	0	
5	0	0	0	0	478	526	133	513	38	0	
6	0	0	0	0	506	512	134	508	38	0	
7	0	0	0	0	510	499	134	503	38	0	
8	0	0	0	0	528	489	134	500	38	0	
9	0	0	0	0	524	483	134	499	38	0	
10	0	0	0	0	551	483	133	495	38	0	
11	0	0	0	0	543	490	132	494	38	0	
12	0	0	0	0	550	500	132	497	38	0	
13	0	0	0	0	539	515	132	506	38	0	
14	0	0	0	0	513	531	133	516	38	0	
15	0	0	0	0	508	547	133	523	38	0	
0	0	0	0	0	497	559	133	526	38	0	
1	0	0	0	0	494	569	133	527	38	0	
2	0	0	0	0	478	574	133	526	38	0	
3	0	0	0	0	469	571	133	523	38	0	
4	0	0	0	0	476	563	133	520	38	0	
5	0	0	0	0	480	548	133	514	38	0	
6	0	0	0	0	486	531	133	516	38	0	
7	0	0	0	0	508	515	134	509	38	0	
8	0	0	0	0	512	502	134	502	38	0	
9	0	0	0	0	525	491	133	496	38	0	
10	0	0	0	0	523	484	134	495	38	0	
11	0	0	0	0	554	485	134	496	38	0	
12	0	0	0	0	545	496	134	499	38	0	
13	0	0	0	0	539	512	133	505	38	0	
14	0	0	0	0	531	530	132	513	38	0	
15	0	0	0	0	516	547	132	518	38	0	
0	0	0	0	0	504	562	132	533	38	0	
1	0	0	0	0	492	573	133	546	38	0	
2	0	0	0	0	487	580	133	548	38	0	
3	0	0	0	0	466	580	133	547	38	0	
4	0	0	0	0	476	572	133	541	38	0	
5	0	0	0	0	478	559	133	534	38	0	
6	0	0	0	0	483	543	132	527	38	0	
7	0	0	0	0	494	527	132	520	38	0	
8	0	0	0	0	506	512	132	514	38	0	
9	0	0	0	0	525	499	133	509	38	0	
10	0	0	0	0	521	492	132	505	38	0	
11	0	0	0	0	540	489	133	503	38	0	
12	0	0	0	0	546	494	133	503	38	0	
13	0	0	0	0	536	504	133	506	38	0	
14	0	0	0	0	542	519	133	509	38	0	
15	0	0	0	0	534	535	133	513	38	0	
0	0	0	0	0	518	551	132	517	38	0	
1	0	0	0	0	499	563	132	520	38	0	
2	0	0	0	0	489	572	132	521	38	0	
3	0	0	0	0	484	575	132	522	38	0	
4	0	0	0	0	466	569	132	520	38	0	
5	0	0	0	0	473	558	132	516	38	0	
6	0	0	0	0	478	541	132	510	38	0	
7	0	0	0	0	480	522	132	507	38	0	
8	0	0	0	0	496	504	133	502	38	0	
9	0	0	0	0	505	488	133	499	38	0	
10	0	0	0	0	524	478	133	497	38	0	
11	0	0	0	0	531	475	133	495	38	0	
12	0	0	0	0	551	477	133	493	38	0	
13	0	0	0	0	545	487	133	496	38	0	
14	0	0	0	0	542	499	133	500	38	0	
15	0	0	0	0	532	516	133	511	38	0	
0	0	0	0	0	514	534	133	521	38	0	
1	0	0	0	0	514	550	133	528	38	0	
2	0	0	0	0	501	561	133	531	38	0	
3	0	0	0	0	491	568	133	532	38	0	
4	0	0	0	0	473	572	133	531	38	0	
5	0	0	0	0	463	566	133	527	38	0	
6	0	0	0	0	479	555	133	523	38	0	
7	0	0	0	0	481	540	133	517	38	0	
8	0	0	0	0	496	524	132	512	38	0	
9	0	0	0	0	505	510	132	507	38	0	
10	0	0	0	0	513	498	133	501	38	0	
11	0	0	0	0	527	489	133	498	38	0	
12	0	0	0	0	534	485	134	495	38	0	
13	0	0	0	0	559	487	134	494	38	0	
14	0	0	0	0	538	496	134	496	38	0	
15	0	0	0	0	537	507	134	499	38	0	
0	0	0	0	0	531	521	133	503	38	0	
1	0	0	0	0	515	536	132	508	38	0	
2	0	0	0	0	510	551	133	515	38	0	
3	0	0	0	0	488	562	133	519	38	0	
4	0	0	0	0	490	567	132	521	38	0	
5	0	0	0	0	473	568	132	520	38	0	
6	0	0	0	0	474	560	132	519	38	0	
7	0	0	0	0	476	548	133	516	38	0	
8	0	0	0	0	480	533	133	512	38	0	
9	0	0	0	0	485	516	133	508	38	0	
10	0	0	0	0	504	502	134	504	38	0	
11	0	0	0	0	520	490	134	500	38	0	
12	0	0	0	0	536	482	134	500	38	0	
13	0	0	0	0	551	478	133	498	38	0	
14	0	0	0	0	561	483	133	499	38	0	
15	0	0	0	0	537	490	132	502	38	0	
0	0	0	0	0	540	501	133	507	38	0	
1	0	0	0	0	527	513	132	515	38	0	
2	0	0	0	0	514	525	132	534	38	0	
3	0	0	0	0	501	536	132	538	38	0	
4	0	0	0	0	484	545	132	540	38	0	
5	0	0	0	0	488	551	132	540	38	0	
6	0	0	0	0	463	550	132	537	38	0	
7	0	0	0	0	478	541	132	530	38	0	
8	0	0	0	0	473	528	133	523	38	0	
9	0	0	0	0	478	512	133	516	38	0	
10	0	0	0	0	506	496	133	510	38	0	
11	0	0	0	0	514	480	134	505	38	0	
12	0	0	0	0	523	468	134	502	38	0	
13	0	0	0	0	526	460	134	501	38	0	
14	0	0	0	0	552	458	134	500	38	0	
15	0	0	0	0	543	466	133	502	38	0	
0	0	0	0	0	539	479	133	505	38	0	
1	0	0	0	0	536	496	134	510	38	0	
2	0	0	0	0	517	512	133	517	38	0	
3	0	0	0	0	515	527	133	524	38	0	
4	0	0	0	0	496	541	133	526	38	0	
5	0	0	0	0	487	548	133	526	38	0	
6	0	0	0	0	484	551	132	525	38	0	
7	0	0	0	0	474	545	132	521	38	0	
8	0	0	0	0	479	537	132	516	38	0	
9	0	0	0	0	484	524	132	512	38	0	
10	0	0	0	0	492	508	133	508	38	0	
11	0	0	0	0	504	492	133	505	38	0	
12	0	0	0	0	509	479	134	502	38	0	
13	0	0	0	0	527	471	134	501	38	0	
14	0	0	0	0	529	466	134	499	38	0	
15	0	0	0	0	548	469	134	499	38	0	
0	0	0	0	0	548	476	134	502	38	0	
1	0	0	0	0	539	487	134	505	38	0	
2	0	0	0	0	526	502	134	512	38	0	
3	0	0	0	0	521	518	134	517	38	0	
4	0	0	0	0	503	533	134	521	38	0	
5	0	0	0	0	497	543	133	523	38	0	
6	0	0	0	0	487	548	133	524	38	0	
7	0	0	0	0	470	548	132	522	38	0	
8	0	0	0	0	475	541	132	518	38	0	
9	0	0	0	0	473	531	132	513	38	0	
10	0	0	0	0	483	515	133	509	38	0	
11	0	0	0	0	495	499	133	504	38	0	
12	0	0	0	0	505	484	133	508	38	0	
13	0	0	0	0	515	473	133	498	38	0	
14	0	0	0	0	526	465	133	494	38	0	
15	0	0	0	0	539	462	133	495	38	0	
0	0	0	0	0	552	466	134	496	38	0	
1	0	0	0	0	540	476	133	498	38	0	
2	0	0	0	0	539	491	133	503	38	0	
3	0	0	0	0	526	507	133	509	38	0	
4	0	0	0	0	511	524	133	513	38	0	
5	0	0	0	0	492	538	133	517	38	0	
6	0	0	0	0	493	549	133	517	38	0	
7	0	0	0	0	487	556	133	517	38	0	
8	0	0	0	0	473	555	133	515	38	0	
9	0	0	0	0	475	546	133	511	38	0	
10	0	0	0	0	471	531	133	507	38	0	
11	0	0	0	0	487	514	134	504	38	0	
12	0	0	0	0	497	498	133	501	38	0	
13	0	0	0	0	515	482	133	499	38	0	
14	0	0	0	0	520	468	133	499	38	0	
15	0	0	0	0	535	457	134	498	38	0	
0	0	0	0	0	552	455	134	498	38	0	
1	0	0	0	0	548	462	134	502	38	0	
2	0	0	0	0	538	475	134	502	38	0	
3	0	0	0	0	531	494	134	509	38	0	
4	0	0	0	0	519	512	134	515	38	0	
5	0	0	0	0	506	527	132	520	38	0	
6	0	0	0	0	497	540	132	522	38	0	
7	0	0	0	0	485	548	132	523	38	0	
8	0	0	0	0	480	551	132	522	38	0	
9	0	0	0	0	466	544	132	519	38	0	
10	0	0	0	0	482	533	133	515	38	0	
11	0	0	0	0	479	518	133	512	38	0	
12	0	0	0	0	491	502	133	508	38	0	
13	0	0	0	0	506	486	133	505	38	0	
14	0	0	0	0	516	473	134	502	38	0	
15	0	0	0	0	526	464	134	498	38	0	
0	0	0	0	0	524	457	134	497	38	0	
1	0	0	0	0	555	459	134	498	38	0	
2	0	0	0	0	537	468	134	500	38	0	
3	0	0	0	0	541	480	133	504	38	0	
4	0	0	0	0	527	495	133	507	38	0	
5	0	0	0	0	520	510	134	512	38	0	
6	0	0	0	0	511	524	133	515	38	0	
7	0	0	0	0	490	534	133	519	38	0	
8	0	0	0	0	495	539	133	523	38	0	
9	0	0	0	0	469	539	134	521	38	0	
10	0	0	0	0	472	532	133	518	38	0	
11	0	0	0	0	472	519	132	515	38	0	
12	0	0	0	0	483	503	133	518	38	0	
13	0	0	0	0	490	487	133	508	38	0	
14	0	0	0	0	501	473	134	505	38	0	
15	0	0	0	0	523	462	134	504	38	0	
0	0	0	0	0	529	453	134	502	38	0	
1	0	0	0	0	542	448	134	502	38	0	
2	0	0	0	0	549	452	134	502	38	0	
3	0	0	0	0	535	462	133	504	38	0	
4	0	0	0	0	537	476	133	508	38	0	
5	0	0	0	0	525	491	133	512	38	0	
6	0	0	0	0	512	504	133	516	38	0	
7	0	0	0	0	493	516	133	518	38	0	
8	0	0	0	0	498	525	133	520	38	0	
9	0	0	0	0	489	530	134	519	38	0	
10	0	0	0	0	471	528	133	519	38	0	
11	0	0	0	0	471	521	134	515	38	0	
12	0	0	0	0	468	508	133	510	38	0	
13	0	0	0	0	487	492	133	506	38	0	
14	0	0	0	0	496	477	133	502	38	0	
15	0	0	0	0	506	462	133	500	38	0	
0	0	0	0	0	523	450	133	497	38	0	
1	0	0	0	0	526	444	133	495	38	0	
2	0	0	0	0	557	444	134	496	38	0	
3	0	0	0	0	547	451	134	498	38	0	
4	0	0	0	0	545	464	134	503	38	0	
5	0	0	0	0	536	480	134	508	38	0	
6	0	0	0	0	527	495	134	517	38	0	
7	0	0	0	0	509	508	133	525	38	0	
8	0	0	0	0	500	520	132	529	38	0	
9	0	0	0	0	487	527	132	532	38	0	
10	0	0	0	0	480	531	132	528	38	0	
11	0	0	0	0	467	526	132	525	38	0	
12	0	0	0	0	472	516	132	521	38	0	
13	0	0	0	0	473	502	133	515	38	0	
14	0	0	0	0	491	487	133	509	38	0	
15	0	0	0	0	503	472	133	505	38	0	
0	0	0	0	0	517	459	133	500	38	0	
1	0	0	0	0	523	449	133	496	38	0	
2	0	0	0	0	528	443	133	495	38	0	
3	0	0	0	0	552	444	133	495	38	0	
4	0	0	0	0	545	452	134	499	38	0	
5	0	0	0	0	543	465	134	505	38	0	
6	0	0	0	0	529	481	134	510	38	0	
7	0	0	0	0	518	499	134	515	38	0	
8	0	0	0	0	504	517	134	518	38	0	
9	0	0	0	0	492	530	133	518	38	0	
10	0	0	0	0	485	538	132	519	38	0	
11	0	0	0	0	472	538	132	519	38	0	
12	0	0	0	0	477	529	132	516	38	0	
13	0	0	0	0	477	515	132	519	38	0	
14	0	0	0	0	478	500	133	510	38	0	
15	0	0	0	0	492	483	133	505	38	0	
0	0	0	0	0	508	470	133	503	38	0	
1	0	0	0	0	523	460	133	501	38	0	
2	0	0	0	0	532	455	133	500	38	0	
3	0	0	0	0	537	453	133	498	38	0	
4	0	0	0	0	540	461	133	499	38	0	
5	0	0	0	0	535	474	133	504	38	0	
6	0	0	0	0	546	489	133	508	38	0	
7	0	0	0	0	524	506	133	516	38	0	
8	0	0	0	0	512	524	132	523	38	0	
9	0	0	0	0	501	537	132	526	38	0	
10	0	0	0	0	489	547	132	528	38	0	
11	0	0	0	0	489	551	133	527	38	0	
12	0	0	0	0	473	547	133	524	38	0	
13	0	0	0	0	475	537	133	519	38	0	
14	0	0	0	0	471	525	133	515	38	0	
15	0	0	0	0	479	508	133	510	38	0	
0	0	0	0	0	499	492	133	506	38	0	
1	0	0	0	0	507	478	134	502	38	0	
2	0	0	0	0	529	468	134	500	38	0	
3	0	0	0	0	530	464	134	498	38	0	
4	0	0	0	0	546	465	134	498	38	0	
5	0	0	0	0	547	473	134	501	38	0	
6	0	0	0	0	539	485	133	503	38	0	
7	0	0	0	0	537	500	133	512	38	0	
8	0	0	0	0	525	516	133	519	38	0	
9	0	0	0	0	513	530	132	525	38	0	
10	0	0	0	0	501	541	132	529	38	0	
11	0	0	0	0	488	549	132	531	38	0	
12	0	0	0	0	478	553	132	531	38	0	
13	0	0	0	0	462	550	132	527	38	0	
14	0	0	0	0	477	543	133	523	38	0	
15	0	0	0	0	477	532	133	517	38	0	
0	0	0	0	0	491	519	133	511	38	0	
1	0	0	0	0	499	504	133	505	38	0	
2	0	0	0	0	515	491	133	502	38	0	
3	0	0	0	0	536	481	133	505	38	0	
4	0	0	0	0	530	476	133	500	38	0	
5	0	0	0	0	549	476	134	499	38	0	
6	0	0	0	0	539	483	134	503	38	0	
7	0	0	0	0	544	497	133	509	38	0	
8	0	0	0	0	531	513	133	519	38	0	
9	0	0	0	0	519	530	133	527	38	0	
10	0	0	0	0	500	545	133	530	38	0	
11	0	0	0	0	484	557	133	533	38	0	
12	0	0	0	0	493	563	133	533	38	0	
13	0	0	0	0	471	565	133	531	38	0	
14	0	0	0	0	467	559	132	527	38	0	
15	0	0	0	0	480	547	132	522	38	0	
0	0	0	0	0	486	531	134	519	38	0	
1	0	0	0	0	491	515	134	513	38	0	
2	0	0	0	0	505	499	134	509	38	0	
3	0	0	0	0	523	487	134	506	38	0	
4	0	0	0	0	531	479	134	504	38	0	
5	0	0	0	0	539	476	134	503	38	0	
6	0	0	0	0	543	479	134	504	38	0	
7	0	0	0	0	546	489	134	506	38	0	
8	0	0	0	0	534	503	134	511	38	0	
9	0	0	0	0	527	519	133	521	38	0	
10	0	0	0	0	512	534	133	533	38	0	
11	0	0	0	0	508	548	133	540	38	0	
12	0	0	0	0	487	559	133	542	38	0	
13	0	0	0	0	482	564	133	539	38	0	
14	0	0	0	0	458	561	133	534	38	0	
15	0	0	0	0	478	552	132	529	38	0	
0	0	0	0	0	476	540	132	523	38	0	
1	0	0	0	0	491	526	132	516	38	0	
2	0	0	0	0	504	511	133	510	38	0	
3	0	0	0	0	511	496	133	504	38	0	
4	0	0	0	0	523	484	133	502	38	0	
5	0	0	0	0	536	478	134	513	38	0	
6	0	0	0	0	543	478	133	502	38	0	
7	0	0	0	0	541	486	134	503	38	0	
8	0	0	0	0	540	497	134	504	38	0	
9	0	0	0	0	534	512	134	514	38	0	
10	0	0	0	0	521	527	134	519	38	0	
11	0	0	0	0	510	541	133	523	38	0	
12	0	0	0	0	495	551	133	525	38	0	
13	0	0	0	0	488	557	133	523	38	0	
14	0	0	0	0	475	560	133	523	38	0	
15	0	0	0	0	464	553	132	519	38	0	
0	0	0	0	0	480	543	132	513	38	0	
1	0	0	0	0	476	530	132	510	38	0	
2	0	0	0	0	489	514	133	506	38	0	
3	0	0	0	0	510	500	133	502	38	0	
4	0	0	0	0	515	488	133	499	38	0	
5	0	0	0	0	528	479	133	498	38	0	
6	0	0	0	0	529	474	133	497	38	0	
7	0	0	0	0	551	477	133	498	38	0	
8	0	0	0	0	537	487	133	500	38	0	
9	0	0	0	0	539	500	133	504	38	0	
10	0	0	0	0	534	516	132	508	38	0	
11	0	0	0	0	521	532	133	511	38	0	
12	0	0	0	0	504	546	132	516	38	0	
13	0	0	0	0	485	556	132	520	38	0	
14	0	0	0	0	489	562	133	522	38	0	
15	0	0	0	0	465	562	133	521	38	0	
0	0	0	0	0	479	553	133	519	38	0	
1	0	0	0	0	478	543	133	516	38	0	
2	0	0	0	0	483	528	134	513	38	0	
3	0	0	0	0	494	513	134	508	38	0	
4	0	0	0	0	506	500	134	504	38	0	
5	0	0	0	0	517	489	134	500	38	0	
6	0	0	0	0	529	481	134	499	38	0	
7	0	0	0	0	541	478	134	497	38	0	
8	0	0	0	0	545	482	134	506	38	0	
9	0	0	0	0	540	492	134	510	38	0	
10	0	0	0	0	543	504	134	505	38	0	
11	0	0	0	0	531	519	134	512	38	0	
12	0	0	0	0	511	534	133	520	38	0	
13	0	0	0	0	496	545	133	527	38	0	
14	0	0	0	0	492	553	133	528	38	0	
15	0	0	0	0	490	558	133	529	38	0	
0	0	0	0	0	463	554	133	527	38	0	
1	0	0	0	0	474	545	133	523	38	0	
2	0	0	0	0	472	531	133	517	38	0	
3	0	0	0	0	493	517	134	512	38	0	
4	0	0	0	0	498	502	134	507	38	0	
5	0	0	0	0	501	489	134	502	38	0	
6	0	0	0	0	520	481	134	499	38	0	
7	0	0	0	0	528	475	133	497	38	0	
8	0	0	0	0	547	474	133	496	38	0	
9	0	0	0	0	548	481	133	497	38	0	
10	0	0	0	0	542	492	133	500	38	0	
11	0	0	0	0	533	505	132	506	38	0	
12	0	0	0	0	524	518	132	510	38	0	
13	0	0	0	0	512	531	132	515	38	0	
14	0	0	0	0	498	542	133	517	38	0	
15	0	0	0	0	488	550	134	519	38	0	
0	0	0	0	0	471	554	134	520	38	0	
1	0	0	0	0	464	550	134	516	38	0	
2	0	0	0	0	475	542	133	513	38	0	
3	0	0	0	0	480	528	134	507	38	0	
4	0	0	0	0	494	512	134	504	38	0	
5	0	0	0	0	504	496	134	499	38	0	
6	0	0	0	0	517	483	134	497	38	0	
7	0	0	0	0	524	473	133	496	38	0	
8	0	0	0	0	527	468	133	496	38	0	
9	0	0	0	0	552	472	133	499	38	0	
10	0	0	0	0	543	481	133	504	38	0	
11	0	0	0	0	544	494	133	503	38	0	
12	0	0	0	0	523	508	132	508	38	0	
13	0	0	0	0	517	522	132	514	38	0	
14	0	0	0	0	506	532	132	521	38	0	
15	0	0	0	0	496	540	133	525	38	0	
0	0	0	0	0	487	545	134	526	38	0	
1	0	0	0	0	467	545	134	525	38	0	
2	0	0	0	0	472	539	134	523	38	0	
3	0	0	0	0	482	529	134	516	38	0	
4	0	0	0	0	479	516	134	513	38	0	
5	0	0	0	0	497	501	134	507	38	0	
6	0	0	0	0	510	487	134	502	38	0	
7	0	0	0	0	520	476	134	500	38	0	
8	0	0	0	0	527	468	134	498	38	0	
9	0	0	0	0	537	467	134	497	38	0	
10	0	0	0	0	542	472	134	497	38	0	
11	0	0	0	0	539	481	134	501	38	0	
12	0	0	0	0	541	494	134	506	38	0	
13	0	0	0	0	529	509	134	514	38	0	
14	0	0	0	0	515	524	134	519	38	0	
15	0	0	0	0	503	537	133	523	38	0	
0	0	0	0	0	491	546	133	526	38	0	
1	0	0	0	0	486	548	133	525	38	0	
2	0	0	0	0	462	544	133	524	38	0	
3	0	0	0	0	470	533	133	521	38	0	
4	0	0	0	0	486	519	134	517	38	0	
5	0	0	0	0	483	503	134	512	38	0	
6	0	0	0	0	492	486	134	511	38	0	
7	0	0	0	0	509	472	134	504	38	0	
8	0	0	0	0	531	461	134	502	38	0	
9	0	0	0	0	529	455	134	501	38	0	
10	0	0	0	0	550	453	134	500	38	0	
11	0	0	0	0	548	460	134	501	38	0	
12	0	0	0	0	531	470	134	503	38	0	
13	0	0	0	0	541	485	134	508	38	0	
14	0	0	0	0	527	501	134	515	38	0	
15	0	0	0	0	504	515	133	519	38	0	
0	0	0	0	0	499	526	133	522	38	0	
1	0	0	0	0	487	534	133	524	38	0	
2	0	0	0	0	483	538	133	525	38	0	
3	0	0	0	0	468	532	133	523	38	0	
4	0	0	0	0	476	520	134	518	38	0	
5	0	0	0	0	476	506	134	512	38	0	
6	0	0	0	0	487	491	134	507	38	0	
7	0	0	0	0	500	476	134	504	38	0	
8	0	0	0	0	511	462	133	502	38	0	
9	0	0	0	0	529	451	133	501	38	0	
10	0	0	0	0	531	446	134	499	38	0	
11	0	0	0	0	551	448	134	499	38	0	
12	0	0	0	0	537	454	134	501	38	0	
13	0	0	0	0	536	466	134	503	38	0	
14	0	0	0	0	541	480	134	508	38	0	
15	0	0	0	0	518	492	134	512	38	0	
0	0	0	0	0	504	501	134	517	38	0	
1	0	0	0	0	493	509	134	522	38	0	
2	0	0	0	0	490	513	133	525	38	0	
3	0	0	0	0	464	514	133	524	38	0	
4	0	0	0	0	471	508	133	523	38	0	
5	0	0	0	0	473	497	133	518	38	0	
6	0	0	0	0	478	485	133	514	38	0	
7	0	0	0	0	496	470	134	510	38	0	
8	0	0	0	0	510	457	134	505	38	0	
9	0	0	0	0	520	448	134	504	38	0	
10	0	0	0	0	530	442	134	501	38	0	
11	0	0	0	0	536	440	133	502	38	0	
12	0	0	0	0	547	445	133	502	38	0	
13	0	0	0	0	545	455	134	504	38	0	
14	0	0	0	0	535	471	134	507	38	0	
15	0	0	0	0	525	487	134	512	38	0	
0	0	0	0	0	516	504	134	514	38	0	
1	0	0	0	0	502	518	134	517	38	0	
2	0	0	0	0	489	526	134	519	38	0	
3	0	0	0	0	487	531	133	521	38	0	
4	0	0	0	0	467	529	133	520	38	0	
5	0	0	0	0	476	521	132	518	38	0	
6	0	0	0	0	480	509	133	513	38	0	
7	0	0	0	0	487	494	134	510	38	0	
8	0	0	0	0	495	479	134	506	38	0	
9	0	0	0	0	506	466	134	503	38	0	
10	0	0	0	0	527	455	134	500	38	0	
11	0	0	0	0	526	449	133	500	38	0	
12	0	0	0	0	545	450	133	499	38	0	
13	0	0	0	0	549	460	134	500	38	0	
14	0	0	0	0	538	471	134	505	38	0	
15	0	0	0	0	546	484	134	513	38	0	
0	0	0	0	0	521	497	134	521	38	0	
1	0	0	0	0	513	511	134	530	38	0	
2	0	0	0	0	498	522	134	530	38	0	
3	0	0	0	0	488	529	133	529	38	0	
4	0	0	0	0	470	532	133	529	38	0	
5	0	0	0	0	464	527	132	526	38	0	
6	0	0	0	0	475	517	132	523	38	0	
7	0	0	0	0	479	502	133	518	38	0	
8	0	0	0	0	490	484	133	515	38	0	
9	0	0	0	0	502	469	133	511	38	0	
10	0	0	0	0	519	456	133	506	38	0	
11	0	0	0	0	523	449	134	504	38	0	
12	0	0	0	0	530	445	134	503	38	0	
13	0	0	0	0	547	447	134	501	38	0	
14	0	0	0	0	542	455	134	505	38	0	
15	0	0	0	0	550	469	134	510	38	0	
0	0	0	0	0	529	484	134	513	38	0	
1	0	0	0	0	519	499	134	521	38	0	
2	0	0	0	0	510	513	134	527	38	0	
3	0	0	0	0	498	523	134	540	38	0	
4	0	0	0	0	483	528	134	548	38	0	
5	0	0	0	0	466	531	134	546	38	0	
6	0	0	0	0	473	526	134	541	38	0	
7	0	0	0	0	476	516	134	534	38	0	
8	0	0	0	0	492	502	134	526	38	0	
9	0	0	0	0	497	488	134	517	38	0	
10	0	0	0	0	502	476	134	513	38	0	
11	0	0	0	0	528	464	134	506	38	0	
12	0	0	0	0	531	456	134	501	38	0	
13	0	0	0	0	536	453	134	501	38	0	
14	0	0	0	0	551	460	134	500	38	0	
15	0	0	0	0	537	472	134	503	38	0	
0	0	0	0	0	537	487	134	508	38	0	
1	0	0	0	0	530	504	134	515	38	0	
2	0	0	0	0	514	521	133	526	38	0	
3	0	0	0	0	498	535	133	535	38	0	
4	0	0	0	0	489	546	133	538	38	0	
5	0	0	0	0	487	551	133	539	38	0	
6	0	0	0	0	462	548	132	535	38	0	
7	0	0	0	0	477	538	133	531	38	0	
8	0	0	0	0	471	521	134	524	38	0	
9	0	0	0	0	484	503	134	516	38	0	
10	0	0	0	0	507	486	134	509	38	0	
11	0	0	0	0	514	472	134	504	38	0	
12	0	0	0	0	522	461	133	500	38	0	
13	0	0	0	0	534	454	133	497	38	0	
14	0	0	0	0	546	452	133	496	38	0	
15	0	0	0	0	548	460	133	497	38	0	
0	0	0	0	0	536	474	133	501	38	0	
1	0	0	0	0	537	492	133	509	38	0	
2	0	0	0	0	523	509	134	519	38	0	
3	0	0	0	0	512	523	134	540	38	0	
4	0	0	0	0	498	531	134	530	38	0	
5	0	0	0	0	487	535	133	528	38	0	
6	0	0	0	0	478	536	133	525	38	0	
7	0	0	0	0	466	531	134	521	38	0	
8	0	0	0	0	478	524	134	516	38	0	
9	0	0	0	0	473	511	134	511	38	0	
10	0	0	0	0	488	497	134	505	38	0	
11	0	0	0	0	504	483	134	503	38	0	
12	0	0	0	0	513	472	134	499	38	0	
13	0	0	0	0	525	466	134	496	38	0	
14	0	0	0	0	530	462	134	496	38	0	
15	0	0	0	0	545	464	134	496	38	0	
0	0	0	0	0	545	472	134	497	38	0	
1	0	0	0	0	538	484	134	501	38	0	
2	0	0	0	0	528	498	134	505	38	0	
3	0	0	0	0	520	512	133	513	38	0	
4	0	0	0	0	509	524	133	518	38	0	
5	0	0	0	0	495	534	132	519	38	0	
6	0	0	0	0	492	542	133	521	38	0	
7	0	0	0	0	468	542	133	522	38	0	
8	0	0	0	0	471	535	134	519	38	0	
9	0	0	0	0	475	525	134	515	38	0	
10	0	0	0	0	475	511	134	510	38	0	
11	0	0	0	0	492	496	134	507	38	0	
12	0	0	0	0	504	480	134	502	38	0	
13	0	0	0	0	519	468	134	499	38	0	
14	0	0	0	0	530	460	134	496	38	0	
15	0	0	0	0	542	457	134	494	38	0	
0	0	0	0	0	554	462	134	493	38	0	
1	0	0	0	0	541	472	134	495	38	0	
2	0	0	0	0	542	486	134	501	38	0	
3	0	0	0	0	523	503	134	508	38	0	
4	0	0	0	0	507	518	133	516	38	0	
5	0	0	0	0	498	530	133	522	38	0	
6	0	0	0	0	495	538	133	525	38	0	
7	0	0	0	0	494	543	134	526	38	0	
8	0	0	0	0	463	540	134	524	38	0	
9	0	0	0	0	468	533	134	521	38	0	
10	0	0	0	0	476	520	134	517	38	0	
11	0	0	0	0	485	504	134	511	38	0	
12	0	0	0	0	496	488	134	507	38	0	
13	0	0	0	0	513	476	134	503	38	0	
14	0	0	0	0	527	466	134	500	38	0	
15	0	0	0	0	531	460	134	499	38	0	
0	0	0	0	0	548	459	134	499	38	0	
1	0	0	0	0	550	465	134	500	38	0	
2	0	0	0	0	536	477	134	503	38	0	
3	0	0	0	0	543	492	134	507	38	0	
4	0	0	0	0	521	509	134	512	38	0	
5	0	0	0	0	510	523	134	515	38	0	
6	0	0	0	0	502	535	134	519	38	0	
7	0	0	0	0	484	543	133	520	38	0	
8	0	0	0	0	475	547	133	519	38	0	
9	0	0	0	0	464	541	132	522	38	0	
10	0	0	0	0	478	529	133	517	38	0	
11	0	0	0	0	483	514	133	516	38	0	
12	0	0	0	0	487	497	133	513	38	0	
13	0	0	0	0	503	481	133	506	38	0	
14	0	0	0	0	518	468	133	503	38	0	
15	0	0	0	0	530	460	133	498	38	0	
0	0	0	0	0	528	456	133	495	38	0	
1	0	0	0	0	551	460	133	495	38	0	
2	0	0	0	0	541	470	133	497	38	0	
3	0	0	0	0	537	484	133	503	38	0	
4	0	0	0	0	530	499	133	508	38	0	
5	0	0	0	0	519	515	133	519	38	0	
6	0	0	0	0	508	530	132	527	38	0	
7	0	0	0	0	491	542	132	531	38	0	
8	0	0	0	0	487	548	132	531	38	0	
9	0	0	0	0	468	548	132	530	38	0	
10	0	0	0	0	466	542	132	526	38	0	
11	0	0	0	0	480	530	133	520	38	0	
12	0	0	0	0	474	512	133	515	38	0	
13	0	0	0	0	491	494	133	511	38	0	
14	0	0	0	0	510	477	133	508	38	0	
15	0	0	0	0	523	463	134	503	38	0	
0	0	0	0	0	533	455	134	500	38	0	
1	0	0	0	0	538	452	134	499	38	0	
2	0	0	0	0	553	457	134	499	38	0	
3	0	0	0	0	537	465	134	502	38	0	
4	0	0	0	0	537	480	134	507	38	0	
5	0	0	0	0	525	497	134	511	38	0	
6	0	0	0	0	517	513	134	520	38	0	
7	0	0	0	0	499	526	134	526	38	0	
8	0	0	0	0	492	535	133	529	38	0	
9	0	0	0	0	484	541	134	527	38	0	
10	0	0	0	0	464	538	134	524	38	0	
11	0	0	0	0	471	530	134	519	38	0	
12	0	0	0	0	473	516	134	513	38	0	
13	0	0	0	0	488	500	134	509	38	0	
14	0	0	0	0	498	484	134	504	38	0	
15	0	0	0	0	510	471	134	500	38	0	
0	0	0	0	0	521	462	134	498	38	0	
1	0	0	0	0	534	459	134	496	38	0	
2	0	0	0	0	546	460	134	495	38	0	
3	0	0	0	0	543	470	134	497	38	0	
4	0	0	0	0	540	483	134	500	38	0	
5	0	0	0	0	540	496	134	505	38	0	
6	0	0	0	0	526	511	133	510	38	0	
7	0	0	0	0	510	525	133	515	38	0	
8	0	0	0	0	496	534	133	518	38	0	
9	0	0	0	0	490	538	133	518	38	0	
10	0	0	0	0	475	538	132	518	38	0	
11	0	0	0	0	469	533	132	516	38	0	
12	0	0	0	0	480	525	133	513	38	0	
13	0	0	0	0	474	513	134	508	38	0	
14	0	0	0	0	499	499	134	504	38	0	
15	0	0	0	0	499	486	134	499	38	0	
0	0	0	0	0	513	475	134	496	38	0	
1	0	0	0	0	528	467	134	495	38	0	
2	0	0	0	0	530	464	134	503	38	0	
3	0	0	0	0	551	468	134	498	38	0	
4	0	0	0	0	546	477	134	501	38	0	
5	0	0	0	0	539	491	134	503	38	0	
6	0	0	0	0	534	506	133	507	38	0	
7	0	0	0	0	519	521	133	511	38	0	
8	0	0	0	0	504	537	133	516	38	0	
9	0	0	0	0	491	548	133	522	38	0	
10	0	0	0	0	482	556	133	524	38	0	
11	0	0	0	0	463	558	133	523	38	0	
12	0	0	0	0	469	552	133	519	38	0	
13	0	0	0	0	483	542	133	515	38	0	
14	0	0	0	0	485	528	133	511	38	0	
15	0	0	0	0	497	513	133	506	38	0	
0	0	0	0	0	502	499	133	502	38	0	
1	0	0	0	0	512	487	133	499	38	0	
2	0	0	0	0	532	479	134	497	38	0	
3	0	0	0	0	544	476	134	496	38	0	
4	0	0	0	0	544	482	134	496	38	0	
5	0	0	0	0	542	494	134	501	38	0	
6	0	0	0	0	540	509	134	506	38	0	
7	0	0	0	0	524	525	134	511	38	0	
8	0	0	0	0	515	541	134	518	38	0	
9	0	0	0	0	499	553	134	524	38	0	
10	0	0	0	0	492	561	134	530	38	0	
11	0	0	0	0	491	565	134	531	38	0	
12	0	0	0	0	467	561	134	529	38	0	
13	0	0	0	0	473	553	134	527	38	0	
14	0	0	0	0	471	541	134	523	38	0	
15	0	0	0	0	483	527	134	517	38	0	
0	0	0	0	0	504	513	134	512	38	0	
1	0	0	0	0	507	499	134	506	38	0	
2	0	0	0	0	524	488	134	503	38	0	
3	0	0	0	0	528	483	134	501	38	0	
4	0	0	0	0	552	481	133	500	38	0	
5	0	0	0	0	550	489	133	505	38	0	
6	0	0	0	0	539	500	134	506	38	0	
7	0	0	0	0	531	517	134	512	38	0	
8	0	0	0	0	519	531	134	518	38	0	
9	0	0	0	0	505	545	134	522	38	0	
10	0	0	0	0	499	556	134	526	38	0	
11	0	0	0	0	489	562	134	524	38	0	
12	0	0	0	0	473	564	134	522	38	0	
13	0	0	0	0	467	559	134	519	38	0	
14	0	0	0	0	472	549	134	513	38	0	
15	0	0	0	0	480	535	134	506	38	0	
0	0	0	0	0	494	519	134	503	38	0	
1	0	0	0	0	503	505	134	500	38	0	
2	0	0	0	0	519	493	134	497	38	0	
3	0	0	0	0	527	484	134	495	38	0	
4	0	0	0	0	535	480	134	495	38	0	
5	0	0	0	0	550	483	134	496	38	0	
6	0	0	0	0	538	491	134	498	38	0	
7	0	0	0	0	540	503	134	506	38	0	
8	0	0	0	0	537	518	134	515	38	0	
9	0	0	0	0	517	534	134	520	38	0	
10	0	0	0	0	507	550	134	523	38	0	
11	0	0	0	0	491	561	134	528	38	0	
12	0	0	0	0	487	567	134	529	38	0	
13	0	0	0	0	470	567	134	527	38	0	
14	0	0	0	0	474	558	134	524	38	0	
15	0	0	0	0	474	547	134	519	38	0	
0	0	0	0	0	482	531	134	515	38	0	
1	0	0	0	0	487	516	134	511	38	0	
2	0	0	0	0	503	500	134	508	38	0	
3	0	0	0	0	523	490	134	506	38	0	
4	0	0	0	0	532	486	134	504	38	0	
5	0	0	0	0	535	485	133	501	38	0	
6	0	0	0	0	546	488	133	499	38	0	
7	0	0	0	0	543	497	133	502	38	0	
8	0	0	0	0	544	511	133	511	38	0	
9	0	0	0	0	524	527	133	520	38	0	
10	0	0	0	0	514	543	133	531	38	0	
11	0	0	0	0	504	557	133	539	38	0	
12	0	0	0	0	493	564	134	538	38	0	
13	0	0	0	0	485	569	134	537	38	0	
14	0	0	0	0	466	566	134	534	38	0	
15	0	0	0	0	471	557	134	527	38	0	
0	0	0	0	0	476	545	134	520	38	0	
1	0	0	0	0	484	530	134	514	38	0	
2	0	0	0	0	493	515	134	510	38	0	
3	0	0	0	0	511	500	134	505	38	0	
4	0	0	0	0	520	490	134	503	38	0	
5	0	0	0	0	528	485	134	499	38	0	
6	0	0	0	0	546	483	134	499	38	0	
7	0	0	0	0	551	489	134	500	38	0	
8	0	0	0	0	537	497	133	503	38	0	
9	0	0	0	0	539	509	133	508	38	0	
10	0	0	0	0	530	524	133	511	38	0	
11	0	0	0	0	516	537	133	514	38	0	
12	0	0	0	0	499	548	134	518	38	0	
13	0	0	0	0	483	554	134	518	38	0	
14	0	0	0	0	475	556	134	518	38	0	
15	0	0	0	0	468	551	134	517	38	0	
0	0	0	0	0	474	543	134	515	38	0	
1	0	0	0	0	484	531	134	511	38	0	
2	0	0	0	0	493	515	134	507	38	0	
3	0	0	0	0	502	500	134	503	38	0	
4	0	0	0	0	513	487	134	500	38	0	
5	0	0	0	0	527	476	134	499	38	0	
6	0	0	0	0	536	470	134	497	38	0	
7	0	0	0	0	556	471	134	496	38	0	
8	0	0	0	0	548	477	134	498	38	0	
9	0	0	0	0	542	487	134	500	38	0	
10	0	0	0	0	527	503	134	504	38	0	
11	0	0	0	0	515	520	134	509	38	0	
12	0	0	0	0	505	536	134	512	38	0	
13	0	0	0	0	490	548	133	515	38	0	
14	0	0	0	0	487	556	133	515	38	0	
15	0	0	0	0	463	559	132	517	38	0	
0	0	0	0	0	468	552	133	513	38	0	
1	0	0	0	0	480	542	134	509	38	0	
2	0	0	0	0	480	529	134	505	38	0	
3	0	0	0	0	494	515	134	502	38	0	
4	0	0	0	0	509	502	134	500	38	0	
5	0	0	0	0	519	491	134	498	38	0	
6	0	0	0	0	530	484	134	497	38	0	
7	0	0	0	0	540	483	134	496	38	0	
8	0	0	0	0	549	487	134	497	38	0	
9	0	0	0	0	539	496	134	499	38	0	
10	0	0	0	0	541	509	134	503	38	0	
11	0	0	0	0	529	524	134	509	38	0	
12	0	0	0	0	509	539	134	518	38	0	
13	0	0	0	0	502	553	134	525	38	0	
14	0	0	0	0	488	561	134	530	38	0	
15	0	0	0	0	486	563	133	530	38	0	
0	0	0	0	0	468	558	133	527	38	0	
1	0	0	0	0	470	549	133	522	38	0	
2	0	0	0	0	472	535	133	517	38	0	
3	0	0	0	0	489	519	133	510	38	0	
4	0	0	0	0	496	503	134	504	38	0	
5	0	0	0	0	510	488	134	499	38	0	
6	0	0	0	0	523	478	134	497	38	0	
7	0	0	0	0	526	471	134	495	38	0	
8	0	0	0	0	550	471	134	496	38	0	
9	0	0	0	0	547	478	134	497	38	0	
10	0	0	0	0	534	488	134	501	38	0	
11	0	0	0	0	536	503	134	512	38	0	
12	0	0	0	0	521	517	134	522	38	0	
13	0	0	0	0	507	531	134	528	38	0	
14	0	0	0	0	494	543	134	531	38	0	
15	0	0	0	0	492	550	134	531	38	0	
0	0	0	0	0	475	555	134	530	38	0	
1	0	0	0	0	468	551	134	526	38	0	
2	0	0	0	0	476	543	134	521	38	0	
3	0	0	0	0	478	527	134	516	38	0	
4	0	0	0	0	490	511	134	511	38	0	
5	0	0	0	0	506	495	134	506	38	0	
6	0	0	0	0	513	482	134	502	38	0	
7	0	0	0	0	530	473	134	498	38	0	
8	0	0	0	0	533	467	134	498	38	0	
9	0	0	0	0	547	470	133	497	38	0	
10	0	0	0	0	543	478	133	500	38	0	
11	0	0	0	0	537	491	134	505	38	0	
12	0	0	0	0	530	505	134	510	38	0	
13	0	0	0	0	520	521	133	516	38	0	
14	0	0	0	0	505	534	133	519	38	0	
15	0	0	0	0	492	545	133	521	38	0	
0	0	0	0	0	482	551	133	523	38	0	
1	0	0	0	0	465	552	133	522	38	0	
2	0	0	0	0	473	544	133	519	38	0	
3	0	0	0	0	480	531	133	515	38	0	
4	0	0	0	0	476	516	133	511	38	0	
5	0	0	0	0	495	499	133	508	38	0	
6	0	0	0	0	506	484	133	503	38	0	
7	0	0	0	0	516	471	133	500	38	0	
8	0	0	0	0	531	463	134	499	38	0	
9	0	0	0	0	538	460	134	499	38	0	
10	0	0	0	0	556	466	134	499	38	0	
11	0	0	0	0	537	475	134	502	38	0	
12	0	0	0	0	545	487	134	506	38	0	
13	0	0	0	0	529	501	134	516	38	0	
14	0	0	0	0	510	513	134	524	38	0	
15	0	0	0	0	498	524	134	529	38	0	
0	0	0	0	0	491	531	134	528	38	0	
1	0	0	0	0	481	535	134	527	38	0	
2	0	0	0	0	466	534	134	524	38	0	
3	0	0	0	0	472	525	133	519	38	0	
4	0	0	0	0	473	513	134	513	38	0	
5	0	0	0	0	490	499	134	509	38	0	
6	0	0	0	0	500	486	134	510	38	0	
7	0	0	0	0	507	472	133	503	38	0	
8	0	0	0	0	531	462	133	501	38	0	
9	0	0	0	0	526	456	133	499	38	0	
10	0	0	0	0	547	456	133	498	38	0	
11	0	0	0	0	547	463	134	497	38	0	
12	0	0	0	0	540	475	133	501	38	0	
13	0	0	0	0	529	490	133	508	38	0	
14	0	0	0	0	524	505	133	518	38	0	
15	0	0	0	0	513	520	134	525	38	0	
0	0	0	0	0	496	533	134	529	38	0	
1	0	0	0	0	491	540	134	531	38	0	
2	0	0	0	0	474	543	134	531	38	0	
3	0	0	0	0	464	537	134	526	38	0	
4	0	0	0	0	475	528	134	520	38	0	
5	0	0	0	0	484	515	134	513	38	0	
6	0	0	0	0	491	500	134	508	38	0	
7	0	0	0	0	497	487	134	505	38	0	
8	0	0	0	0	515	476	134	502	38	0	
9	0	0	0	0	532	466	134	499	38	0	
10	0	0	0	0	535	463	135	497	38	0	
11	0	0	0	0	552	465	134	496	38	0	
12	0	0	0	0	544	474	134	498	38	0	
13	0	0	0	0	544	487	133	501	38	0	
14	0	0	0	0	531	503	133	507	38	0	
15	0	0	0	0	520	519	134	519	38	0	
0	0	0	0	0	508	532	134	527	38	0	
1	0	0	0	0	487	542	134	532	38	0	
2	0	0	0	0	491	547	134	532	38	0	
3	0	0	0	0	468	550	134	528	38	0	
4	0	0	0	0	474	543	134	525	38	0	
5	0	0	0	0	472	533	134	519	38	0	
6	0	0	0	0	476	518	134	514	38	0	
7	0	0	0	0	500	503	134	508	38	0	
8	0	0	0	0	509	488	134	517	38	0	
9	0	0	0	0	524	476	134	503	38	0	
10	0	0	0	0	529	468	134	499	38	0	
11	0	0	0	0	535	467	134	497	38	0	
12	0	0	0	0	548	472	134	497	38	0	
13	0	0	0	0	541	483	134	499	38	0	
14	0	0	0	0	543	497	133	503	38	0	
15	0	0	0	0	531	514	133	508	38	0	
0	0	0	0	0	511	529	133	513	38	0	
1	0	0	0	0	501	542	134	516	38	0	
2	0	0	0	0	484	551	134	518	38	0	
3	0	0	0	0	483	553	134	518	38	0	
4	0	0	0	0	460	549	134	517	38	0	
5	0	0	0	0	478	539	134	512	38	0	
6	0	0	0	0	472	526	134	508	38	0	
7	0	0	0	0	487	513	134	506	38	0	
8	0	0	0	0	498	502	134	503	38	0	
9	0	0	0	0	513	492	134	498	38	0	
10	0	0	0	0	532	483	134	498	38	0	
11	0	0	0	0	523	478	134	497	38	0	
12	0	0	0	0	550	480	134	497	38	0	
13	0	0	0	0	540	490	134	497	38	0	
14	0	0	0	0	537	503	133	500	38	0	
15	0	0	0	0	539	521	134	505	38	0	
0	0	0	0	0	524	539	133	510	38	0	
1	0	0	0	0	512	556	133	521	38	0	
2	0	0	0	0	498	571	134	528	38	0	
3	0	0	0	0	487	581	134	530	38	0	
4	0	0	0	0	474	585	134	528	38	0	
5	0	0	0	0	467	581	134	525	38	0	
6	0	0	0	0	485	571	134	522	38	0	
7	0	0	0	0	477	556	133	518	38	0	
8	0	0	0	0	493	540	133	513	38	0	
9	0	0	0	0	507	523	133	508	38	0	
10	0	0	0	0	511	508	133	513	38	0	
11	0	0	0	0	521	496	133	504	38	0	
12	0	0	0	0	531	488	134	503	38	0	
13	0	0	0	0	558	487	133	502	38	0	
14	0	0	0	0	539	492	133	505	38	0	
15	0	0	0	0	543	502	133	516	38	0	
0	0	0	0	0	527	515	133	512	38	0	
1	0	0	0	0	519	527	133	518	38	0	
2	0	0	0	0	500	538	133	520	38	0	
3	0	0	0	0	491	545	133	523	38	0	
4	0	0	0	0	488	545	133	525	38	0	
5	0	0	0	0	460	542	134	524	38	0	
6	0	0	0	0	478	530	134	521	38	0	
7	0	0	0	0	475	514	134	517	38	0	
8	0	0	0	0	479	496	134	513	38	0	
9	0	0	0	0	496	477	134	508	38	0	
10	0	0	0	0	505	460	134	504	38	0	
11	0	0	0	0	519	447	135	503	38	0	
12	0	0	0	0	531	436	134	501	38	0	
13	0	0	0	0	542	430	135	500	38	0	
14	0	0	0	0	554	432	135	501	38	0	
15	0	0	0	0	539	438	134	504	38	0	
0	0	0	0	0	540	448	134	506	38	0	
1	0	0	0	0	526	462	133	511	38	0	
2	0	0	0	0	514	478	133	525	38	0	
3	0	0	0	0	509	492	133	536	38	0	
4	0	0	0	0	487	505	133	540	38	0	
5	0	0	0	0	487	515	134	540	38	0	
6	0	0	0	0	457	518	134	536	38	0	
7	0	0	0	0	475	514	134	532	38	0	
8	0	0	0	0	475	506	134	525	38	0	
9	0	0	0	0	488	496	134	519	38	0	
10	0	0	0	0	498	486	134	512	38	0	
11	0	0	0	0	508	476	134	508	38	0	
12	0	0	0	0	519	471	135	506	38	0	
13	0	0	0	0	531	468	135	503	38	0	
14	0	0	0	0	556	470	135	502	38	0	
15	0	0	0	0	543	481	134	502	38	0	
0	0	0	0	0	544	495	134	504	38	0	
1	0	0	0	0	535	514	134	513	38	0	
2	0	0	0	0	527	533	134	529	38	0	
3	0	0	0	0	514	549	134	531	38	0	
4	0	0	0	0	496	561	134	534	38	0	
5	0	0	0	0	483	568	134	534	38	0	
6	0	0	0	0	477	569	134	532	38	0	
7	0	0	0	0	472	561	134	526	38	0	
8	0	0	0	0	471	550	134	521	38	0	
9	0	0	0	0	482	535	133	517	38	0	
10	0	0	0	0	495	520	133	511	38	0	
11	0	0	0	0	501	506	133	507	38	0	
12	0	0	0	0	519	493	134	501	38	0	
13	0	0	0	0	525	484	134	499	38	0	
14	0	0	0	0	531	481	134	497	38	0	
15	0	0	0	0	542	486	134	495	38	0	
0	0	0	0	0	540	496	134	497	38	0	
1	0	0	0	0	542	510	134	502	38	0	
2	0	0	0	0	534	525	133	508	38	0	
3	0	0	0	0	516	539	133	515	38	0	
4	0	0	0	0	507	551	133	519	38	0	
5	0	0	0	0	499	561	133	523	38	0	
6	0	0	0	0	488	567	133	522	38	0	
7	0	0	0	0	468	568	133	520	38	0	
8	0	0	0	0	467	561	134	518	38	0	
9	0	0	0	0	471	547	134	515	38	0	
10	0	0	0	0	478	531	133	509	38	0	
11	0	0	0	0	491	514	133	504	38	0	
12	0	0	0	0	509	498	133	500	38	0	
13	0	0	0	0	527	486	134	497	38	0	
14	0	0	0	0	528	479	134	496	38	0	
15	0	0	0	0	536	476	134	495	38	0	
0	0	0	0	0	551	481	134	495	38	0	
1	0	0	0	0	534	491	135	497	38	0	
2	0	0	0	0	547	506	134	503	38	0	
3	0	0	0	0	532	521	134	513	38	0	
4	0	0	0	0	513	537	134	529	38	0	
5	0	0	0	0	507	550	134	543	38	0	
6	0	0	0	0	487	558	134	550	38	0	
7	0	0	0	0	487	561	133	551	38	0	
8	0	0	0	0	463	556	133	545	38	0	
9	0	0	0	0	473	547	133	536	38	0	
10	0	0	0	0	479	535	133	527	38	0	
11	0	0	0	0	487	521	134	517	38	0	
12	0	0	0	0	502	506	134	508	38	0	
13	0	0	0	0	509	492	133	504	38	0	
14	0	0	0	0	525	484	134	499	38	0	
15	0	0	0	0	532	479	134	495	38	0	
0	0	0	0	0	548	478	134	494	38	0	
1	0	0	0	0	547	484	134	495	38	0	
2	0	0	0	0	544	494	134	497	38	0	
3	0	0	0	0	533	510	134	505	38	0	
4	0	0	0	0	517	526	133	513	38	0	
5	0	0	0	0	506	542	133	519	38	0	
6	0	0	0	0	498	555	133	523	38	0	
7	0	0	0	0	493	562	133	525	38	0	
8	0	0	0	0	480	565	133	525	38	0	
9	0	0	0	0	466	559	134	520	38	0	
10	0	0	0	0	475	548	134	515	38	0	
11	0	0	0	0	472	534	134	511	38	0	
12	0	0	0	0	486	515	134	508	38	0	
13	0	0	0	0	504	496	134	504	38	0	
14	0	0	0	0	518	480	134	500	38	0	
15	0	0	0	0	526	470	134	497	38	0	
0	0	0	0	0	535	464	134	496	38	0	
1	0	0	0	0	549	467	134	494	38	0	
2	0	0	0	0	541	478	134	496	38	0	
3	0	0	0	0	544	490	134	500	38	0	
4	0	0	0	0	534	505	134	508	38	0	
5	0	0	0	0	518	521	134	514	38	0	
6	0	0	0	0	505	535	134	518	38	0	
7	0	0	0	0	499	544	134	520	38	0	
8	0	0	0	0	488	548	134	521	38	0	
9	0	0	0	0	463	547	134	519	38	0	
10	0	0	0	0	470	539	134	514	38	0	
11	0	0	0	0	475	528	133	510	38	0	
12	0	0	0	0	476	512	133	506	38	0	
13	0	0	0	0	498	496	133	501	38	0	
14	0	0	0	0	508	482	134	499	38	0	
15	0	0	0	0	528	472	134	496	38	0	
0	0	0	0	0	528	466	134	495	38	0	
1	0	0	0	0	537	463	134	497	38	0	
2	0	0	0	0	545	467	134	498	38	0	
3	0	0	0	0	540	476	134	501	38	0	
4	0	0	0	0	545	487	134	507	38	0	
5	0	0	0	0	523	501	134	514	38	0	
6	0	0	0	0	514	516	134	522	38	0	
7	0	0	0	0	503	530	134	528	38	0	
8	0	0	0	0	487	539	133	531	38	0	
9	0	0	0	0	485	545	133	531	38	0	
10	0	0	0	0	467	541	133	529	38	0	
11	0	0	0	0	468	531	134	524	38	0	
12	0	0	0	0	479	519	134	517	38	0	
13	0	0	0	0	483	506	134	511	38	0	
14	0	0	0	0	498	492	134	507	38	0	
15	0	0	0	0	511	478	135	504	38	0	
0	0	0	0	0	527	467	135	501	38	0	
1	0	0	0	0	526	462	134	499	38	0	
2	0	0	0	0	554	462	134	497	38	0	
3	0	0	0	0	544	468	134	499	38	0	
4	0	0	0	0	534	478	133	503	38	0	
5	0	0	0	0	539	491	134	510	38	0	
6	0	0	0	0	528	503	133	516	38	0	
7	0	0	0	0	503	516	133	524	38	0	
8	0	0	0	0	492	528	134	529	38	0	
9	0	0	0	0	495	539	134	528	38	0	
10	0	0	0	0	470	545	134	524	38	0	
11	0	0	0	0	472	544	134	520	38	0	
12	0	0	0	0	474	538	134	515	38	0	
13	0	0	0	0	476	529	134	510	38	0	
14	0	0	0	0	497	519	134	504	38	0	
15	0	0	0	0	514	507	133	501	38	0	
0	0	0	0	0	515	497	133	497	38	0	
1	0	0	0	0	519	491	133	496	38	0	
2	0	0	0	0	527	488	134	495	38	0	
3	0	0	0	0	555	491	133	496	38	0	
4	0	0	0	0	545	501	134	499	38	0	
5	0	0	0	0	544	515	134	501	38	0	
6	0	0	0	0	523	533	134	504	38	0	
7	0	0	0	0	523	551	134	508	38	0	
8	0	0	0	0	506	565	134	512	38	0	
9	0	0	0	0	495	576	134	516	38	0	
10	0	0	0	0	486	583	134	517	38	0	
11	0	0	0	0	473	585	134	517	38	0	
12	0	0	0	0	467	579	134	513	38	0	
13	0	0	0	0	472	568	133	511	38	0	
14	0	0	0	0	482	551	133	511	38	0	
15	0	0	0	0	488	535	133	508	38	0	
0	0	0	0	0	508	520	133	505	38	0	
1	0	0	0	0	524	509	134	504	38	0	
2	0	0	0	0	532	500	134	502	38	0	
3	0	0	0	0	537	494	134	501	38	0	
4	0	0	0	0	545	496	134	502	38	0	
5	0	0	0	0	543	504	134	504	38	0	
6	0	0	0	0	549	517	134	507	38	0	
7	0	0	0	0	535	530	134	514	38	0	
8	0	0	0	0	507	544	134	516	38	0	
9	0	0	0	0	498	556	134	519	38	0	
10	0	0	0	0	489	566	134	521	38	0	
11	0	0	0	0	479	573	134	520	38	0	
12	0	0	0	0	466	572	133	518	38	0	
13	0	0	0	0	473	564	133	516	38	0	
14	0	0	0	0	472	552	133	512	38	0	
15	0	0	0	0	486	539	133	509	38	0	
0	0	0	0	0	499	526	134	505	38	0	
1	0	0	0	0	515	512	134	503	38	0	
2	0	0	0	0	524	502	134	501	38	0	
3	0	0	0	0	527	493	134	499	38	0	
4	0	0	0	0	548	489	135	499	38	0	
5	0	0	0	0	544	494	135	499	38	0	
6	0	0	0	0	541	504	134	503	38	0	
7	0	0	0	0	538	518	133	508	38	0	
8	0	0	0	0	519	534	133	516	38	0	
9	0	0	0	0	514	548	133	520	38	0	
10	0	0	0	0	497	562	133	522	38	0	
11	0	0	0	0	494	571	133	522	38	0	
12	0	0	0	0	478	575	133	522	38	0	
13	0	0	0	0	468	571	133	519	38	0	
14	0	0	0	0	472	562	134	516	38	0	
15	0	0	0	0	479	551	134	513	38	0	
0	0	0	0	0	489	537	134	509	38	0	
1	0	0	0	0	507	523	134	505	38	0	
2	0	0	0	0	510	510	135	502	38	0	
3	0	0	0	0	529	500	135	499	38	0	
4	0	0	0	0	520	493	134	499	38	0	
5	0	0	0	0	552	492	133	497	38	0	
6	0	0	0	0	546	500	133	501	38	0	
7	0	0	0	0	548	511	134	506	38	0	
8	0	0	0	0	535	527	134	510	38	0	
9	0	0	0	0	521	544	134	516	38	0	
10	0	0	0	0	510	558	134	521	38	0	
11	0	0	0	0	491	568	134	525	38	0	
12	0	0	0	0	496	572	134	525	38	0	
13	0	0	0	0	462	572	134	521	38	0	
14	0	0	0	0	469	563	134	516	38	0	
15	0	0	0	0	470	552	133	512	38	0	
0	0	0	0	0	477	536	133	508	38	0	
1	0	0	0	0	496	519	133	505	38	0	
2	0	0	0	0	507	504	134	502	38	0	
3	0	0	0	0	516	492	134	503	38	0	
4	0	0	0	0	531	483	134	504	38	0	
5	0	0	0	0	535	480	134	505	38	0	
6	0	0	0	0	550	484	134	506	38	0	
7	0	0	0	0	543	492	134	506	38	0	
8	0	0	0	0	536	506	135	508	38	0	
9	0	0	0	0	527	522	134	512	38	0	
10	0	0	0	0	512	537	133	520	38	0	
11	0	0	0	0	500	550	133	527	38	0	
12	0	0	0	0	491	559	133	527	38	0	
13	0	0	0	0	480	562	134	526	38	0	
14	0	0	0	0	464	559	134	523	38	0	
15	0	0	0	0	473	551	134	521	38	0	
0	0	0	0	0	477	540	134	518	38	0	
1	0	0	0	0	489	524	134	513	38	0	
2	0	0	0	0	496	509	134	508	38	0	
3	0	0	0	0	509	497	135	505	38	0	
4	0	0	0	0	529	488	135	502	38	0	
5	0	0	0	0	527	481	135	502	38	0	
6	0	0	0	0	543	478	134	502	38	0	
7	0	0	0	0	548	483	134	504	38	0	
8	0	0	0	0	542	494	134	507	38	0	
9	0	0	0	0	538	508	133	512	38	0	
10	0	0	0	0	524	522	133	517	38	0	
11	0	0	0	0	513	534	133	523	38	0	
12	0	0	0	0	491	545	134	526	38	0	
13	0	0	0	0	489	551	134	526	38	0	
14	0	0	0	0	475	553	134	526	38	0	
15	0	0	0	0	467	547	134	522	38	0	
0	0	0	0	0	484	537	134	520	38	0	
1	0	0	0	0	483	521	134	514	38	0	
2	0	0	0	0	487	505	135	509	38	0	
3	0	0	0	0	504	491	134	507	38	0	
4	0	0	0	0	513	478	134	503	38	0	
5	0	0	0	0	526	468	134	500	38	0	
6	0	0	0	0	530	463	135	498	38	0	
7	0	0	0	0	554	464	135	499	38	0	
8	0	0	0	0	542	472	134	500	38	0	
9	0	0	0	0	535	481	134	504	38	0	
10	0	0	0	0	533	496	133	512	38	0	
11	0	0	0	0	521	511	134	519	38	0	
12	0	0	0	0	510	524	134	526	38	0	
13	0	0	0	0	491	534	134	529	38	0	
14	0	0	0	0	486	539	134	528	38	0	
15	0	0	0	0	466	539	134	527	38	0	
0	0	0	0	0	472	531	134	531	38	0	
1	0	0	0	0	483	520	134	521	38	0	
2	0	0	0	0	480	506	135	516	38	0	
3	0	0	0	0	487	489	135	511	38	0	
4	0	0	0	0	514	472	135	507	38	0	
5	0	0	0	0	517	460	134	504	38	0	
6	0	0	0	0	526	452	134	502	38	0	
7	0	0	0	0	540	450	134	500	38	0	
8	0	0	0	0	554	455	134	501	38	0	
9	0	0	0	0	546	463	134	500	38	0	
10	0	0	0	0	538	476	134	502	38	0	
11	0	0	0	0	528	492	134	509	38	0	
12	0	0	0	0	514	508	134	515	38	0	
13	0	0	0	0	499	521	134	520	38	0	
14	0	0	0	0	490	529	134	523	38	0	
15	0	0	0	0	489	532	133	522	38	0	
0	0	0	0	0	470	529	133	519	38	0	
1	0	0	0	0	472	520	134	516	38	0	
2	0	0	0	0	478	508	134	513	38	0	
3	0	0	0	0	486	492	134	510	38	0	
4	0	0	0	0	494	477	134	507	38	0	
5	0	0	0	0	504	466	134	503	38	0	
6	0	0	0	0	531	460	135	504	38	0	
7	0	0	0	0	527	457	135	498	38	0	
8	0	0	0	0	546	461	135	496	38	0	
9	0	0	0	0	549	471	135	496	38	0	
10	0	0	0	0	540	483	135	500	38	0	
11	0	0	0	0	542	499	135	508	38	0	
12	0	0	0	0	518	517	134	520	38	0	
13	0	0	0	0	514	532	133	528	38	0	
14	0	0	0	0	501	545	133	531	38	0	
15	0	0	0	0	484	553	133	532	38	0	
0	0	0	0	0	473	557	133	531	38	0	
1	0	0	0	0	467	552	133	527	38	0	
2	0	0	0	0	469	542	133	521	38	0	
3	0	0	0	0	472	528	133	516	38	0	
4	0	0	0	0	489	513	133	511	38	0	
5	0	0	0	0	510	499	134	506	38	0	
6	0	0	0	0	520	488	134	501	38	0	
7	0	0	0	0	522	478	134	499	38	0	
8	0	0	0	0	530	472	134	499	38	0	
9	0	0	0	0	553	474	134	500	38	0	
10	0	0	0	0	539	483	134	503	38	0	
11	0	0	0	0	534	497	134	507	38	0	
12	0	0	0	0	529	513	134	523	38	0	
13	0	0	0	0	526	530	134	518	38	0	
14	0	0	0	0	508	544	134	532	38	0	
15	0	0	0	0	498	556	134	534	38	0	
0	0	0	0	0	485	563	134	537	38	0	
1	0	0	0	0	471	566	134	528	38	0	
2	0	0	0	0	470	560	133	526	38	0	
3	0	0	0	0	472	551	133	520	38	0	
4	0	0	0	0	480	536	134	515	38	0	
5	0	0	0	0	490	520	134	509	38	0	
6	0	0	0	0	511	504	134	505	38	0	
7	0	0	0	0	514	490	134	503	38	0	
8	0	0	0	0	530	479	134	500	38	0	
9	0	0	0	0	544	473	134	498	38	0	
10	0	0	0	0	544	476	134	499	38	0	
11	0	0	0	0	541	483	134	501	38	0	
12	0	0	0	0	542	498	134	505	38	0	
13	0	0	0	0	523	516	134	514	38	0	
14	0	0	0	0	511	533	134	526	38	0	
15	0	0	0	0	502	548	134	534	38	0	
0	0	0	0	0	492	560	134	534	38	0	
1	0	0	0	0	485	566	133	533	38	0	
2	0	0	0	0	464	563	133	531	38	0	
3	0	0	0	0	479	555	133	525	38	0	
4	0	0	0	0	472	542	134	520	38	0	
5	0	0	0	0	484	527	134	514	38	0	
6	0	0	0	0	503	514	134	507	38	0	
7	0	0	0	0	506	500	135	504	38	0	
8	0	0	0	0	526	492	135	502	38	0	
9	0	0	0	0	530	486	135	501	38	0	
10	0	0	0	0	551	487	134	503	38	0	
11	0	0	0	0	543	494	134	503	38	0	
12	0	0	0	0	534	503	135	507	38	0	
13	0	0	0	0	537	516	134	514	38	0	
14	0	0	0	0	529	531	134	524	38	0	
15	0	0	0	0	514	544	134	531	38	0	
0	0	0	0	0	496	555	134	534	38	0	
1	0	0	0	0	494	561	133	533	38	0	
2	0	0	0	0	477	565	133	530	38	0	
3	0	0	0	0	463	560	133	525	38	0	
4	0	0	0	0	470	551	134	519	38	0	
5	0	0	0	0	473	538	134	514	38	0	
6	0	0	0	0	487	522	134	510	38	0	
7	0	0	0	0	511	508	134	506	38	0	
8	0	0	0	0	518	496	134	503	38	0	
9	0	0	0	0	521	488	135	499	38	0	
10	0	0	0	0	527	483	135	496	38	0	
11	0	0	0	0	550	484	135	496	38	0	
12	0	0	0	0	543	493	135	497	38	0	
13	0	0	0	0	542	505	135	500	38	0	
14	0	0	0	0	540	519	134	505	38	0	
15	0	0	0	0	517	534	133	511	38	0	
0	0	0	0	0	507	546	133	520	38	0	
1	0	0	0	0	496	557	133	527	38	0	
2	0	0	0	0	486	563	133	530	38	0	
3	0	0	0	0	463	561	134	529	38	0	
4	0	0	0	0	470	552	134	527	38	0	
5	0	0	0	0	474	540	134	521	38	0	
6	0	0	0	0	478	523	134	516	38	0	
7	0	0	0	0	497	504	135	512	38	0	
8	0	0	0	0	507	485	135	508	38	0	
9	0	0	0	0	519	472	135	504	38	0	
10	0	0	0	0	523	463	135	500	38	0	
11	0	0	0	0	540	461	135	499	38	0	
12	0	0	0	0	544	468	135	499	38	0	
13	0	0	0	0	538	481	135	499	38	0	
14	0	0	0	0	541	496	135	503	38	0	
15	0	0	0	0	525	511	135	509	38	0	
0	0	0	0	0	512	527	134	515	38	0	
1	0	0	0	0	500	540	134	519	38	0	
2	0	0	0	0	483	549	133	524	38	0	
3	0	0	0	0	483	556	133	523	38	0	
4	0	0	0	0	465	552	133	520	38	0	
5	0	0	0	0	478	543	133	517	38	0	
6	0	0	0	0	473	530	134	514	38	0	
7	0	0	0	0	479	515	134	510	38	0	
8	0	0	0	0	502	499	134	505	38	0	
9	0	0	0	0	514	485	135	501	38	0	
10	0	0	0	0	522	476	135	499	38	0	
11	0	0	0	0	528	471	135	497	38	0	
12	0	0	0	0	549	469	135	498	38	0	
13	0	0	0	0	546	476	135	501	38	0	
14	0	0	0	0	546	487	134	504	38	0	
15	0	0	0	0	540	503	134	512	38	0	
0	0	0	0	0	520	519	133	522	38	0	
1	0	0	0	0	507	534	133	531	38	0	
2	0	0	0	0	498	547	134	533	38	0	
3	0	0	0	0	488	553	134	531	38	0	
4	0	0	0	0	476	556	134	533	38	0	
5	0	0	0	0	462	551	134	525	38	0	
6	0	0	0	0	477	543	134	530	38	0	
7	0	0	0	0	482	530	134	523	38	0	
8	0	0	0	0	486	515	134	520	38	0	
9	0	0	0	0	502	500	134	504	38	0	
10	0	0	0	0	517	486	135	498	38	0	
11	0	0	0	0	526	477	135	496	38	0	
12	0	0	0	0	530	472	135	495	38	0	
13	0	0	0	0	552	476	134	494	38	0	
14	0	0	0	0	537	484	134	498	38	0	
15	0	0	0	0	547	496	134	502	38	0	
0	0	0	0	0	535	511	134	509	38	0	
1	0	0	0	0	520	527	134	517	38	0	
2	0	0	0	0	508	539	134	523	38	0	
3	0	0	0	0	499	548	134	528	38	0	
4	0	0	0	0	486	552	134	527	38	0	
5	0	0	0	0	474	551	134	526	38	0	
6	0	0	0	0	464	543	134	525	38	0	
7	0	0	0	0	469	529	135	523	38	0	
8	0	0	0	0	477	512	134	518	38	0	
9	0	0	0	0	494	494	134	512	38	0	
10	0	0	0	0	502	479	134	507	38	0	
11	0	0	0	0	520	470	135	503	38	0	
12	0	0	0	0	519	464	135	499	38	0	
13	0	0	0	0	540	462	135	499	38	0	
14	0	0	0	0	550	470	135	499	38	0	
15	0	0	0	0	544	481	135	501	38	0	
0	0	0	0	0	547	496	134	504	38	0	
1	0	0	0	0	524	515	133	509	38	0	
2	0	0	0	0	515	533	133	524	38	0	
3	0	0	0	0	508	548	133	519	38	0	
4	0	0	0	0	490	557	134	520	38	0	
5	0	0	0	0	492	562	134	519	38	0	
6	0	0	0	0	462	560	134	518	38	0	
7	0	0	0	0	464	550	134	514	38	0	
8	0	0	0	0	477	535	134	509	38	0	
9	0	0	0	0	494	520	135	504	38	0	
10	0	0	0	0	499	504	134	499	38	0	
11	0	0	0	0	509	489	134	496	38	0	
12	0	0	0	0	526	479	134	493	38	0	
13	0	0	0	0	534	472	134	493	38	0	
14	0	0	0	0	543	472	134	491	38	0	
15	0	0	0	0	547	479	135	494	38	0	
0	0	0	0	0	545	489	134	496	38	0	
1	0	0	0	0	532	504	134	502	38	0	
2	0	0	0	0	517	519	134	513	38	0	
3	0	0	0	0	509	530	134	522	38	0	
4	0	0	0	0	501	541	134	527	38	0	
5	0	0	0	0	486	550	134	532	38	0	
6	0	0	0	0	478	555	133	530	38	0	
7	0	0	0	0	464	552	133	528	38	0	
8	0	0	0	0	473	546	133	524	38	0	
9	0	0	0	0	478	533	133	519	38	0	
10	0	0	0	0	494	518	134	511	38	0	
11	0	0	0	0	498	503	134	505	38	0	
12	0	0	0	0	525	491	135	502	38	0	
13	0	0	0	0	526	481	135	499	38	0	
14	0	0	0	0	540	477	135	497	38	0	
15	0	0	0	0	553	479	134	497	38	0	
0	0	0	0	0	543	487	134	500	38	0	
1	0	0	0	0	540	500	134	503	38	0	
2	0	0	0	0	534	516	134	510	38	0	
3	0	0	0	0	524	532	134	517	38	0	
4	0	0	0	0	509	546	134	522	38	0	
5	0	0	0	0	492	557	134	524	38	0	
6	0	0	0	0	485	561	134	523	38	0	
7	0	0	0	0	467	563	134	521	38	0	
8	0	0	0	0	466	556	133	518	38	0	
9	0	0	0	0	472	544	134	514	38	0	
10	0	0	0	0	483	528	134	509	38	0	
11	0	0	0	0	493	511	134	504	38	0	
12	0	0	0	0	507	495	134	502	38	0	
13	0	0	0	0	519	484	135	499	38	0	
14	0	0	0	0	523	476	135	497	38	0	
15	0	0	0	0	539	473	135	497	38	0	
0	0	0	0	0	546	477	135	498	38	0	
1	0	0	0	0	541	485	135	499	38	0	
2	0	0	0	0	540	497	135	505	38	0	
3	0	0	0	0	532	511	134	509	38	0	
4	0	0	0	0	513	523	135	517	38	0	
5	0	0	0	0	497	534	134	523	38	0	
6	0	0	0	0	494	542	133	525	38	0	
7	0	0	0	0	487	545	133	522	38	0	
8	0	0	0	0	467	542	133	519	38	0	
9	0	0	0	0	467	533	133	515	38	0	
10	0	0	0	0	478	519	134	512	38	0	
11	0	0	0	0	486	503	134	508	38	0	
12	0	0	0	0	493	487	135	504	38	0	
13	0	0	0	0	507	472	135	500	38	0	
14	0	0	0	0	522	460	135	498	38	0	
15	0	0	0	0	526	453	135	496	38	0	
0	0	0	0	0	539	453	135	496	38	0	
1	0	0	0	0	553	460	135	504	38	0	
2	0	0	0	0	543	471	135	502	38	0	
3	0	0	0	0	536	486	134	505	38	0	
4	0	0	0	0	523	503	134	509	38	0	
5	0	0	0	0	512	518	133	512	38	0	
6	0	0	0	0	497	528	134	515	38	0	
7	0	0	0	0	487	533	134	516	38	0	
8	0	0	0	0	484	537	135	518	38	0	
9	0	0	0	0	469	532	135	515	38	0	
10	0	0	0	0	475	525	135	512	38	0	
11	0	0	0	0	476	513	135	508	38	0	
12	0	0	0	0	491	497	134	504	38	0	
13	0	0	0	0	496	484	135	502	38	0	
14	0	0	0	0	512	473	135	500	38	0	
15	0	0	0	0	534	464	135	498	38	0	
0	0	0	0	0	535	459	135	496	38	0	
1	0	0	0	0	549	459	135	495	38	0	
2	0	0	0	0	544	466	135	497	38	0	
3	0	0	0	0	539	478	135	502	38	0	
4	0	0	0	0	529	495	135	519	38	0	
5	0	0	0	0	522	512	134	514	38	0	
6	0	0	0	0	510	528	133	518	38	0	
7	0	0	0	0	495	539	133	524	38	0	
8	0	0	0	0	487	545	133	527	38	0	
9	0	0	0	0	469	544	134	527	38	0	
10	0	0	0	0	470	536	134	524	38	0	
11	0	0	0	0	475	524	134	519	38	0	
12	0	0	0	0	482	509	134	514	38	0	
13	0	0	0	0	493	493	135	510	38	0	
14	0	0	0	0	502	479	135	505	38	0	
15	0	0	0	0	514	469	134	504	38	0	
0	0	0	0	0	525	463	134	501	38	0	
1	0	0	0	0	544	463	134	500	38	0	
2	0	0	0	0	553	472	134	501	38	0	
3	0	0	0	0	544	482	134	504	38	0	
4	0	0	0	0	541	494	134	508	38	0	
5	0	0	0	0	528	510	133	512	38	0	
6	0	0	0	0	513	526	134	519	38	0	
7	0	0	0	0	496	539	134	525	38	0	
8	0	0	0	0	487	549	134	528	38	0	
9	0	0	0	0	478	554	134	530	38	0	
10	0	0	0	0	465	551	134	527	38	0	
11	0	0	0	0	477	545	135	523	38	0	
12	0	0	0	0	476	533	134	515	38	0	
13	0	0	0	0	496	519	134	511	38	0	
14	0	0	0	0	496	503	134	505	38	0	
15	0	0	0	0	513	489	134	502	38	0	
0	0	0	0	0	518	479	134	500	38	0	
1	0	0	0	0	530	473	134	500	38	0	
2	0	0	0	0	541	473	134	501	38	0	
3	0	0	0	0	543	482	134	504	38	0	
4	0	0	0	0	538	493	134	508	38	0	
5	0	0	0	0	541	508	134	521	38	0	
6	0	0	0	0	520	525	134	533	38	0	
7	0	0	0	0	506	540	134	538	38	0	
8	0	0	0	0	499	554	134	537	38	0	
9	0	0	0	0	497	561	134	536	38	0	
10	0	0	0	0	476	566	134	534	38	0	
11	0	0	0	0	463	561	134	527	38	0	
12	0	0	0	0	472	552	135	522	38	0	
13	0	0	0	0	476	537	135	515	38	0	
14	0	0	0	0	496	520	135	511	38	0	
15	0	0	0	0	504	505	135	507	38	0	
0	0	0	0	0	516	495	135	503	38	0	
1	0	0	0	0	526	487	134	502	38	0	
2	0	0	0	0	527	483	134	502	38	0	
3	0	0	0	0	555	485	134	503	38	0	
4	0	0	0	0	544	494	134	507	38	0	
5	0	0	0	0	541	506	134	512	38	0	
6	0	0	0	0	529	521	134	519	38	0	
7	0	0	0	0	519	537	134	525	38	0	
8	0	0	0	0	511	550	134	529	38	0	
9	0	0	0	0	491	560	134	529	38	0	
10	0	0	0	0	487	567	134	527	38	0	
11	0	0	0	0	473	568	134	523	38	0	
12	0	0	0	0	468	561	133	526	38	0	
13	0	0	0	0	476	549	133	514	38	0	
14	0	0	0	0	484	533	134	510	38	0	
15	0	0	0	0	488	516	134	505	38	0	
0	0	0	0	0	507	500	134	502	38	0	
1	0	0	0	0	517	487	134	499	38	0	
2	0	0	0	0	534	479	135	497	38	0	
3	0	0	0	0	531	477	135	496	38	0	
4	0	0	0	0	550	482	135	497	38	0	
5	0	0	0	0	544	493	135	499	38	0	
6	0	0	0	0	536	507	134	503	38	0	
7	0	0	0	0	523	522	133	508	38	0	
8	0	0	0	0	514	538	133	514	38	0	
9	0	0	0	0	505	550	134	519	38	0	
10	0	0	0	0	486	559	134	521	38	0	
11	0	0	0	0	484	563	134	522	38	0	
12	0	0	0	0	464	561	134	521	38	0	
13	0	0	0	0	473	553	134	518	38	0	
14	0	0	0	0	481	540	135	513	38	0	
15	0	0	0	0	487	526	134	510	38	0	
0	0	0	0	0	498	511	134	504	38	0	
1	0	0	0	0	510	496	134	500	38	0	
2	0	0	0	0	521	485	135	497	38	0	
3	0	0	0	0	534	479	135	496	38	0	
4	0	0	0	0	552	478	135	496	38	0	
5	0	0	0	0	543	483	135	500	38	0	
6	0	0	0	0	545	492	135	505	38	0	
7	0	0	0	0	541	508	134	509	38	0	
8	0	0	0	0	527	524	133	517	38	0	
9	0	0	0	0	512	535	133	525	38	0	
10	0	0	0	0	496	543	133	528	38	0	
11	0	0	0	0	484	544	133	528	38	0	
12	0	0	0	0	481	543	133	526	38	0	
13	0	0	0	0	465	535	133	522	38	0	
14	0	0	0	0	475	523	133	518	38	0	
15	0	0	0	0	480	510	134	513	38	0	
0	0	0	0	0	495	495	134	509	38	0	
1	0	0	0	0	506	483	134	507	38	0	
2	0	0	0	0	516	475	135	503	38	0	
3	0	0	0	0	528	470	135	500	38	0	
4	0	0	0	0	525	470	135	500	38	0	
5	0	0	0	0	551	477	135	501	38	0	
6	0	0	0	0	543	489	135	503	38	0	
7	0	0	0	0	542	502	135	506	38	0	
8	0	0	0	0	525	518	135	509	38	0	
9	0	0	0	0	519	534	134	512	38	0	
10	0	0	0	0	511	545	134	515	38	0	
11	0	0	0	0	484	556	134	518	38	0	
12	0	0	0	0	479	560	134	517	38	0	
13	0	0	0	0	471	558	134	516	38	0	
14	0	0	0	0	470	548	134	519	38	0	
15	0	0	0	0	483	536	134	513	38	0	
0	0	0	0	0	482	523	134	510	38	0	
1	0	0	0	0	491	510	133	508	38	0	
2	0	0	0	0	505	499	134	504	38	0	
3	0	0	0	0	523	491	134	499	38	0	
4	0	0	0	0	516	486	134	496	38	0	
5	0	0	0	0	550	485	135	496	38	0	
6	0	0	0	0	556	491	135	496	38	0	
7	0	0	0	0	542	500	135	500	38	0	
8	0	0	0	0	545	512	135	505	38	0	
9	0	0	0	0	524	524	134	512	38	0	
10	0	0	0	0	512	535	133	518	38	0	
11	0	0	0	0	505	545	133	524	38	0	
12	0	0	0	0	487	554	133	525	38	0	
13	0	0	0	0	485	559	134	524	38	0	
14	0	0	0	0	466	557	134	522	38	0	
15	0	0	0	0	476	551	134	520	38	0	
0	0	0	0	0	478	542	134	516	38	0	
1	0	0	0	0	487	527	135	512	38	0	
2	0	0	0	0	502	509	135	507	38	0	
3	0	0	0	0	512	494	135	503	38	0	
4	0	0	0	0	520	483	134	502	38	0	
5	0	0	0	0	525	477	134	502	38	0	
6	0	0	0	0	547	477	134	503	38	0	
7	0	0	0	0	555	484	134	504	38	0	
8	0	0	0	0	537	496	134	507	38	0	
9	0	0	0	0	532	511	133	511	38	0	
10	0	0	0	0	517	525	133	515	38	0	
11	0	0	0	0	512	539	133	518	38	0	
12	0	0	0	0	493	551	133	519	38	0	
13	0	0	0	0	494	557	134	520	38	0	
14	0	0	0	0	473	561	134	518	38	0	
15	0	0	0	0	464	556	134	516	38	0	
0	0	0	0	0	472	546	134	515	38	0	
1	0	0	0	0	470	530	134	513	38	0	
2	0	0	0	0	491	515	134	509	38	0	
3	0	0	0	0	502	501	135	505	38	0	
4	0	0	0	0	515	488	135	502	38	0	
5	0	0	0	0	528	480	135	499	38	0	
6	0	0	0	0	532	476	135	500	38	0	
7	0	0	0	0	552	479	135	500	38	0	
8	0	0	0	0	541	488	135	503	38	0	
9	0	0	0	0	542	502	135	506	38	0	
10	0	0	0	0	532	518	135	512	38	0	
11	0	0	0	0	520	534	134	519	38	0	
12	0	0	0	0	510	547	134	522	38	0	
13	0	0	0	0	493	558	134	526	38	0	
14	0	0	0	0	478	561	133	526	38	0	
15	0	0	0	0	471	558	133	524	38	0	
0	0	0	0	0	479	550	133	521	38	0	
1	0	0	0	0	480	539	134	517	38	0	
2	0	0	0	0	479	526	133	513	38	0	
3	0	0	0	0	492	511	134	508	38	0	
4	0	0	0	0	507	498	134	516	38	0	
5	0	0	0	0	520	487	135	514	38	0	
6	0	0	0	0	523	479	135	506	38	0	
7	0	0	0	0	541	477	135	501	38	0	
8	0	0	0	0	548	482	135	500	38	0	
9	0	0	0	0	544	492	135	504	38	0	
10	0	0	0	0	542	506	135	507	38	0	
11	0	0	0	0	530	521	134	513	38	0	
12	0	0	0	0	516	536	133	522	38	0	
13	0	0	0	0	500	549	133	526	38	0	
14	0	0	0	0	494	560	133	529	38	0	
15	0	0	0	0	487	566	133	529	38	0	
0	0	0	0	0	466	565	133	527	38	0	
1	0	0	0	0	475	557	133	521	38	0	
2	0	0	0	0	483	544	133	517	38	0	
3	0	0	0	0	483	530	134	512	38	0	
4	0	0	0	0	497	515	134	507	38	0	
5	0	0	0	0	505	501	134	504	38	0	
6	0	0	0	0	522	491	134	501	38	0	
7	0	0	0	0	531	485	134	500	38	0	
8	0	0	0	0	551	486	134	500	38	0	
9	0	0	0	0	547	495	135	503	38	0	
10	0	0	0	0	543	508	134	506	38	0	
11	0	0	0	0	539	525	134	512	38	0	
12	0	0	0	0	523	541	134	520	38	0	
13	0	0	0	0	509	555	135	527	38	0	
14	0	0	0	0	498	566	134	529	38	0	
15	0	0	0	0	491	571	134	530	38	0	
0	0	0	0	0	470	572	133	529	38	0	
1	0	0	0	0	465	565	133	525	38	0	
2	0	0	0	0	474	553	133	522	38	0	
3	0	0	0	0	477	537	134	517	38	0	
4	0	0	0	0	491	520	134	510	38	0	
5	0	0	0	0	508	506	135	507	38	0	
6	0	0	0	0	520	494	135	502	38	0	
7	0	0	0	0	531	487	135	499	38	0	
8	0	0	0	0	524	483	135	498	38	0	
9	0	0	0	0	546	486	135	499	38	0	
10	0	0	0	0	539	495	135	502	38	0	
11	0	0	0	0	546	508	134	507	38	0	
12	0	0	0	0	532	524	134	514	38	0	
13	0	0	0	0	510	540	133	522	38	0	
14	0	0	0	0	508	555	133	529	38	0	
15	0	0	0	0	492	567	133	535	38	0	
0	0	0	0	0	496	571	134	537	38	0	
1	0	0	0	0	470	571	134	543	38	0	
2	0	0	0	0	475	564	134	533	38	0	
3	0	0	0	0	471	553	135	527	38	0	
4	0	0	0	0	485	540	135	522	38	0	
5	0	0	0	0	496	525	135	517	38	0	
6	0	0	0	0	502	510	134	512	38	0	
7	0	0	0	0	511	498	134	508	38	0	
8	0	0	0	0	527	492	134	505	38	0	
9	0	0	0	0	542	490	135	501	38	0	
10	0	0	0	0	551	496	135	502	38	0	
11	0	0	0	0	545	505	135	505	38	0	
12	0	0	0	0	540	519	135	509	38	0	
13	0	0	0	0	531	534	133	513	38	0	
14	0	0	0	0	521	547	133	517	38	0	
15	0	0	0	0	498	559	133	523	38	0	
0	0	0	0	0	487	567	134	527	38	0	
1	0	0	0	0	488	569	134	527	38	0	
2	0	0	0	0	462	566	134	526	38	0	
3	0	0	0	0	478	558	134	520	38	0	
4	0	0	0	0	478	546	135	515	38	0	
5	0	0	0	0	482	531	135	509	38	0	
6	0	0	0	0	496	517	134	504	38	0	
7	0	0	0	0	516	505	134	501	38	0	
8	0	0	0	0	519	496	134	500	38	0	
9	0	0	0	0	527	491	134	499	38	0	
10	0	0	0	0	543	492	134	500	38	0	
11	0	0	0	0	547	500	134	503	38	0	
12	0	0	0	0	545	511	134	508	38	0	
13	0	0	0	0	536	525	134	513	38	0	
14	0	0	0	0	524	540	134	518	38	0	
15	0	0	0	0	508	555	134	521	38	0	
0	0	0	0	0	491	566	133	523	38	0	
1	0	0	0	0	488	572	134	523	38	0	
2	0	0	0	0	471	575	134	521	38	0	
3	0	0	0	0	469	569	134	516	38	0	
4	0	0	0	0	478	559	134	517	38	0	
5	0	0	0	0	478	545	134	509	38	0	
6	0	0	0	0	495	531	134	504	38	0	
7	0	0	0	0	505	514	134	500	38	0	
8	0	0	0	0	512	499	134	495	38	0	
9	0	0	0	0	524	490	134	494	38	0	
10	0	0	0	0	525	484	134	494	38	0	
11	0	0	0	0	557	485	134	495	38	0	
12	0	0	0	0	544	493	134	497	38	0	
13	0	0	0	0	545	502	134	501	38	0	
14	0	0	0	0	529	514	134	507	38	0	
15	0	0	0	0	512	526	134	513	38	0	
0	0	0	0	0	501	539	134	519	38	0	
1	0	0	0	0	488	548	134	524	38	0	
2	0	0	0	0	492	553	134	525	38	0	
3	0	0	0	0	469	553	134	524	38	0	
4	0	0	0	0	469	547	135	524	38	0	
5	0	0	0	0	476	537	134	517	38	0	
6	0	0	0	0	486	523	135	512	38	0	
7	0	0	0	0	492	508	134	506	38	0	
8	0	0	0	0	505	493	134	503	38	0	
9	0	0	0	0	519	482	134	499	38	0	
10	0	0	0	0	531	475	135	498	38	0	
11	0	0	0	0	542	471	135	498	38	0	
12	0	0	0	0	550	475	135	500	38	0	
13	0	0	0	0	544	484	135	504	38	0	
14	0	0	0	0	547	499	135	512	38	0	
15	0	0	0	0	527	514	134	518	38	0	
0	0	0	0	0	506	531	134	523	38	0	
1	0	0	0	0	491	544	133	525	38	0	
2	0	0	0	0	491	553	133	527	38	0	
3	0	0	0	0	492	558	133	529	38	0	
4	0	0	0	0	471	557	133	528	38	0	
5	0	0	0	0	465	549	133	525	38	0	
6	0	0	0	0	474	537	134	520	38	0	
7	0	0	0	0	479	520	135	515	38	0	
8	0	0	0	0	497	504	135	523	38	0	
9	0	0	0	0	516	491	135	504	38	0	
10	0	0	0	0	522	482	135	499	38	0	
11	0	0	0	0	529	476	135	496	38	0	
12	0	0	0	0	550	476	135	495	38	0	
13	0	0	0	0	546	483	135	496	38	0	
14	0	0	0	0	540	493	135	500	38	0	
15	0	0	0	0	527	506	134	504	38	0	
0	0	0	0	0	527	520	134	508	38	0	
1	0	0	0	0	507	534	134	512	38	0	
2	0	0	0	0	496	546	134	514	38	0	
3	0	0	0	0	492	554	134	516	38	0	
4	0	0	0	0	476	556	134	518	38	0	
5	0	0	0	0	469	551	134	515	38	0	
6	0	0	0	0	481	542	134	513	38	0	
7	0	0	0	0	475	526	135	510	38	0	
8	0	0	0	0	490	508	135	508	38	0	
9	0	0	0	0	496	490	135	505	38	0	
10	0	0	0	0	519	475	135	503	38	0	
11	0	0	0	0	531	465	135	502	38	0	
12	0	0	0	0	527	459	135	501	38	0	
13	0	0	0	0	553	457	135	499	38	0	
14	0	0	0	0	542	462	135	502	38	0	
15	0	0	0	0	536	471	134	507	38	0	
0	0	0	0	0	531	487	134	515	38	0	
1	0	0	0	0	523	504	134	522	38	0	
2	0	0	0	0	507	522	134	527	38	0	
3	0	0	0	0	494	536	134	528	38	0	
4	0	0	0	0	487	545	133	527	38	0	
5	0	0	0	0	470	547	133	525	38	0	
6	0	0	0	0	473	540	134	523	38	0	
7	0	0	0	0	475	527	134	519	38	0	
8	0	0	0	0	480	510	134	514	38	0	
9	0	0	0	0	492	495	135	510	38	0	
10	0	0	0	0	513	479	135	507	38	0	
11	0	0	0	0	522	467	134	504	38	0	
12	0	0	0	0	527	458	134	500	38	0	
13	0	0	0	0	539	454	135	499	38	0	
14	0	0	0	0	552	459	135	499	38	0	
15	0	0	0	0	543	470	135	502	38	0	
0	0	0	0	0	534	483	135	504	38	0	
1	0	0	0	0	525	499	134	510	38	0	
2	0	0	0	0	509	514	134	516	38	0	
3	0	0	0	0	500	527	134	519	38	0	
4	0	0	0	0	481	537	134	522	38	0	
5	0	0	0	0	494	542	135	523	38	0	
6	0	0	0	0	466	540	134	521	38	0	
7	0	0	0	0	479	531	134	519	38	0	
8	0	0	0	0	472	519	134	513	38	0	
9	0	0	0	0	485	504	135	509	38	0	
10	0	0	0	0	499	490	135	505	38	0	
11	0	0	0	0	511	476	135	500	38	0	
12	0	0	0	0	528	465	135	500	38	0	
13	0	0	0	0	535	458	135	499	38	0	
14	0	0	0	0	544	457	135	498	38	0	
15	0	0	0	0	545	464	135	498	38	0	
0	0	0	0	0	535	476	135	502	38	0	
1	0	0	0	0	539	492	135	511	38	0	
2	0	0	0	0	526	507	135	518	38	0	
3	0	0	0	0	512	521	134	524	38	0	
4	0	0	0	0	496	533	134	526	38	0	
5	0	0	0	0	489	540	134	527	38	0	
6	0	0	0	0	476	542	134	527	38	0	
7	0	0	0	0	465	537	134	525	38	0	
8	0	0	0	0	473	529	134	521	38	0	
9	0	0	0	0	475	517	135	515	38	0	
10	0	0	0	0	492	501	135	511	38	0	
11	0	0	0	0	500	487	135	507	38	0	
12	0	0	0	0	512	473	135	502	38	0	
13	0	0	0	0	528	465	135	498	38	0	
14	0	0	0	0	529	459	135	496	38	0	
15	0	0	0	0	554	459	134	497	38	0	
0	0	0	0	0	546	465	134	501	38	0	
1	0	0	0	0	544	474	134	504	38	0	
2	0	0	0	0	531	487	134	510	38	0	
3	0	0	0	0	520	500	134	516	38	0	
4	0	0	0	0	507	514	134	521	38	0	
5	0	0	0	0	493	525	134	524	38	0	
6	0	0	0	0	492	532	134	524	38	0	
7	0	0	0	0	468	536	134	524	38	0	
8	0	0	0	0	470	532	134	522	38	0	
9	0	0	0	0	473	525	135	519	38	0	
10	0	0	0	0	479	514	135	514	38	0	
11	0	0	0	0	492	501	135	508	38	0	
12	0	0	0	0	503	487	135	504	38	0	
13	0	0	0	0	516	477	134	502	38	0	
14	0	0	0	0	527	470	134	500	38	0	
15	0	0	0	0	537	467	134	500	38	0	
0	0	0	0	0	545	472	134	501	38	0	
1	0	0	0	0	544	480	134	505	38	0	
2	0	0	0	0	545	492	134	509	38	0	
3	0	0	0	0	526	505	134	516	38	0	
4	0	0	0	0	509	519	134	524	38	0	
5	0	0	0	0	502	532	134	537	38	0	
6	0	0	0	0	489	540	134	531	38	0	
7	0	0	0	0	489	544	134	531	38	0	
8	0	0	0	0	465	540	134	528	38	0	
9	0	0	0	0	475	529	134	524	38	0	
10	0	0	0	0	473	515	135	519	38	0	
11	0	0	0	0	486	499	135	511	38	0	
12	0	0	0	0	490	485	135	507	38	0	
13	0	0	0	0	509	472	135	504	38	0	
14	0	0	0	0	522	463	135	503	38	0	
15	0	0	0	0	529	459	134	503	38	0	
0	0	0	0	0	550	458	134	503	38	0	
1	0	0	0	0	547	466	134	504	38	0	
2	0	0	0	0	539	478	135	516	38	0	
3	0	0	0	0	541	492	135	528	38	0	
4	0	0	0	0	523	508	135	533	38	0	
5	0	0	0	0	510	523	135	537	38	0	
6	0	0	0	0	496	536	135	538	38	0	
7	0	0	0	0	489	543	134	536	38	0	
8	0	0	0	0	473	546	134	534	38	0	
9	0	0	0	0	465	541	133	531	38	0	
10	0	0	0	0	478	533	134	527	38	0	
11	0	0	0	0	479	520	134	520	38	0	
12	0	0	0	0	495	503	134	515	38	0	
13	0	0	0	0	505	488	134	511	38	0	
14	0	0	0	0	513	475	134	504	38	0	
15	0	0	0	0	532	467	135	502	38	0	
0	0	0	0	0	527	464	135	499	38	0	
1	0	0	0	0	555	467	135	502	38	0	
2	0	0	0	0	540	479	135	503	38	0	
3	0	0	0	0	536	496	135	505	38	0	
4	0	0	0	0	536	517	135	510	38	0	
5	0	0	0	0	515	538	135	516	38	0	
6	0	0	0	0	506	555	134	519	38	0	
7	0	0	0	0	495	568	135	523	38	0	
8	0	0	0	0	488	575	135	523	38	0	
9	0	0	0	0	476	574	134	523	38	0	
10	0	0	0	0	473	565	133	520	38	0	
11	0	0	0	0	480	551	134	515	38	0	
12	0	0	0	0	480	535	134	510	38	0	
13	0	0	0	0	504	516	135	505	38	0	
14	0	0	0	0	500	497	135	503	38	0	
15	0	0	0	0	516	479	135	499	38	0	
0	0	0	0	0	524	468	135	498	38	0	
1	0	0	0	0	544	462	135	499	38	0	
2	0	0	0	0	544	464	135	500	38	0	
3	0	0	0	0	547	469	134	503	38	0	
4	0	0	0	0	540	480	134	505	38	0	
5	0	0	0	0	528	495	134	508	38	0	
6	0	0	0	0	518	508	134	514	38	0	
7	0	0	0	0	496	514	134	519	38	0	
8	0	0	0	0	492	516	134	527	38	0	
9	0	0	0	0	487	517	134	524	38	0	
10	0	0	0	0	467	512	135	523	38	0	
11	0	0	0	0	472	502	135	519	38	0	
12	0	0	0	0	470	489	135	514	38	0	
13	0	0	0	0	488	472	135	508	38	0	
14	0	0	0	0	492	454	135	504	38	0	
15	0	0	0	0	510	437	135	501	38	0	
0	0	0	0	0	520	424	135	499	38	0	
1	0	0	0	0	529	416	135	497	38	0	
2	0	0	0	0	551	412	135	497	38	0	
3	0	0	0	0	545	416	135	500	38	0	
4	0	0	0	0	536	426	135	503	38	0	
5	0	0	0	0	533	439	135	512	38	0	
6	0	0	0	0	518	455	134	521	38	0	
7	0	0	0	0	507	471	134	527	38	0	
8	0	0	0	0	506	485	134	529	38	0	
9	0	0	0	0	488	495	134	528	38	0	
10	0	0	0	0	484	500	134	527	38	0	
11	0	0	0	0	475	496	135	525	38	0	
12	0	0	0	0	473	490	135	522	38	0	
13	0	0	0	0	479	482	135	516	38	0	
14	0	0	0	0	489	468	135	509	38	0	
15	0	0	0	0	500	455	135	504	38	0	
0	0	0	0	0	515	446	135	499	38	0	
1	0	0	0	0	529	441	135	495	38	0	
2	0	0	0	0	533	441	135	494	38	0	
3	0	0	0	0	550	448	135	495	38	0	
4	0	0	0	0	543	460	134	499	38	0	
5	0	0	0	0	533	476	134	503	38	0	
6	0	0	0	0	530	492	135	506	38	0	
7	0	0	0	0	520	509	135	510	38	0	
8	0	0	0	0	508	524	135	514	38	0	
9	0	0	0	0	497	534	135	519	38	0	
10	0	0	0	0	487	540	135	521	38	0	
11	0	0	0	0	467	543	135	521	38	0	
12	0	0	0	0	472	538	135	519	38	0	
13	0	0	0	0	470	527	135	516	38	0	
14	0	0	0	0	478	513	135	511	38	0	
15	0	0	0	0	485	500	135	505	38	0	
0	0	0	0	0	506	489	135	499	38	0	
1	0	0	0	0	526	479	135	499	38	0	
2	0	0	0	0	524	473	135	502	38	0	
3	0	0	0	0	543	471	135	499	38	0	
4	0	0	0	0	550	478	135	499	38	0	
5	0	0	0	0	545	489	135	504	38	0	
6	0	0	0	0	537	504	135	507	38	0	
7	0	0	0	0	523	520	134	510	38	0	
8	0	0	0	0	513	537	134	514	38	0	
9	0	0	0	0	504	551	135	518	38	0	
10	0	0	0	0	487	561	135	525	38	0	
11	0	0	0	0	493	568	135	527	38	0	
12	0	0	0	0	467	566	134	525	38	0	
13	0	0	0	0	475	559	133	521	38	0	
14	0	0	0	0	476	546	134	516	38	0	
15	0	0	0	0	481	529	135	512	38	0	
0	0	0	0	0	497	512	135	507	38	0	
1	0	0	0	0	511	497	135	503	38	0	
2	0	0	0	0	529	485	135	499	38	0	
3	0	0	0	0	536	475	135	497	38	0	
4	0	0	0	0	543	471	135	498	38	0	
5	0	0	0	0	549	476	135	499	38	0	
6	0	0	0	0	540	488	134	502	38	0	
7	0	0	0	0	532	505	134	507	38	0	
8	0	0	0	0	523	523	134	514	38	0	
9	0	0	0	0	507	540	134	522	38	0	
10	0	0	0	0	491	555	135	524	38	0	
11	0	0	0	0	495	563	135	524	38	0	
12	0	0	0	0	477	566	134	524	38	0	
13	0	0	0	0	464	561	133	522	38	0	
14	0	0	0	0	470	551	134	517	38	0	
15	0	0	0	0	480	536	134	512	38	0	
0	0	0	0	0	490	519	134	506	38	0	
1	0	0	0	0	506	503	134	502	38	0	
2	0	0	0	0	507	490	134	497	38	0	
3	0	0	0	0	525	480	135	494	38	0	
4	0	0	0	0	534	473	135	494	38	0	
5	0	0	0	0	555	475	135	495	38	0	
6	0	0	0	0	542	483	135	497	38	0	
7	0	0	0	0	540	494	135	502	38	0	
8	0	0	0	0	531	510	135	511	38	0	
9	0	0	0	0	508	525	134	517	38	0	
10	0	0	0	0	507	540	134	523	38	0	
11	0	0	0	0	492	551	133	526	38	0	
12	0	0	0	0	484	558	134	525	38	0	
13	0	0	0	0	472	558	134	533	38	0	
14	0	0	0	0	472	550	134	519	38	0	
15	0	0	0	0	480	538	135	513	38	0	
0	0	0	0	0	480	521	135	508	38	0	
1	0	0	0	0	498	503	135	504	38	0	
2	0	0	0	0	511	486	135	502	38	0	
3	0	0	0	0	523	473	135	502	38	0	
4	0	0	0	0	527	467	134	500	38	0	
5	0	0	0	0	546	465	134	501	38	0	
6	0	0	0	0	549	473	134	503	38	0	
7	0	0	0	0	548	484	135	505	38	0	
8	0	0	0	0	544	499	135	513	38	0	
9	0	0	0	0	525	514	135	519	38	0	
10	0	0	0	0	512	528	134	527	38	0	
11	0	0	0	0	503	540	134	531	38	0	
12	0	0	0	0	487	547	134	532	38	0	
13	0	0	0	0	482	553	134	533	38	0	
14	0	0	0	0	457	551	134	529	38	0	
15	0	0	0	0	467	543	135	524	38	0	
0	0	0	0	0	484	531	135	519	38	0	
1	0	0	0	0	487	517	135	515	38	0	
2	0	0	0	0	495	503	135	510	38	0	
3	0	0	0	0	504	490	135	505	38	0	
4	0	0	0	0	520	479	135	502	38	0	
5	0	0	0	0	534	472	135	500	38	0	
6	0	0	0	0	551	470	135	500	38	0	
7	0	0	0	0	543	477	135	501	38	0	
8	0	0	0	0	540	489	134	505	38	0	
9	0	0	0	0	533	504	134	508	38	0	
10	0	0	0	0	526	519	134	513	38	0	
11	0	0	0	0	511	532	134	515	38	0	
12	0	0	0	0	495	543	134	519	38	0	
13	0	0	0	0	487	549	134	520	38	0	
14	0	0	0	0	481	552	135	520	38	0	
15	0	0	0	0	467	548	135	519	38	0	
0	0	0	0	0	475	539	135	516	38	0	
1	0	0	0	0	475	525	135	511	38	0	
2	0	0	0	0	496	510	134	507	38	0	
3	0	0	0	0	503	493	134	504	38	0	
4	0	0	0	0	511	478	135	512	38	0	
5	0	0	0	0	527	469	135	501	38	0	
6	0	0	0	0	530	463	135	501	38	0	
7	0	0	0	0	548	465	135	499	38	0	
8	0	0	0	0	543	475	135	503	38	0	
9	0	0	0	0	546	489	135	507	38	0	
10	0	0	0	0	532	505	134	515	38	0	
11	0	0	0	0	527	521	134	520	38	0	
12	0	0	0	0	514	537	134	526	38	0	
13	0	0	0	0	493	549	134	529	38	0	
14	0	0	0	0	479	556	133	528	38	0	
15	0	0	0	0	465	558	133	526	38	0	
0	0	0	0	0	466	552	134	522	38	0	
1	0	0	0	0	480	541	134	517	38	0	
2	0	0	0	0	480	525	134	512	38	0	
3	0	0	0	0	494	508	135	507	38	0	
4	0	0	0	0	501	492	135	504	38	0	
5	0	0	0	0	519	480	135	502	38	0	
6	0	0	0	0	535	474	135	500	38	0	
7	0	0	0	0	532	472	134	496	38	0	
8	0	0	0	0	546	480	134	497	38	0	
9	0	0	0	0	543	494	134	496	38	0	
10	0	0	0	0	541	508	135	500	38	0	
11	0	0	0	0	532	523	135	506	38	0	
12	0	0	0	0	512	539	135	514	38	0	
13	0	0	0	0	504	552	135	521	38	0	
14	0	0	0	0	493	560	135	524	38	0	
15	0	0	0	0	488	563	135	524	38	0	
0	0	0	0	0	466	558	135	522	38	0	
1	0	0	0	0	463	547	135	519	38	0	
2	0	0	0	0	471	532	135	515	38	0	
3	0	0	0	0	489	514	134	511	38	0	
4	0	0	0	0	488	497	134	507	38	0	
5	0	0	0	0	511	483	134	504	38	0	
6	0	0	0	0	531	475	134	503	38	0	
7	0	0	0	0	532	471	135	501	38	0	
8	0	0	0	0	539	472	134	501	38	0	
9	0	0	0	0	544	480	135	503	38	0	
10	0	0	0	0	543	492	135	505	38	0	
11	0	0	0	0	538	509	135	515	38	0	
12	0	0	0	0	518	524	135	537	38	0	
13	0	0	0	0	509	539	135	530	38	0	
14	0	0	0	0	501	550	134	537	38	0	
15	0	0	0	0	495	556	134	533	38	0	
0	0	0	0	0	478	560	135	532	38	0	
1	0	0	0	0	467	555	135	530	38	0	
2	0	0	0	0	477	545	135	530	38	0	
3	0	0	0	0	477	530	135	520	38	0	
4	0	0	0	0	492	515	135	515	38	0	
5	0	0	0	0	502	502	135	511	38	0	
6	0	0	0	0	514	490	135	506	38	0	
7	0	0	0	0	523	480	134	502	38	0	
8	0	0	0	0	526	476	135	499	38	0	
9	0	0	0	0	557	480	135	497	38	0	
10	0	0	0	0	551	491	135	499	38	0	
11	0	0	0	0	542	505	135	501	38	0	
12	0	0	0	0	527	523	135	505	38	0	
13	0	0	0	0	521	539	135	509	38	0	
14	0	0	0	0	502	552	135	514	38	0	
15	0	0	0	0	489	561	135	518	38	0	
0	0	0	0	0	487	565	135	517	38	0	
1	0	0	0	0	467	563	135	516	38	0	
2	0	0	0	0	467	555	135	515	38	0	
3	0	0	0	0	479	546	135	512	38	0	
4	0	0	0	0	484	535	135	508	38	0	
5	0	0	0	0	495	523	135	505	38	0	
6	0	0	0	0	501	511	135	503	38	0	
7	0	0	0	0	515	502	134	501	38	0	
8	0	0	0	0	527	497	134	498	38	0	
9	0	0	0	0	542	496	134	498	38	0	
10	0	0	0	0	554	501	135	499	38	0	
11	0	0	0	0	539	509	135	503	38	0	
12	0	0	0	0	552	522	135	513	38	0	
13	0	0	0	0	527	538	135	516	38	0	
14	0	0	0	0	507	554	135	523	38	0	
15	0	0	0	0	498	567	135	526	38	0	
0	0	0	0	0	484	577	135	530	38	0	
1	0	0	0	0	489	583	135	529	38	0	
2	0	0	0	0	469	580	135	526	38	0	
3	0	0	0	0	473	572	135	523	38	0	
4	0	0	0	0	472	559	135	517	38	0	
5	0	0	0	0	481	545	135	512	38	0	
6	0	0	0	0	497	529	135	508	38	0	
7	0	0	0	0	515	514	135	504	38	0	
8	0	0	0	0	530	503	134	502	38	0	
9	0	0	0	0	530	495	134	499	38	0	
10	0	0	0	0	548	495	134	499	38	0	
11	0	0	0	0	546	502	135	500	38	0	
12	0	0	0	0	540	513	135	502	38	0	
13	0	0	0	0	540	529	135	509	38	0	
14	0	0	0	0	527	546	135	519	38	0	
15	0	0	0	0	509	560	135	528	38	0	
0	0	0	0	0	493	570	134	530	38	0	
1	0	0	0	0	488	576	134	530	38	0	
2	0	0	0	0	477	581	135	529	38	0	
3	0	0	0	0	475	577	134	534	38	0	
4	0	0	0	0	472	568	134	520	38	0	
5	0	0	0	0	476	556	134	515	38	0	
6	0	0	0	0	488	540	134	507	38	0	
7	0	0	0	0	504	525	134	503	38	0	
8	0	0	0	0	514	512	134	499	38	0	
9	0	0	0	0	527	501	134	496	38	0	
10	0	0	0	0	529	493	134	494	38	0	
11	0	0	0	0	554	492	135	496	38	0	
12	0	0	0	0	545	497	135	500	38	0	
13	0	0	0	0	545	508	135	504	38	0	
14	0	0	0	0	528	524	135	508	38	0	
15	0	0	0	0	520	542	135	512	38	0	
0	0	0	0	0	504	557	135	515	38	0	
1	0	0	0	0	493	568	134	516	38	0	
2	0	0	0	0	487	575	133	518	38	0	
3	0	0	0	0	467	577	134	518	38	0	
4	0	0	0	0	473	568	134	516	38	0	
5	0	0	0	0	475	554	134	512	38	0	
6	0	0	0	0	484	538	135	510	38	0	
7	0	0	0	0	492	523	135	507	38	0	
8	0	0	0	0	509	507	135	503	38	0	
9	0	0	0	0	519	494	135	499	38	0	
10	0	0	0	0	527	485	135	498	38	0	
11	0	0	0	0	533	480	135	496	38	0	
12	0	0	0	0	543	482	135	497	38	0	
13	0	0	0	0	545	490	135	501	38	0	
14	0	0	0	0	541	500	135	508	38	0	
15	0	0	0	0	529	512	135	519	38	0	
0	0	0	0	0	517	527	135	531	38	0	
1	0	0	0	0	501	540	134	536	38	0	
2	0	0	0	0	486	548	134	541	38	0	
3	0	0	0	0	487	553	134	538	38	0	
4	0	0	0	0	466	551	134	534	38	0	
5	0	0	0	0	476	544	134	528	38	0	
6	0	0	0	0	473	533	135	521	38	0	
7	0	0	0	0	491	517	135	515	38	0	
8	0	0	0	0	495	501	135	510	38	0	
9	0	0	0	0	515	487	134	504	38	0	
10	0	0	0	0	530	475	134	502	38	0	
11	0	0	0	0	531	467	135	499	38	0	
12	0	0	0	0	545	465	135	500	38	0	
13	0	0	0	0	543	471	135	501	38	0	
14	0	0	0	0	537	480	135	505	38	0	
15	0	0	0	0	535	495	135	513	38	0	
0	0	0	0	0	524	512	135	522	38	0	
1	0	0	0	0	516	528	135	529	38	0	
2	0	0	0	0	500	540	134	532	38	0	
3	0	0	0	0	484	547	134	533	38	0	
4	0	0	0	0	472	552	134	531	38	0	
5	0	0	0	0	459	547	134	538	38	0	
6	0	0	0	0	478	535	135	523	38	0	
7	0	0	0	0	475	517	135	517	38	0	
8	0	0	0	0	487	497	135	512	38	0	
9	0	0	0	0	501	480	135	507	38	0	
10	0	0	0	0	515	465	135	502	38	0	
11	0	0	0	0	532	455	135	499	38	0	
12	0	0	0	0	533	451	135	497	38	0	
13	0	0	0	0	545	455	135	496	38	0	
14	0	0	0	0	545	467	135	496	38	0	
15	0	0	0	0	540	480	135	498	38	0	
0	0	0	0	0	530	498	135	505	38	0	
1	0	0	0	0	524	515	134	512	38	0	
2	0	0	0	0	510	530	134	520	38	0	
3	0	0	0	0	489	540	134	526	38	0	
4	0	0	0	0	485	545	135	539	38	0	
5	0	0	0	0	461	546	135	527	38	0	
6	0	0	0	0	473	536	135	524	38	0	
7	0	0	0	0	472	523	135	520	38	0	
8	0	0	0	0	484	508	135	515	38	0	
9	0	0	0	0	490	493	135	508	38	0	
10	0	0	0	0	512	480	135	503	38	0	
11	0	0	0	0	520	471	135	500	38	0	
12	0	0	0	0	524	464	135	499	38	0	
13	0	0	0	0	532	462	135	497	38	0	
14	0	0	0	0	544	468	135	498	38	0	
15	0	0	0	0	540	478	135	500	38	0	
0	0	0	0	0	546	491	134	504	38	0	
1	0	0	0	0	531	505	134	509	38	0	
2	0	0	0	0	518	522	134	514	38	0	
3	0	0	0	0	504	535	135	516	38	0	
4	0	0	0	0	486	544	135	519	38	0	
5	0	0	0	0	481	548	135	520	38	0	
6	0	0	0	0	469	545	135	518	38	0	
7	0	0	0	0	467	534	135	514	38	0	
8	0	0	0	0	467	520	135	509	38	0	
9	0	0	0	0	489	504	135	507	38	0	
10	0	0	0	0	494	489	134	502	38	0	
11	0	0	0	0	514	476	135	499	38	0	
12	0	0	0	0	526	467	135	495	38	0	
13	0	0	0	0	529	461	135	495	38	0	
14	0	0	0	0	547	462	135	494	38	0	
15	0	0	0	0	546	469	135	495	38	0	
0	0	0	0	0	536	481	135	497	38	0	
1	0	0	0	0	542	495	135	503	38	0	
2	0	0	0	0	524	510	135	508	38	0	
3	0	0	0	0	514	524	135	514	38	0	
4	0	0	0	0	496	536	135	518	38	0	
5	0	0	0	0	479	543	135	519	38	0	
6	0	0	0	0	479	545	134	519	38	0	
7	0	0	0	0	467	540	134	528	38	0	
8	0	0	0	0	475	529	134	515	38	0	
9	0	0	0	0	482	514	135	509	38	0	
10	0	0	0	0	493	499	135	504	38	0	
11	0	0	0	0	502	484	135	500	38	0	
12	0	0	0	0	513	471	135	498	38	0	
13	0	0	0	0	527	462	135	495	38	0	
14	0	0	0	0	530	458	135	495	38	0	
15	0	0	0	0	555	459	134	495	38	0	
0	0	0	0	0	546	467	135	499	38	0	
1	0	0	0	0	538	479	135	503	38	0	
2	0	0	0	0	532	494	135	508	38	0	
3	0	0	0	0	516	508	135	514	38	0	
4	0	0	0	0	504	519	135	519	38	0	
5	0	0	0	0	496	528	135	526	38	0	
6	0	0	0	0	483	533	135	528	38	0	
7	0	0	0	0	467	534	135	528	38	0	
8	0	0	0	0	474	529	135	526	38	0	
9	0	0	0	0	471	519	135	519	38	0	
10	0	0	0	0	486	507	135	511	38	0	
11	0	0	0	0	488	493	135	505	38	0	
12	0	0	0	0	507	480	135	499	38	0	
13	0	0	0	0	523	468	135	497	38	0	
14	0	0	0	0	528	460	135	495	38	0	
15	0	0	0	0	531	457	135	494	38	0	
0	0	0	0	0	540	462	135	496	38	0	
1	0	0	0	0	540	472	134	499	38	0	
2	0	0	0	0	538	487	134	505	38	0	
3	0	0	0	0	530	504	135	521	38	0	
4	0	0	0	0	510	521	135	518	38	0	
5	0	0	0	0	503	535	135	520	38	0	
6	0	0	0	0	495	546	135	523	38	0	
7	0	0	0	0	492	550	135	524	38	0	
8	0	0	0	0	457	545	135	522	38	0	
9	0	0	0	0	472	534	135	519	38	0	
10	0	0	0	0	474	519	135	516	38	0	
11	0	0	0	0	489	503	135	513	38	0	
12	0	0	0	0	496	486	135	509	38	0	
13	0	0	0	0	510	471	135	506	38	0	
14	0	0	0	0	523	462	135	506	38	0	
15	0	0	0	0	533	457	135	504	38	0	
0	0	0	0	0	545	459	135	502	38	0	
1	0	0	0	0	554	467	135	503	38	0	
2	0	0	0	0	543	479	135	506	38	0	
3	0	0	0	0	542	494	135	511	38	0	
4	0	0	0	0	518	510	135	517	38	0	
5	0	0	0	0	507	525	135	520	38	0	
6	0	0	0	0	491	538	135	523	38	0	
7	0	0	0	0	489	545	135	523	38	0	
8	0	0	0	0	475	551	135	525	38	0	
9	0	0	0	0	467	547	135	524	38	0	
10	0	0	0	0	477	537	135	521	38	0	
11	0	0	0	0	480	523	135	517	38	0	
12	0	0	0	0	492	506	135	512	38	0	
13	0	0	0	0	505	490	134	508	38	0	
14	0	0	0	0	512	479	134	504	38	0	
15	0	0	0	0	520	471	135	502	38	0	
0	0	0	0	0	529	467	135	500	38	0	
1	0	0	0	0	552	472	135	500	38	0	
2	0	0	0	0	540	482	135	501	38	0	
3	0	0	0	0	546	496	135	512	38	0	
4	0	0	0	0	528	511	135	519	38	0	
5	0	0	0	0	518	525	135	524	38	0	
6	0	0	0	0	508	537	135	527	38	0	
7	0	0	0	0	492	546	134	529	38	0	
8	0	0	0	0	491	549	134	528	38	0	
9	0	0	0	0	473	547	134	527	38	0	
10	0	0	0	0	474	540	135	523	38	0	
11	0	0	0	0	476	530	135	519	38	0	
12	0	0	0	0	476	516	135	514	38	0	
13	0	0	0	0	489	502	135	507	38	0	
14	0	0	0	0	504	490	135	503	38	0	
15	0	0	0	0	520	480	134	500	38	0	
0	0	0	0	0	528	475	135	499	38	0	
1	0	0	0	0	538	471	135	498	38	0	
2	0	0	0	0	551	475	135	500	38	0	
3	0	0	0	0	540	482	135	504	38	0	
4	0	0	0	0	541	494	135	509	38	0	
5	0	0	0	0	524	509	135	516	38	0	
6	0	0	0	0	518	523	134	520	38	0	
7	0	0	0	0	500	534	134	524	38	0	
8	0	0	0	0	487	542	135	526	38	0	
9	0	0	0	0	491	548	135	526	38	0	
10	0	0	0	0	468	547	135	523	38	0	
11	0	0	0	0	469	540	135	519	38	0	
12	0	0	0	0	470	528	135	514	38	0	
13	0	0	0	0	487	515	135	511	38	0	
14	0	0	0	0	493	499	135	508	38	0	
15	0	0	0	0	510	484	135	504	38	0	
0	0	0	0	0	522	472	134	500	38	0	
1	0	0	0	0	528	464	135	499	38	0	
2	0	0	0	0	551	460	135	497	38	0	
3	0	0	0	0	543	465	135	501	38	0	
4	0	0	0	0	547	475	135	502	38	0	
5	0	0	0	0	540	491	135	510	38	0	
6	0	0	0	0	524	507	135	518	38	0	
7	0	0	0	0	515	523	135	525	38	0	
8	0	0	0	0	497	538	135	530	38	0	
9	0	0	0	0	484	549	135	533	38	0	
10	0	0	0	0	479	553	135	533	38	0	
11	0	0	0	0	467	546	135	531	38	0	
12	0	0	0	0	476	535	134	526	38	0	
13	0	0	0	0	471	519	134	521	38	0	
14	0	0	0	0	491	503	135	518	38	0	
15	0	0	0	0	496	485	135	514	38	0	
0	0	0	0	0	521	470	135	509	38	0	
1	0	0	0	0	524	459	135	508	38	0	
2	0	0	0	0	527	454	135	507	38	0	
3	0	0	0	0	558	458	135	507	38	0	
4	0	0	0	0	547	469	135	507	38	0	
5	0	0	0	0	543	483	134	509	38	0	
6	0	0	0	0	530	501	134	513	38	0	
7	0	0	0	0	513	518	135	517	38	0	
8	0	0	0	0	508	533	135	520	38	0	
9	0	0	0	0	493	545	135	522	38	0	
10	0	0	0	0	478	551	135	525	38	0	
11	0	0	0	0	471	551	135	525	38	0	
12	0	0	0	0	472	544	135	522	38	0	
13	0	0	0	0	476	531	134	518	38	0	
14	0	0	0	0	485	516	134	511	38	0	
15	0	0	0	0	489	498	134	505	38	0	
0	0	0	0	0	508	483	135	502	38	0	
1	0	0	0	0	515	471	135	499	38	0	
2	0	0	0	0	531	463	135	499	38	0	
3	0	0	0	0	540	460	135	497	38	0	
4	0	0	0	0	551	465	135	499	38	0	
5	0	0	0	0	544	475	135	502	38	0	
6	0	0	0	0	544	487	135	507	38	0	
7	0	0	0	0	528	502	135	516	38	0	
8	0	0	0	0	517	519	135	534	38	0	
9	0	0	0	0	499	533	134	545	38	0	
10	0	0	0	0	495	543	134	548	38	0	
11	0	0	0	0	480	550	134	547	38	0	
12	0	0	0	0	462	547	134	543	38	0	
13	0	0	0	0	475	538	134	537	38	0	
14	0	0	0	0	473	524	135	530	38	0	
15	0	0	0	0	488	507	135	521	38	0	
0	0	0	0	0	501	490	135	514	38	0	
1	0	0	0	0	505	477	135	510	38	0	
2	0	0	0	0	526	467	135	504	38	0	
3	0	0	0	0	523	460	135	500	38	0	
4	0	0	0	0	544	457	135	498	38	0	
5	0	0	0	0	544	464	134	499	38	0	
6	0	0	0	0	536	475	134	500	38	0	
7	0	0	0	0	533	490	134	506	38	0	
8	0	0	0	0	529	506	134	513	38	0	
9	0	0	0	0	507	522	134	520	38	0	
10	0	0	0	0	498	535	134	524	38	0	
11	0	0	0	0	484	545	135	524	38	0	
12	0	0	0	0	478	551	135	524	38	0	
13	0	0	0	0	467	548	135	519	38	0	
14	0	0	0	0	478	540	135	515	38	0	
15	0	0	0	0	480	526	135	511	38	0	
0	0	0	0	0	494	511	135	507	38	0	
1	0	0	0	0	502	496	135	501	38	0	
2	0	0	0	0	518	483	135	498	38	0	
3	0	0	0	0	523	475	135	496	38	0	
4	0	0	0	0	526	471	135	496	38	0	
5	0	0	0	0	550	472	135	496	38	0	
6	0	0	0	0	544	480	135	500	38	0	
7	0	0	0	0	543	491	134	507	38	0	
8	0	0	0	0	529	505	134	513	38	0	
9	0	0	0	0	520	521	134	519	38	0	
10	0	0	0	0	511	534	135	524	38	0	
11	0	0	0	0	497	543	135	526	38	0	
12	0	0	0	0	484	549	135	527	38	0	
13	0	0	0	0	463	551	135	526	38	0	
14	0	0	0	0	472	544	135	521	38	0	
15	0	0	0	0	480	532	135	517	38	0	
0	0	0	0	0	477	517	135	512	38	0	
1	0	0	0	0	491	499	135	508	38	0	
2	0	0	0	0	507	484	135	505	38	0	
3	0	0	0	0	521	471	135	502	38	0	
4	0	0	0	0	525	463	135	499	38	0	
5	0	0	0	0	533	460	135	498	38	0	
6	0	0	0	0	546	466	135	509	38	0	
7	0	0	0	0	543	476	135	510	38	0	
8	0	0	0	0	545	491	135	503	38	0	
9	0	0	0	0	529	507	135	507	38	0	
10	0	0	0	0	511	523	135	512	38	0	
11	0	0	0	0	505	536	135	515	38	0	
12	0	0	0	0	489	546	135	519	38	0	
13	0	0	0	0	485	551	134	519	38	0	
14	0	0	0	0	472	550	134	520	38	0	
15	0	0	0	0	476	542	135	518	38	0	
0	0	0	0	0	477	529	135	513	38	0	
1	0	0	0	0	486	513	135	510	38	0	
2	0	0	0	0	491	494	135	507	38	0	
3	0	0	0	0	507	476	135	504	38	0	
4	0	0	0	0	521	460	135	501	38	0	
5	0	0	0	0	520	449	135	500	38	0	
6	0	0	0	0	545	446	135	498	38	0	
7	0	0	0	0	548	453	135	500	38	0	
8	0	0	0	0	540	466	135	503	38	0	
9	0	0	0	0	540	483	135	511	38	0	
10	0	0	0	0	523	503	134	519	38	0	
11	0	0	0	0	511	521	134	528	38	0	
12	0	0	0	0	494	536	134	530	38	0	
13	0	0	0	0	484	545	135	529	38	0	
14	0	0	0	0	477	549	135	529	38	0	
15	0	0	0	0	467	543	135	527	38	0	
0	0	0	0	0	478	534	135	522	38	0	
1	0	0	0	0	472	519	135	517	38	0	
2	0	0	0	0	493	505	135	510	38	0	
3	0	0	0	0	505	491	135	505	38	0	
4	0	0	0	0	510	479	135	501	38	0	
5	0	0	0	0	524	470	135	499	38	0	
6	0	0	0	0	531	462	135	499	38	0	
7	0	0	0	0	553	463	135	499	38	0	
8	0	0	0	0	540	471	135	504	38	0	
9	0	0	0	0	541	483	134	509	38	0	
10	0	0	0	0	537	498	134	513	38	0	
11	0	0	0	0	527	514	135	518	38	0	
12	0	0	0	0	505	528	135	522	38	0	
13	0	0	0	0	492	539	135	526	38	0	
14	0	0	0	0	489	545	135	527	38	0	
15	0	0	0	0	469	547	135	526	38	0	
0	0	0	0	0	468	541	135	524	38	0	
1	0	0	0	0	472	529	135	521	38	0	
2	0	0	0	0	484	515	135	513	38	0	
3	0	0	0	0	495	498	135	508	38	0	
4	0	0	0	0	501	483	135	502	38	0	
5	0	0	0	0	518	469	135	498	38	0	
6	0	0	0	0	532	460	135	496	38	0	
7	0	0	0	0	545	455	135	495	38	0	
8	0	0	0	0	551	463	135	495	38	0	
9	0	0	0	0	540	473	134	497	38	0	
10	0	0	0	0	537	488	135	500	38	0	
11	0	0	0	0	524	505	135	509	38	0	
12	0	0	0	0	519	521	135	518	38	0	
13	0	0	0	0	502	535	135	522	38	0	
14	0	0	0	0	494	543	135	525	38	0	
15	0	0	0	0	485	546	135	525	38	0	
0	0	0	0	0	465	540	135	524	38	0	
1	0	0	0	0	476	531	135	521	38	0	
2	0	0	0	0	468	519	135	514	38	0	
3	0	0	0	0	483	504	135	509	38	0	
