# OpenSignals Text File Format. Version 1
# {"98:D3:B1:FD:3D:90": {"position": 0, "device": "bitalino_rev", "device name": "98:D3:B1:FD:3D:90", "device connection": "BTH98:D3:B1:FD:3D:90", "sampling rate": 1000, "resolution": [4, 1, 1, 1, 1, 10, 10], "firmware version": 1281, "comments": "", "keywords": "", "mode": 0, "sync interval": 2, "date": "2022-4-7", "time": "17:30:24.208", "channels": [2, 3], "sensor": ["ECGBIT", "EDABITREV"], "label": ["A2", "A3"], "column": ["nSeq", "I1", "I2", "O1", "O2", "A2", "A3"], "special": [{}, {}], "digital IO": [0, 0, 1, 1]}}
# EndOfHeader
0	0	0	0	0	519	206	
1	0	0	0	0	519	207	
2	0	0	0	0	518	208	
3	0	0	0	0	516	206	
4	0	0	0	0	516	207	
5	0	0	0	0	516	207	
6	0	0	0	0	518	206	
7	0	0	0	0	519	207	
8	0	0	0	0	520	207	
9	0	0	0	0	522	206	
10	0	0	0	0	522	207	
11	0	0	0	0	522	207	
12	0	0	0	0	521	206	
13	0	0	0	0	520	207	
14	0	0	0	0	520	206	
15	0	0	0	0	519	207	
0	0	0	0	0	518	208	
1	0	0	0	0	516	207	
2	0	0	0	0	514	208	
3	0	0	0	0	513	206	
4	0	0	0	0	512	207	
5	0	0	0	0	513	207	
6	0	0	0	0	513	206	
7	0	0	0	0	513	207	
8	0	0	0	0	514	207	
9	0	0	0	0	515	207	
10	0	0	0	0	515	207	
11	0	0	0	0	514	207	
12	0	0	0	0	515	207	
13	0	0	0	0	516	207	
14	0	0	0	0	515	207	
15	0	0	0	0	513	207	
0	0	0	0	0	513	207	
1	0	0	0	0	513	207	
2	0	0	0	0	514	208	
3	0	0	0	0	513	207	
4	0	0	0	0	512	206	
5	0	0	0	0	511	207	
6	0	0	0	0	511	207	
7	0	0	0	0	511	206	
8	0	0	0	0	511	207	
9	0	0	0	0	510	207	
10	0	0	0	0	510	207	
11	0	0	0	0	508	207	
12	0	0	0	0	507	207	
13	0	0	0	0	507	208	
14	0	0	0	0	507	207	
15	0	0	0	0	508	207	
0	0	0	0	0	509	206	
1	0	0	0	0	510	207	
2	0	0	0	0	511	207	
3	0	0	0	0	510	206	
4	0	0	0	0	508	207	
5	0	0	0	0	508	207	
6	0	0	0	0	507	207	
7	0	0	0	0	507	207	
8	0	0	0	0	508	206	
9	0	0	0	0	508	207	
10	0	0	0	0	508	207	
11	0	0	0	0	508	206	
12	0	0	0	0	510	207	
13	0	0	0	0	510	207	
14	0	0	0	0	510	206	
15	0	0	0	0	511	207	
0	0	0	0	0	512	207	
1	0	0	0	0	512	207	
2	0	0	0	0	512	207	
3	0	0	0	0	512	208	
4	0	0	0	0	512	206	
5	0	0	0	0	513	207	
6	0	0	0	0	512	207	
7	0	0	0	0	512	207	
8	0	0	0	0	513	206	
9	0	0	0	0	515	207	
10	0	0	0	0	515	207	
11	0	0	0	0	515	206	
12	0	0	0	0	515	207	
13	0	0	0	0	516	207	
14	0	0	0	0	518	206	
15	0	0	0	0	517	207	
0	0	0	0	0	517	207	
1	0	0	0	0	518	208	
2	0	0	0	0	519	207	
3	0	0	0	0	519	206	
4	0	0	0	0	520	207	
5	0	0	0	0	520	208	
6	0	0	0	0	520	206	
7	0	0	0	0	520	207	
8	0	0	0	0	519	207	
9	0	0	0	0	520	206	
10	0	0	0	0	521	207	
11	0	0	0	0	521	207	
12	0	0	0	0	521	207	
13	0	0	0	0	522	207	
14	0	0	0	0	522	207	
15	0	0	0	0	522	207	
0	0	0	0	0	523	206	
1	0	0	0	0	522	208	
2	0	0	0	0	522	207	
3	0	0	0	0	523	207	
4	0	0	0	0	522	208	
5	0	0	0	0	522	207	
6	0	0	0	0	521	206	
7	0	0	0	0	522	207	
8	0	0	0	0	523	207	
9	0	0	0	0	524	207	
10	0	0	0	0	523	207	
11	0	0	0	0	523	206	
12	0	0	0	0	523	207	
13	0	0	0	0	523	207	
14	0	0	0	0	523	207	
15	0	0	0	0	523	208	
0	0	0	0	0	523	207	
1	0	0	0	0	523	207	
2	0	0	0	0	524	207	
3	0	0	0	0	524	207	
4	0	0	0	0	525	206	
5	0	0	0	0	524	207	
6	0	0	0	0	524	207	
7	0	0	0	0	523	206	
8	0	0	0	0	522	207	
9	0	0	0	0	521	207	
10	0	0	0	0	522	207	
11	0	0	0	0	523	207	
12	0	0	0	0	522	206	
13	0	0	0	0	522	207	
14	0	0	0	0	521	208	
15	0	0	0	0	521	206	
0	0	0	0	0	520	207	
1	0	0	0	0	520	207	
2	0	0	0	0	521	206	
3	0	0	0	0	520	207	
4	0	0	0	0	519	207	
5	0	0	0	0	518	207	
6	0	0	0	0	518	207	
7	0	0	0	0	519	206	
8	0	0	0	0	519	207	
9	0	0	0	0	519	207	
10	0	0	0	0	519	206	
11	0	0	0	0	519	207	
12	0	0	0	0	518	207	
13	0	0	0	0	518	206	
14	0	0	0	0	518	207	
15	0	0	0	0	517	206	
0	0	0	0	0	517	207	
1	0	0	0	0	516	207	
2	0	0	0	0	515	206	
3	0	0	0	0	514	207	
4	0	0	0	0	514	207	
5	0	0	0	0	514	206	
6	0	0	0	0	512	207	
7	0	0	0	0	512	207	
8	0	0	0	0	513	206	
9	0	0	0	0	515	207	
10	0	0	0	0	515	207	
11	0	0	0	0	514	207	
12	0	0	0	0	513	207	
13	0	0	0	0	513	207	
14	0	0	0	0	512	206	
15	0	0	0	0	511	207	
0	0	0	0	0	512	207	
1	0	0	0	0	511	206	
2	0	0	0	0	511	207	
3	0	0	0	0	512	207	
4	0	0	0	0	512	206	
5	0	0	0	0	512	207	
6	0	0	0	0	512	207	
7	0	0	0	0	512	207	
8	0	0	0	0	511	207	
9	0	0	0	0	511	206	
10	0	0	0	0	510	207	
11	0	0	0	0	510	207	
12	0	0	0	0	511	206	
13	0	0	0	0	510	207	
14	0	0	0	0	510	207	
15	0	0	0	0	509	207	
0	0	0	0	0	508	207	
1	0	0	0	0	507	207	
2	0	0	0	0	506	206	
3	0	0	0	0	506	207	
4	0	0	0	0	505	207	
5	0	0	0	0	505	206	
6	0	0	0	0	505	207	
7	0	0	0	0	505	207	
8	0	0	0	0	506	206	
9	0	0	0	0	504	207	
10	0	0	0	0	504	207	
11	0	0	0	0	504	207	
12	0	0	0	0	504	208	
13	0	0	0	0	504	207	
14	0	0	0	0	502	207	
15	0	0	0	0	502	208	
0	0	0	0	0	501	207	
1	0	0	0	0	499	207	
2	0	0	0	0	498	206	
3	0	0	0	0	499	207	
4	0	0	0	0	499	207	
5	0	0	0	0	499	207	
6	0	0	0	0	499	207	
7	0	0	0	0	500	206	
8	0	0	0	0	500	207	
9	0	0	0	0	501	207	
10	0	0	0	0	500	206	
11	0	0	0	0	499	207	
12	0	0	0	0	498	207	
13	0	0	0	0	498	206	
14	0	0	0	0	498	207	
15	0	0	0	0	498	207	
0	0	0	0	0	499	207	
1	0	0	0	0	498	207	
2	0	0	0	0	497	206	
3	0	0	0	0	497	207	
4	0	0	0	0	497	207	
5	0	0	0	0	497	207	
6	0	0	0	0	496	207	
7	0	0	0	0	495	207	
8	0	0	0	0	494	206	
9	0	0	0	0	494	207	
10	0	0	0	0	493	207	
11	0	0	0	0	492	206	
12	0	0	0	0	491	207	
13	0	0	0	0	491	207	
14	0	0	0	0	492	206	
15	0	0	0	0	491	207	
0	0	0	0	0	492	207	
1	0	0	0	0	492	206	
2	0	0	0	0	492	207	
3	0	0	0	0	492	207	
4	0	0	0	0	492	206	
5	0	0	0	0	493	207	
6	0	0	0	0	493	207	
7	0	0	0	0	493	206	
8	0	0	0	0	493	207	
9	0	0	0	0	493	207	
10	0	0	0	0	494	206	
11	0	0	0	0	494	207	
12	0	0	0	0	495	207	
13	0	0	0	0	495	206	
14	0	0	0	0	496	207	
15	0	0	0	0	496	207	
0	0	0	0	0	497	207	
1	0	0	0	0	497	207	
2	0	0	0	0	496	206	
3	0	0	0	0	495	207	
4	0	0	0	0	494	206	
5	0	0	0	0	494	207	
6	0	0	0	0	495	207	
7	0	0	0	0	496	207	
8	0	0	0	0	495	207	
9	0	0	0	0	494	208	
10	0	0	0	0	491	207	
11	0	0	0	0	491	206	
12	0	0	0	0	491	207	
13	0	0	0	0	491	206	
14	0	0	0	0	492	207	
15	0	0	0	0	492	207	
0	0	0	0	0	493	208	
1	0	0	0	0	494	207	
2	0	0	0	0	496	208	
3	0	0	0	0	496	207	
4	0	0	0	0	495	206	
5	0	0	0	0	496	207	
6	0	0	0	0	498	207	
7	0	0	0	0	498	207	
8	0	0	0	0	499	207	
9	0	0	0	0	500	207	
10	0	0	0	0	500	207	
11	0	0	0	0	500	207	
12	0	0	0	0	499	207	
13	0	0	0	0	499	207	
14	0	0	0	0	500	207	
15	0	0	0	0	499	206	
0	0	0	0	0	501	207	
1	0	0	0	0	502	208	
2	0	0	0	0	503	207	
3	0	0	0	0	504	207	
4	0	0	0	0	505	206	
5	0	0	0	0	506	207	
6	0	0	0	0	506	206	
7	0	0	0	0	507	207	
8	0	0	0	0	508	207	
9	0	0	0	0	508	207	
10	0	0	0	0	508	207	
11	0	0	0	0	508	207	
12	0	0	0	0	508	207	
13	0	0	0	0	508	206	
14	0	0	0	0	508	207	
15	0	0	0	0	508	206	
0	0	0	0	0	507	207	
1	0	0	0	0	507	207	
2	0	0	0	0	507	207	
3	0	0	0	0	507	207	
4	0	0	0	0	507	207	
5	0	0	0	0	506	207	
6	0	0	0	0	505	206	
7	0	0	0	0	504	207	
8	0	0	0	0	504	206	
9	0	0	0	0	504	207	
10	0	0	0	0	505	207	
11	0	0	0	0	505	207	
12	0	0	0	0	505	207	
13	0	0	0	0	506	206	
14	0	0	0	0	507	207	
15	0	0	0	0	507	206	
0	0	0	0	0	507	207	
1	0	0	0	0	508	206	
2	0	0	0	0	507	207	
3	0	0	0	0	506	206	
4	0	0	0	0	504	207	
5	0	0	0	0	502	207	
6	0	0	0	0	502	207	
7	0	0	0	0	501	207	
8	0	0	0	0	500	207	
9	0	0	0	0	500	207	
10	0	0	0	0	502	207	
11	0	0	0	0	502	207	
12	0	0	0	0	503	207	
13	0	0	0	0	503	207	
14	0	0	0	0	504	206	
15	0	0	0	0	506	207	
0	0	0	0	0	508	206	
1	0	0	0	0	509	207	
2	0	0	0	0	509	206	
3	0	0	0	0	508	207	
4	0	0	0	0	508	206	
5	0	0	0	0	508	207	
6	0	0	0	0	507	206	
7	0	0	0	0	507	207	
8	0	0	0	0	507	207	
9	0	0	0	0	507	207	
10	0	0	0	0	508	207	
11	0	0	0	0	507	207	
12	0	0	0	0	507	207	
13	0	0	0	0	507	206	
14	0	0	0	0	508	207	
15	0	0	0	0	507	206	
0	0	0	0	0	507	207	
1	0	0	0	0	506	207	
2	0	0	0	0	505	207	
3	0	0	0	0	505	207	
4	0	0	0	0	507	207	
5	0	0	0	0	508	207	
6	0	0	0	0	509	207	
7	0	0	0	0	509	207	
8	0	0	0	0	510	207	
9	0	0	0	0	510	207	
10	0	0	0	0	510	207	
11	0	0	0	0	511	207	
12	0	0	0	0	510	207	
13	0	0	0	0	510	207	
14	0	0	0	0	509	206	
15	0	0	0	0	509	207	
0	0	0	0	0	509	206	
1	0	0	0	0	509	207	
2	0	0	0	0	510	206	
3	0	0	0	0	509	207	
4	0	0	0	0	510	207	
5	0	0	0	0	509	208	
6	0	0	0	0	509	207	
7	0	0	0	0	510	208	
8	0	0	0	0	510	207	
9	0	0	0	0	510	206	
10	0	0	0	0	510	207	
11	0	0	0	0	508	206	
12	0	0	0	0	507	207	
13	0	0	0	0	508	206	
14	0	0	0	0	508	207	
15	0	0	0	0	509	207	
0	0	0	0	0	509	208	
1	0	0	0	0	509	207	
2	0	0	0	0	508	207	
3	0	0	0	0	508	207	
4	0	0	0	0	508	207	
5	0	0	0	0	509	207	
6	0	0	0	0	510	206	
7	0	0	0	0	509	207	
8	0	0	0	0	510	206	
9	0	0	0	0	510	207	
10	0	0	0	0	510	206	
11	0	0	0	0	510	207	
12	0	0	0	0	509	206	
13	0	0	0	0	509	207	
14	0	0	0	0	509	206	
15	0	0	0	0	508	207	
0	0	0	0	0	509	206	
1	0	0	0	0	508	207	
2	0	0	0	0	508	207	
3	0	0	0	0	508	206	
4	0	0	0	0	508	207	
5	0	0	0	0	508	206	
6	0	0	0	0	508	207	
7	0	0	0	0	509	207	
8	0	0	0	0	509	208	
9	0	0	0	0	508	207	
10	0	0	0	0	509	206	
11	0	0	0	0	508	207	
12	0	0	0	0	508	206	
13	0	0	0	0	507	207	
14	0	0	0	0	507	207	
15	0	0	0	0	508	208	
0	0	0	0	0	507	207	
1	0	0	0	0	507	206	
2	0	0	0	0	506	207	
3	0	0	0	0	507	206	
4	0	0	0	0	507	207	
5	0	0	0	0	506	206	
6	0	0	0	0	505	207	
7	0	0	0	0	506	207	
8	0	0	0	0	505	207	
9	0	0	0	0	505	207	
10	0	0	0	0	506	206	
11	0	0	0	0	507	207	
12	0	0	0	0	507	206	
13	0	0	0	0	507	207	
14	0	0	0	0	508	207	
15	0	0	0	0	509	207	
0	0	0	0	0	509	207	
1	0	0	0	0	508	206	
2	0	0	0	0	508	207	
3	0	0	0	0	509	206	
4	0	0	0	0	509	207	
5	0	0	0	0	510	206	
6	0	0	0	0	511	207	
7	0	0	0	0	510	207	
8	0	0	0	0	509	207	
9	0	0	0	0	508	207	
10	0	0	0	0	508	206	
11	0	0	0	0	508	207	
12	0	0	0	0	507	206	
13	0	0	0	0	508	207	
14	0	0	0	0	508	206	
15	0	0	0	0	507	207	
0	0	0	0	0	507	207	
1	0	0	0	0	506	206	
2	0	0	0	0	507	207	
3	0	0	0	0	509	206	
4	0	0	0	0	508	207	
5	0	0	0	0	508	207	
6	0	0	0	0	509	207	
7	0	0	0	0	510	207	
8	0	0	0	0	510	206	
9	0	0	0	0	509	207	
10	0	0	0	0	509	206	
11	0	0	0	0	508	207	
12	0	0	0	0	507	207	
13	0	0	0	0	507	206	
14	0	0	0	0	507	207	
15	0	0	0	0	507	206	
0	0	0	0	0	506	207	
1	0	0	0	0	506	206	
2	0	0	0	0	505	207	
3	0	0	0	0	504	206	
4	0	0	0	0	504	207	
5	0	0	0	0	504	206	
6	0	0	0	0	505	207	
7	0	0	0	0	505	207	
8	0	0	0	0	506	207	
9	0	0	0	0	506	207	
10	0	0	0	0	507	206	
11	0	0	0	0	509	207	
12	0	0	0	0	510	206	
13	0	0	0	0	510	207	
14	0	0	0	0	510	206	
15	0	0	0	0	509	207	
0	0	0	0	0	509	207	
1	0	0	0	0	509	206	
2	0	0	0	0	509	207	
3	0	0	0	0	510	206	
4	0	0	0	0	511	207	
5	0	0	0	0	512	206	
6	0	0	0	0	511	207	
7	0	0	0	0	510	207	
8	0	0	0	0	510	207	
9	0	0	0	0	511	207	
10	0	0	0	0	512	207	
11	0	0	0	0	514	206	
12	0	0	0	0	514	207	
13	0	0	0	0	512	206	
14	0	0	0	0	511	207	
15	0	0	0	0	512	207	
0	0	0	0	0	513	206	
1	0	0	0	0	512	207	
2	0	0	0	0	513	206	
3	0	0	0	0	512	207	
4	0	0	0	0	512	207	
5	0	0	0	0	512	205	
6	0	0	0	0	513	207	
7	0	0	0	0	513	206	
8	0	0	0	0	514	207	
9	0	0	0	0	515	206	
10	0	0	0	0	515	207	
11	0	0	0	0	514	206	
12	0	0	0	0	515	207	
13	0	0	0	0	515	207	
14	0	0	0	0	517	205	
15	0	0	0	0	518	207	
0	0	0	0	0	518	206	
1	0	0	0	0	518	207	
2	0	0	0	0	517	206	
3	0	0	0	0	515	207	
4	0	0	0	0	515	206	
5	0	0	0	0	515	207	
6	0	0	0	0	514	206	
7	0	0	0	0	515	207	
8	0	0	0	0	516	207	
9	0	0	0	0	516	206	
10	0	0	0	0	516	207	
11	0	0	0	0	516	206	
12	0	0	0	0	515	207	
13	0	0	0	0	515	206	
14	0	0	0	0	515	207	
15	0	0	0	0	515	207	
0	0	0	0	0	515	206	
1	0	0	0	0	514	207	
2	0	0	0	0	513	206	
3	0	0	0	0	514	207	
4	0	0	0	0	514	206	
5	0	0	0	0	514	207	
6	0	0	0	0	513	206	
7	0	0	0	0	513	207	
8	0	0	0	0	512	207	
9	0	0	0	0	512	207	
10	0	0	0	0	512	206	
11	0	0	0	0	512	207	
12	0	0	0	0	511	207	
13	0	0	0	0	511	205	
14	0	0	0	0	511	207	
15	0	0	0	0	510	206	
0	0	0	0	0	508	207	
1	0	0	0	0	507	206	
2	0	0	0	0	506	207	
3	0	0	0	0	505	207	
4	0	0	0	0	505	206	
5	0	0	0	0	505	207	
6	0	0	0	0	507	206	
7	0	0	0	0	509	207	
8	0	0	0	0	511	206	
9	0	0	0	0	511	206	
10	0	0	0	0	511	207	
11	0	0	0	0	512	206	
12	0	0	0	0	512	207	
13	0	0	0	0	512	206	
14	0	0	0	0	512	207	
15	0	0	0	0	513	206	
0	0	0	0	0	513	207	
1	0	0	0	0	513	207	
2	0	0	0	0	512	206	
3	0	0	0	0	512	207	
4	0	0	0	0	512	207	
5	0	0	0	0	514	206	
6	0	0	0	0	514	207	
7	0	0	0	0	514	206	
8	0	0	0	0	513	207	
9	0	0	0	0	513	206	
10	0	0	0	0	514	207	
11	0	0	0	0	515	207	
12	0	0	0	0	515	205	
13	0	0	0	0	515	207	
14	0	0	0	0	514	206	
15	0	0	0	0	514	207	
0	0	0	0	0	515	207	
1	0	0	0	0	516	206	
2	0	0	0	0	516	207	
3	0	0	0	0	515	205	
4	0	0	0	0	515	207	
5	0	0	0	0	513	206	
6	0	0	0	0	512	207	
7	0	0	0	0	512	206	
8	0	0	0	0	511	207	
9	0	0	0	0	511	206	
10	0	0	0	0	511	207	
11	0	0	0	0	512	207	
12	0	0	0	0	512	206	
13	0	0	0	0	511	207	
14	0	0	0	0	511	205	
15	0	0	0	0	511	207	
0	0	0	0	0	512	206	
1	0	0	0	0	511	207	
2	0	0	0	0	511	207	
3	0	0	0	0	511	205	
4	0	0	0	0	511	207	
5	0	0	0	0	511	206	
6	0	0	0	0	511	207	
7	0	0	0	0	510	206	
8	0	0	0	0	510	207	
9	0	0	0	0	510	206	
10	0	0	0	0	510	207	
11	0	0	0	0	511	207	
12	0	0	0	0	511	205	
13	0	0	0	0	511	207	
14	0	0	0	0	512	206	
15	0	0	0	0	512	207	
0	0	0	0	0	512	207	
1	0	0	0	0	513	205	
2	0	0	0	0	515	207	
3	0	0	0	0	516	207	
4	0	0	0	0	518	206	
5	0	0	0	0	519	207	
6	0	0	0	0	519	207	
7	0	0	0	0	519	206	
8	0	0	0	0	519	207	
9	0	0	0	0	518	207	
10	0	0	0	0	518	205	
11	0	0	0	0	517	207	
12	0	0	0	0	516	207	
13	0	0	0	0	515	206	
14	0	0	0	0	514	207	
15	0	0	0	0	514	206	
0	0	0	0	0	513	207	
1	0	0	0	0	513	207	
2	0	0	0	0	514	205	
3	0	0	0	0	514	207	
4	0	0	0	0	514	207	
5	0	0	0	0	512	205	
6	0	0	0	0	510	207	
7	0	0	0	0	508	206	
8	0	0	0	0	506	206	
9	0	0	0	0	504	207	
10	0	0	0	0	502	206	
11	0	0	0	0	499	207	
12	0	0	0	0	499	207	
13	0	0	0	0	497	205	
14	0	0	0	0	497	207	
15	0	0	0	0	498	207	
0	0	0	0	0	499	206	
1	0	0	0	0	498	207	
2	0	0	0	0	498	206	
3	0	0	0	0	497	205	
4	0	0	0	0	497	207	
5	0	0	0	0	496	207	
6	0	0	0	0	496	206	
7	0	0	0	0	498	207	
8	0	0	0	0	499	206	
9	0	0	0	0	500	206	
10	0	0	0	0	501	207	
11	0	0	0	0	501	206	
12	0	0	0	0	500	207	
13	0	0	0	0	501	207	
14	0	0	0	0	502	206	
15	0	0	0	0	503	207	
0	0	0	0	0	503	207	
1	0	0	0	0	503	206	
2	0	0	0	0	504	207	
3	0	0	0	0	504	207	
4	0	0	0	0	504	206	
5	0	0	0	0	504	207	
6	0	0	0	0	504	207	
7	0	0	0	0	504	205	
8	0	0	0	0	504	207	
9	0	0	0	0	504	207	
10	0	0	0	0	504	205	
11	0	0	0	0	505	207	
12	0	0	0	0	505	206	
13	0	0	0	0	506	206	
14	0	0	0	0	507	207	
15	0	0	0	0	507	205	
0	0	0	0	0	507	207	
1	0	0	0	0	507	206	
2	0	0	0	0	505	207	
3	0	0	0	0	504	207	
4	0	0	0	0	502	206	
5	0	0	0	0	502	207	
6	0	0	0	0	502	206	
7	0	0	0	0	504	207	
8	0	0	0	0	504	207	
9	0	0	0	0	504	206	
10	0	0	0	0	504	207	
11	0	0	0	0	506	206	
12	0	0	0	0	508	205	
13	0	0	0	0	506	207	
14	0	0	0	0	506	206	
15	0	0	0	0	506	207	
0	0	0	0	0	505	207	
1	0	0	0	0	505	206	
2	0	0	0	0	507	206	
3	0	0	0	0	508	207	
4	0	0	0	0	509	206	
5	0	0	0	0	508	206	
6	0	0	0	0	508	206	
7	0	0	0	0	507	206	
8	0	0	0	0	507	207	
9	0	0	0	0	507	207	
10	0	0	0	0	505	206	
11	0	0	0	0	504	207	
12	0	0	0	0	504	207	
13	0	0	0	0	504	206	
14	0	0	0	0	505	207	
15	0	0	0	0	506	207	
0	0	0	0	0	506	206	
1	0	0	0	0	507	207	
2	0	0	0	0	506	206	
3	0	0	0	0	507	205	
4	0	0	0	0	508	207	
5	0	0	0	0	508	206	
6	0	0	0	0	508	207	
7	0	0	0	0	508	207	
8	0	0	0	0	508	205	
9	0	0	0	0	507	206	
10	0	0	0	0	507	206	
11	0	0	0	0	508	207	
12	0	0	0	0	508	206	
13	0	0	0	0	509	206	
14	0	0	0	0	509	207	
15	0	0	0	0	510	207	
0	0	0	0	0	509	206	
1	0	0	0	0	508	207	
2	0	0	0	0	508	207	
3	0	0	0	0	508	206	
4	0	0	0	0	508	207	
5	0	0	0	0	507	207	
6	0	0	0	0	507	206	
7	0	0	0	0	507	207	
8	0	0	0	0	507	206	
9	0	0	0	0	508	206	
10	0	0	0	0	509	207	
11	0	0	0	0	508	206	
12	0	0	0	0	507	206	
13	0	0	0	0	506	206	
14	0	0	0	0	505	205	
15	0	0	0	0	504	207	
0	0	0	0	0	503	206	
1	0	0	0	0	502	205	
2	0	0	0	0	503	207	
3	0	0	0	0	503	206	
4	0	0	0	0	504	207	
5	0	0	0	0	504	207	
6	0	0	0	0	505	206	
7	0	0	0	0	506	207	
8	0	0	0	0	506	206	
9	0	0	0	0	507	205	
10	0	0	0	0	508	206	
11	0	0	0	0	508	206	
12	0	0	0	0	508	205	
13	0	0	0	0	508	206	
14	0	0	0	0	507	207	
15	0	0	0	0	505	205	
0	0	0	0	0	504	207	
1	0	0	0	0	504	207	
2	0	0	0	0	504	206	
3	0	0	0	0	505	207	
4	0	0	0	0	507	207	
5	0	0	0	0	507	205	
6	0	0	0	0	506	207	
7	0	0	0	0	506	206	
8	0	0	0	0	507	207	
9	0	0	0	0	508	207	
10	0	0	0	0	510	206	
11	0	0	0	0	511	207	
12	0	0	0	0	512	207	
13	0	0	0	0	515	205	
14	0	0	0	0	516	207	
15	0	0	0	0	515	205	
0	0	0	0	0	514	206	
1	0	0	0	0	513	206	
2	0	0	0	0	512	205	
3	0	0	0	0	513	207	
4	0	0	0	0	514	205	
5	0	0	0	0	515	206	
6	0	0	0	0	516	206	
7	0	0	0	0	517	207	
8	0	0	0	0	518	207	
9	0	0	0	0	520	206	
10	0	0	0	0	523	207	
11	0	0	0	0	526	206	
12	0	0	0	0	528	205	
13	0	0	0	0	531	206	
14	0	0	0	0	534	206	
15	0	0	0	0	536	205	
0	0	0	0	0	539	206	
1	0	0	0	0	543	206	
2	0	0	0	0	546	205	
3	0	0	0	0	548	206	
4	0	0	0	0	551	207	
5	0	0	0	0	552	205	
6	0	0	0	0	551	207	
7	0	0	0	0	549	206	
8	0	0	0	0	548	205	
9	0	0	0	0	546	206	
10	0	0	0	0	543	207	
11	0	0	0	0	540	205	
12	0	0	0	0	535	207	
13	0	0	0	0	529	206	
14	0	0	0	0	523	205	
15	0	0	0	0	517	206	
0	0	0	0	0	512	207	
1	0	0	0	0	507	206	
2	0	0	0	0	501	207	
3	0	0	0	0	496	207	
4	0	0	0	0	491	206	
5	0	0	0	0	483	207	
6	0	0	0	0	475	207	
7	0	0	0	0	469	206	
8	0	0	0	0	463	207	
9	0	0	0	0	458	207	
10	0	0	0	0	454	206	
11	0	0	0	0	449	207	
12	0	0	0	0	446	207	
13	0	0	0	0	443	206	
14	0	0	0	0	441	207	
15	0	0	0	0	437	207	
0	0	0	0	0	432	206	
1	0	0	0	0	428	207	
2	0	0	0	0	424	207	
3	0	0	0	0	423	206	
4	0	0	0	0	425	207	
5	0	0	0	0	428	206	
6	0	0	0	0	432	207	
7	0	0	0	0	436	207	
8	0	0	0	0	441	206	
9	0	0	0	0	445	207	
10	0	0	0	0	448	207	
11	0	0	0	0	451	206	
12	0	0	0	0	454	207	
13	0	0	0	0	458	207	
14	0	0	0	0	463	206	
15	0	0	0	0	468	207	
0	0	0	0	0	472	206	
1	0	0	0	0	477	206	
2	0	0	0	0	482	207	
3	0	0	0	0	486	206	
4	0	0	0	0	489	206	
5	0	0	0	0	492	206	
6	0	0	0	0	494	206	
7	0	0	0	0	497	206	
8	0	0	0	0	499	207	
9	0	0	0	0	500	206	
10	0	0	0	0	501	207	
11	0	0	0	0	503	206	
12	0	0	0	0	503	205	
13	0	0	0	0	504	206	
14	0	0	0	0	504	206	
15	0	0	0	0	505	205	
0	0	0	0	0	506	207	
1	0	0	0	0	507	206	
2	0	0	0	0	508	207	
3	0	0	0	0	510	207	
4	0	0	0	0	510	206	
5	0	0	0	0	511	207	
6	0	0	0	0	512	207	
7	0	0	0	0	514	206	
8	0	0	0	0	513	206	
9	0	0	0	0	513	206	
10	0	0	0	0	511	206	
11	0	0	0	0	510	206	
12	0	0	0	0	510	206	
13	0	0	0	0	511	206	
14	0	0	0	0	512	205	
15	0	0	0	0	512	206	
0	0	0	0	0	512	206	
1	0	0	0	0	512	205	
2	0	0	0	0	511	206	
3	0	0	0	0	510	206	
4	0	0	0	0	510	205	
5	0	0	0	0	510	206	
6	0	0	0	0	512	206	
7	0	0	0	0	512	206	
8	0	0	0	0	513	206	
9	0	0	0	0	514	205	
10	0	0	0	0	515	206	
11	0	0	0	0	516	206	
12	0	0	0	0	516	207	
13	0	0	0	0	516	207	
14	0	0	0	0	517	205	
15	0	0	0	0	517	206	
0	0	0	0	0	517	207	
1	0	0	0	0	515	207	
2	0	0	0	0	515	207	
3	0	0	0	0	514	206	
4	0	0	0	0	514	206	
5	0	0	0	0	513	207	
6	0	0	0	0	512	206	
7	0	0	0	0	512	207	
8	0	0	0	0	512	207	
9	0	0	0	0	512	206	
10	0	0	0	0	512	207	
11	0	0	0	0	513	207	
12	0	0	0	0	514	205	
13	0	0	0	0	515	206	
14	0	0	0	0	515	206	
15	0	0	0	0	515	205	
0	0	0	0	0	514	206	
1	0	0	0	0	514	206	
2	0	0	0	0	513	207	
3	0	0	0	0	512	207	
4	0	0	0	0	512	205	
5	0	0	0	0	512	206	
6	0	0	0	0	512	207	
7	0	0	0	0	512	206	
8	0	0	0	0	511	207	
9	0	0	0	0	511	207	
10	0	0	0	0	511	205	
11	0	0	0	0	512	206	
12	0	0	0	0	512	207	
13	0	0	0	0	514	205	
14	0	0	0	0	515	206	
15	0	0	0	0	516	206	
0	0	0	0	0	517	205	
1	0	0	0	0	517	206	
2	0	0	0	0	517	206	
3	0	0	0	0	517	205	
4	0	0	0	0	516	206	
5	0	0	0	0	516	206	
6	0	0	0	0	517	207	
7	0	0	0	0	518	207	
8	0	0	0	0	518	205	
9	0	0	0	0	519	206	
10	0	0	0	0	521	207	
11	0	0	0	0	521	205	
12	0	0	0	0	521	206	
13	0	0	0	0	520	207	
14	0	0	0	0	520	205	
15	0	0	0	0	519	206	
0	0	0	0	0	519	206	
1	0	0	0	0	519	205	
2	0	0	0	0	520	206	
3	0	0	0	0	520	206	
4	0	0	0	0	521	206	
5	0	0	0	0	519	206	
6	0	0	0	0	518	206	
7	0	0	0	0	517	207	
8	0	0	0	0	516	207	
9	0	0	0	0	516	206	
10	0	0	0	0	518	207	
11	0	0	0	0	519	206	
12	0	0	0	0	521	206	
13	0	0	0	0	521	206	
14	0	0	0	0	519	206	
15	0	0	0	0	519	206	
0	0	0	0	0	519	205	
1	0	0	0	0	519	206	
2	0	0	0	0	519	206	
3	0	0	0	0	519	207	
4	0	0	0	0	518	206	
5	0	0	0	0	516	205	
6	0	0	0	0	516	206	
7	0	0	0	0	515	206	
8	0	0	0	0	513	206	
9	0	0	0	0	513	206	
10	0	0	0	0	513	205	
11	0	0	0	0	514	206	
12	0	0	0	0	517	206	
13	0	0	0	0	521	207	
14	0	0	0	0	522	207	
15	0	0	0	0	522	205	
0	0	0	0	0	519	206	
1	0	0	0	0	518	207	
2	0	0	0	0	518	205	
3	0	0	0	0	517	206	
4	0	0	0	0	517	207	
5	0	0	0	0	517	205	
6	0	0	0	0	517	206	
7	0	0	0	0	517	206	
8	0	0	0	0	518	207	
9	0	0	0	0	519	207	
10	0	0	0	0	519	205	
11	0	0	0	0	519	206	
12	0	0	0	0	519	205	
13	0	0	0	0	519	206	
14	0	0	0	0	519	206	
15	0	0	0	0	521	207	
0	0	0	0	0	523	207	
1	0	0	0	0	523	206	
2	0	0	0	0	521	206	
3	0	0	0	0	519	207	
4	0	0	0	0	518	205	
5	0	0	0	0	518	206	
6	0	0	0	0	519	207	
7	0	0	0	0	520	205	
8	0	0	0	0	521	206	
9	0	0	0	0	522	206	
10	0	0	0	0	524	205	
11	0	0	0	0	524	206	
12	0	0	0	0	524	206	
13	0	0	0	0	524	206	
14	0	0	0	0	523	206	
15	0	0	0	0	521	206	
0	0	0	0	0	520	207	
1	0	0	0	0	520	207	
2	0	0	0	0	520	205	
3	0	0	0	0	521	206	
4	0	0	0	0	522	207	
5	0	0	0	0	524	205	
6	0	0	0	0	525	206	
7	0	0	0	0	526	206	
8	0	0	0	0	526	205	
9	0	0	0	0	525	206	
10	0	0	0	0	524	206	
11	0	0	0	0	523	205	
12	0	0	0	0	524	206	
13	0	0	0	0	524	207	
14	0	0	0	0	523	205	
15	0	0	0	0	523	206	
0	0	0	0	0	524	206	
1	0	0	0	0	525	206	
2	0	0	0	0	526	206	
3	0	0	0	0	525	205	
4	0	0	0	0	525	207	
5	0	0	0	0	524	206	
6	0	0	0	0	522	206	
7	0	0	0	0	519	207	
8	0	0	0	0	519	206	
9	0	0	0	0	520	206	
10	0	0	0	0	521	207	
11	0	0	0	0	521	206	
12	0	0	0	0	521	206	
13	0	0	0	0	522	207	
14	0	0	0	0	521	207	
15	0	0	0	0	520	205	
0	0	0	0	0	518	206	
1	0	0	0	0	518	206	
2	0	0	0	0	518	206	
3	0	0	0	0	517	207	
4	0	0	0	0	516	206	
5	0	0	0	0	515	206	
6	0	0	0	0	515	206	
7	0	0	0	0	516	206	
8	0	0	0	0	516	206	
9	0	0	0	0	516	206	
10	0	0	0	0	515	207	
11	0	0	0	0	516	205	
12	0	0	0	0	516	206	
13	0	0	0	0	516	207	
14	0	0	0	0	515	205	
15	0	0	0	0	516	206	
0	0	0	0	0	518	206	
1	0	0	0	0	518	205	
2	0	0	0	0	518	207	
3	0	0	0	0	517	207	
4	0	0	0	0	516	205	
5	0	0	0	0	516	206	
6	0	0	0	0	515	207	
7	0	0	0	0	515	205	
8	0	0	0	0	515	206	
9	0	0	0	0	515	206	
10	0	0	0	0	514	205	
11	0	0	0	0	514	206	
12	0	0	0	0	514	206	
13	0	0	0	0	515	205	
14	0	0	0	0	514	206	
15	0	0	0	0	513	206	
0	0	0	0	0	513	206	
1	0	0	0	0	512	207	
2	0	0	0	0	512	205	
3	0	0	0	0	512	206	
4	0	0	0	0	511	207	
5	0	0	0	0	511	206	
6	0	0	0	0	511	206	
7	0	0	0	0	512	207	
8	0	0	0	0	512	206	
9	0	0	0	0	512	205	
10	0	0	0	0	511	206	
11	0	0	0	0	512	206	
12	0	0	0	0	512	205	
13	0	0	0	0	511	206	
14	0	0	0	0	510	206	
15	0	0	0	0	509	206	
0	0	0	0	0	509	206	
1	0	0	0	0	509	207	
2	0	0	0	0	508	205	
3	0	0	0	0	509	206	
4	0	0	0	0	509	207	
5	0	0	0	0	508	205	
6	0	0	0	0	507	206	
7	0	0	0	0	508	206	
8	0	0	0	0	506	206	
9	0	0	0	0	505	206	
10	0	0	0	0	504	207	
11	0	0	0	0	502	207	
12	0	0	0	0	501	206	
13	0	0	0	0	500	207	
14	0	0	0	0	499	206	
15	0	0	0	0	498	206	
0	0	0	0	0	497	206	
1	0	0	0	0	497	207	
2	0	0	0	0	497	205	
3	0	0	0	0	497	206	
4	0	0	0	0	498	207	
5	0	0	0	0	498	206	
6	0	0	0	0	498	206	
7	0	0	0	0	499	206	
8	0	0	0	0	499	206	
9	0	0	0	0	498	206	
10	0	0	0	0	499	206	
11	0	0	0	0	499	205	
12	0	0	0	0	499	206	
13	0	0	0	0	499	207	
14	0	0	0	0	498	205	
15	0	0	0	0	498	206	
0	0	0	0	0	497	207	
1	0	0	0	0	497	206	
2	0	0	0	0	497	206	
3	0	0	0	0	497	206	
4	0	0	0	0	498	206	
5	0	0	0	0	499	206	
6	0	0	0	0	500	207	
7	0	0	0	0	500	205	
8	0	0	0	0	501	206	
9	0	0	0	0	502	207	
10	0	0	0	0	502	205	
11	0	0	0	0	502	206	
12	0	0	0	0	502	206	
13	0	0	0	0	504	206	
14	0	0	0	0	504	207	
15	0	0	0	0	504	205	
0	0	0	0	0	504	206	
1	0	0	0	0	504	206	
2	0	0	0	0	505	207	
3	0	0	0	0	505	206	
4	0	0	0	0	504	206	
5	0	0	0	0	504	206	
6	0	0	0	0	503	207	
7	0	0	0	0	503	205	
8	0	0	0	0	502	206	
9	0	0	0	0	502	206	
10	0	0	0	0	503	206	
11	0	0	0	0	504	207	
12	0	0	0	0	504	206	
13	0	0	0	0	504	206	
14	0	0	0	0	503	206	
15	0	0	0	0	502	207	
0	0	0	0	0	502	206	
1	0	0	0	0	502	206	
2	0	0	0	0	503	207	
3	0	0	0	0	503	206	
4	0	0	0	0	501	206	
5	0	0	0	0	501	207	
6	0	0	0	0	501	206	
7	0	0	0	0	501	206	
8	0	0	0	0	501	206	
9	0	0	0	0	503	207	
10	0	0	0	0	503	205	
11	0	0	0	0	504	206	
12	0	0	0	0	503	206	
13	0	0	0	0	503	205	
14	0	0	0	0	503	206	
15	0	0	0	0	502	207	
0	0	0	0	0	502	205	
1	0	0	0	0	503	206	
2	0	0	0	0	503	206	
3	0	0	0	0	504	207	
4	0	0	0	0	504	207	
5	0	0	0	0	504	206	
6	0	0	0	0	505	206	
7	0	0	0	0	505	207	
8	0	0	0	0	506	206	
9	0	0	0	0	506	207	
10	0	0	0	0	506	206	
11	0	0	0	0	505	206	
12	0	0	0	0	506	206	
13	0	0	0	0	507	206	
14	0	0	0	0	507	206	
15	0	0	0	0	508	207	
0	0	0	0	0	510	206	
1	0	0	0	0	511	206	
2	0	0	0	0	511	206	
3	0	0	0	0	509	206	
4	0	0	0	0	508	206	
5	0	0	0	0	508	206	
6	0	0	0	0	507	206	
7	0	0	0	0	509	206	
8	0	0	0	0	510	207	
9	0	0	0	0	510	206	
10	0	0	0	0	511	206	
11	0	0	0	0	513	206	
12	0	0	0	0	514	206	
13	0	0	0	0	516	206	
14	0	0	0	0	516	206	
15	0	0	0	0	517	206	
0	0	0	0	0	516	205	
1	0	0	0	0	516	206	
2	0	0	0	0	516	207	
3	0	0	0	0	517	205	
4	0	0	0	0	516	206	
5	0	0	0	0	516	206	
6	0	0	0	0	517	205	
7	0	0	0	0	516	206	
8	0	0	0	0	517	206	
9	0	0	0	0	518	206	
10	0	0	0	0	518	206	
11	0	0	0	0	519	206	
12	0	0	0	0	518	206	
13	0	0	0	0	518	207	
14	0	0	0	0	518	205	
15	0	0	0	0	517	206	
0	0	0	0	0	517	206	
1	0	0	0	0	515	206	
2	0	0	0	0	513	206	
3	0	0	0	0	513	206	
4	0	0	0	0	513	206	
5	0	0	0	0	513	207	
6	0	0	0	0	513	205	
7	0	0	0	0	514	206	
8	0	0	0	0	514	207	
9	0	0	0	0	514	205	
10	0	0	0	0	514	206	
11	0	0	0	0	513	207	
12	0	0	0	0	512	205	
13	0	0	0	0	511	206	
14	0	0	0	0	511	207	
15	0	0	0	0	512	205	
0	0	0	0	0	512	206	
1	0	0	0	0	512	206	
2	0	0	0	0	513	205	
3	0	0	0	0	512	206	
4	0	0	0	0	512	205	
5	0	0	0	0	511	206	
6	0	0	0	0	511	207	
7	0	0	0	0	511	205	
8	0	0	0	0	511	206	
9	0	0	0	0	511	207	
10	0	0	0	0	511	206	
11	0	0	0	0	510	207	
12	0	0	0	0	510	206	
13	0	0	0	0	510	206	
14	0	0	0	0	511	207	
15	0	0	0	0	511	207	
0	0	0	0	0	511	205	
1	0	0	0	0	512	206	
2	0	0	0	0	512	206	
3	0	0	0	0	513	205	
4	0	0	0	0	513	206	
5	0	0	0	0	513	206	
6	0	0	0	0	515	207	
7	0	0	0	0	515	206	
8	0	0	0	0	517	206	
9	0	0	0	0	517	207	
10	0	0	0	0	517	206	
11	0	0	0	0	517	206	
12	0	0	0	0	516	206	
13	0	0	0	0	516	207	
14	0	0	0	0	515	205	
15	0	0	0	0	515	206	
0	0	0	0	0	515	205	
1	0	0	0	0	516	206	
2	0	0	0	0	518	207	
3	0	0	0	0	519	205	
4	0	0	0	0	519	206	
5	0	0	0	0	519	206	
6	0	0	0	0	518	205	
7	0	0	0	0	519	206	
8	0	0	0	0	519	206	
9	0	0	0	0	519	206	
10	0	0	0	0	519	206	
11	0	0	0	0	519	206	
12	0	0	0	0	520	207	
13	0	0	0	0	520	206	
14	0	0	0	0	519	206	
15	0	0	0	0	519	207	
0	0	0	0	0	520	207	
1	0	0	0	0	521	205	
2	0	0	0	0	522	206	
3	0	0	0	0	522	206	
4	0	0	0	0	522	207	
5	0	0	0	0	522	207	
6	0	0	0	0	523	205	
7	0	0	0	0	524	206	
8	0	0	0	0	524	206	
9	0	0	0	0	524	205	
10	0	0	0	0	524	206	
11	0	0	0	0	524	206	
12	0	0	0	0	525	207	
13	0	0	0	0	525	207	
14	0	0	0	0	525	205	
15	0	0	0	0	526	206	
0	0	0	0	0	526	207	
1	0	0	0	0	526	205	
2	0	0	0	0	526	206	
3	0	0	0	0	526	206	
4	0	0	0	0	526	205	
5	0	0	0	0	526	206	
6	0	0	0	0	525	205	
7	0	0	0	0	524	206	
8	0	0	0	0	523	206	
9	0	0	0	0	522	205	
10	0	0	0	0	521	206	
11	0	0	0	0	521	206	
12	0	0	0	0	520	207	
13	0	0	0	0	521	206	
14	0	0	0	0	521	205	
15	0	0	0	0	523	207	
0	0	0	0	0	524	206	
1	0	0	0	0	524	205	
2	0	0	0	0	524	206	
3	0	0	0	0	523	206	
4	0	0	0	0	523	205	
5	0	0	0	0	524	206	
6	0	0	0	0	523	206	
7	0	0	0	0	523	205	
8	0	0	0	0	522	206	
9	0	0	0	0	521	206	
10	0	0	0	0	520	206	
11	0	0	0	0	521	206	
12	0	0	0	0	523	206	
13	0	0	0	0	524	206	
14	0	0	0	0	526	206	
15	0	0	0	0	527	205	
0	0	0	0	0	526	206	
1	0	0	0	0	526	207	
2	0	0	0	0	526	205	
3	0	0	0	0	526	206	
4	0	0	0	0	525	206	
5	0	0	0	0	524	205	
6	0	0	0	0	524	206	
7	0	0	0	0	524	205	
8	0	0	0	0	524	206	
9	0	0	0	0	524	207	
10	0	0	0	0	524	205	
11	0	0	0	0	524	206	
12	0	0	0	0	524	206	
13	0	0	0	0	524	205	
14	0	0	0	0	524	206	
15	0	0	0	0	524	206	
0	0	0	0	0	525	205	
1	0	0	0	0	526	206	
2	0	0	0	0	525	205	
3	0	0	0	0	524	206	
4	0	0	0	0	523	206	
5	0	0	0	0	523	205	
6	0	0	0	0	523	206	
7	0	0	0	0	523	205	
8	0	0	0	0	523	206	
9	0	0	0	0	523	207	
10	0	0	0	0	523	205	
11	0	0	0	0	523	206	
12	0	0	0	0	523	206	
13	0	0	0	0	522	205	
14	0	0	0	0	521	206	
15	0	0	0	0	522	205	
0	0	0	0	0	523	206	
1	0	0	0	0	523	206	
2	0	0	0	0	523	206	
3	0	0	0	0	522	207	
4	0	0	0	0	521	205	
5	0	0	0	0	520	206	
6	0	0	0	0	520	206	
7	0	0	0	0	519	205	
8	0	0	0	0	519	206	
9	0	0	0	0	519	206	
10	0	0	0	0	520	206	
11	0	0	0	0	520	206	
12	0	0	0	0	520	206	
13	0	0	0	0	520	206	
14	0	0	0	0	520	206	
15	0	0	0	0	519	206	
0	0	0	0	0	520	206	
1	0	0	0	0	521	206	
2	0	0	0	0	521	205	
3	0	0	0	0	521	206	
4	0	0	0	0	521	207	
5	0	0	0	0	521	205	
6	0	0	0	0	521	206	
7	0	0	0	0	521	207	
8	0	0	0	0	520	205	
9	0	0	0	0	520	206	
10	0	0	0	0	520	206	
11	0	0	0	0	520	205	
12	0	0	0	0	520	206	
13	0	0	0	0	520	206	
14	0	0	0	0	519	205	
15	0	0	0	0	519	206	
0	0	0	0	0	521	206	
1	0	0	0	0	522	207	
2	0	0	0	0	522	206	
3	0	0	0	0	521	205	
4	0	0	0	0	523	206	
5	0	0	0	0	523	207	
6	0	0	0	0	524	205	
7	0	0	0	0	526	206	
8	0	0	0	0	527	206	
9	0	0	0	0	526	205	
10	0	0	0	0	524	206	
11	0	0	0	0	523	206	
12	0	0	0	0	523	205	
13	0	0	0	0	523	206	
14	0	0	0	0	524	206	
15	0	0	0	0	523	205	
0	0	0	0	0	522	206	
1	0	0	0	0	522	206	
2	0	0	0	0	521	206	
3	0	0	0	0	521	206	
4	0	0	0	0	521	205	
5	0	0	0	0	520	206	
6	0	0	0	0	520	206	
7	0	0	0	0	519	205	
8	0	0	0	0	519	206	
9	0	0	0	0	519	206	
10	0	0	0	0	519	205	
11	0	0	0	0	520	206	
12	0	0	0	0	521	206	
13	0	0	0	0	520	205	
14	0	0	0	0	521	206	
15	0	0	0	0	521	205	
0	0	0	0	0	522	206	
1	0	0	0	0	522	207	
2	0	0	0	0	523	205	
3	0	0	0	0	523	206	
4	0	0	0	0	522	206	
5	0	0	0	0	521	205	
6	0	0	0	0	519	206	
7	0	0	0	0	519	206	
8	0	0	0	0	518	205	
9	0	0	0	0	518	206	
10	0	0	0	0	517	206	
11	0	0	0	0	517	207	
12	0	0	0	0	518	206	
13	0	0	0	0	517	206	
14	0	0	0	0	518	206	
15	0	0	0	0	519	206	
0	0	0	0	0	519	206	
1	0	0	0	0	519	206	
2	0	0	0	0	519	206	
3	0	0	0	0	519	205	
4	0	0	0	0	518	206	
5	0	0	0	0	518	206	
6	0	0	0	0	518	206	
7	0	0	0	0	518	206	
8	0	0	0	0	519	205	
9	0	0	0	0	519	206	
10	0	0	0	0	521	206	
11	0	0	0	0	521	205	
12	0	0	0	0	522	206	
13	0	0	0	0	522	207	
14	0	0	0	0	523	205	
15	0	0	0	0	523	206	
0	0	0	0	0	523	206	
1	0	0	0	0	522	205	
2	0	0	0	0	521	206	
3	0	0	0	0	522	206	
4	0	0	0	0	523	205	
5	0	0	0	0	524	206	
6	0	0	0	0	524	207	
7	0	0	0	0	523	206	
8	0	0	0	0	523	206	
9	0	0	0	0	524	206	
10	0	0	0	0	524	206	
11	0	0	0	0	524	205	
12	0	0	0	0	524	206	
13	0	0	0	0	524	207	
14	0	0	0	0	523	205	
15	0	0	0	0	523	206	
0	0	0	0	0	524	206	
1	0	0	0	0	524	205	
2	0	0	0	0	523	206	
3	0	0	0	0	523	206	
4	0	0	0	0	523	205	
5	0	0	0	0	523	206	
6	0	0	0	0	524	206	
7	0	0	0	0	526	205	
8	0	0	0	0	526	206	
9	0	0	0	0	527	206	
10	0	0	0	0	527	205	
11	0	0	0	0	527	206	
12	0	0	0	0	526	205	
13	0	0	0	0	527	206	
14	0	0	0	0	527	207	
15	0	0	0	0	527	205	
0	0	0	0	0	527	207	
1	0	0	0	0	526	206	
2	0	0	0	0	526	206	
3	0	0	0	0	526	204	
4	0	0	0	0	527	206	
5	0	0	0	0	528	206	
6	0	0	0	0	529	205	
7	0	0	0	0	529	206	
8	0	0	0	0	529	205	
9	0	0	0	0	529	206	
10	0	0	0	0	528	206	
11	0	0	0	0	528	205	
12	0	0	0	0	527	207	
13	0	0	0	0	525	206	
14	0	0	0	0	524	205	
15	0	0	0	0	526	206	
0	0	0	0	0	527	206	
1	0	0	0	0	529	205	
2	0	0	0	0	530	206	
3	0	0	0	0	529	206	
4	0	0	0	0	527	205	
5	0	0	0	0	526	206	
6	0	0	0	0	525	206	
7	0	0	0	0	525	205	
8	0	0	0	0	526	206	
9	0	0	0	0	527	207	
10	0	0	0	0	528	205	
11	0	0	0	0	529	206	
12	0	0	0	0	528	207	
13	0	0	0	0	528	205	
14	0	0	0	0	529	206	
15	0	0	0	0	527	206	
0	0	0	0	0	525	205	
1	0	0	0	0	525	206	
2	0	0	0	0	525	207	
3	0	0	0	0	524	205	
4	0	0	0	0	525	206	
5	0	0	0	0	526	205	
6	0	0	0	0	525	206	
7	0	0	0	0	526	205	
8	0	0	0	0	525	206	
9	0	0	0	0	524	206	
10	0	0	0	0	524	205	
11	0	0	0	0	525	207	
12	0	0	0	0	526	206	
13	0	0	0	0	527	205	
14	0	0	0	0	527	206	
15	0	0	0	0	527	206	
0	0	0	0	0	527	205	
1	0	0	0	0	526	206	
2	0	0	0	0	525	206	
3	0	0	0	0	525	205	
4	0	0	0	0	525	206	
5	0	0	0	0	524	206	
6	0	0	0	0	523	205	
7	0	0	0	0	521	207	
8	0	0	0	0	520	207	
9	0	0	0	0	520	204	
10	0	0	0	0	519	206	
11	0	0	0	0	519	205	
12	0	0	0	0	517	207	
13	0	0	0	0	515	207	
14	0	0	0	0	513	204	
15	0	0	0	0	511	206	
0	0	0	0	0	509	206	
1	0	0	0	0	508	205	
2	0	0	0	0	508	206	
3	0	0	0	0	507	206	
4	0	0	0	0	508	205	
5	0	0	0	0	507	206	
6	0	0	0	0	507	207	
7	0	0	0	0	507	205	
8	0	0	0	0	507	207	
9	0	0	0	0	507	206	
10	0	0	0	0	506	205	
11	0	0	0	0	506	206	
12	0	0	0	0	505	206	
13	0	0	0	0	505	205	
14	0	0	0	0	506	206	
15	0	0	0	0	505	207	
0	0	0	0	0	506	205	
1	0	0	0	0	506	206	
2	0	0	0	0	507	206	
3	0	0	0	0	508	205	
4	0	0	0	0	507	206	
5	0	0	0	0	507	207	
6	0	0	0	0	507	205	
7	0	0	0	0	506	206	
8	0	0	0	0	506	207	
9	0	0	0	0	505	205	
10	0	0	0	0	505	206	
11	0	0	0	0	505	206	
12	0	0	0	0	506	206	
13	0	0	0	0	509	206	
14	0	0	0	0	510	206	
15	0	0	0	0	510	206	
0	0	0	0	0	510	205	
1	0	0	0	0	510	206	
2	0	0	0	0	511	205	
3	0	0	0	0	511	206	
4	0	0	0	0	511	206	
5	0	0	0	0	511	206	
6	0	0	0	0	511	205	
7	0	0	0	0	511	206	
8	0	0	0	0	510	206	
9	0	0	0	0	511	205	
10	0	0	0	0	511	206	
11	0	0	0	0	512	206	
12	0	0	0	0	512	205	
13	0	0	0	0	512	206	
14	0	0	0	0	512	206	
15	0	0	0	0	513	205	
0	0	0	0	0	513	206	
1	0	0	0	0	513	206	
2	0	0	0	0	512	205	
3	0	0	0	0	512	206	
4	0	0	0	0	512	206	
5	0	0	0	0	511	206	
6	0	0	0	0	511	205	
7	0	0	0	0	510	206	
8	0	0	0	0	510	206	
9	0	0	0	0	510	205	
10	0	0	0	0	511	206	
11	0	0	0	0	512	206	
12	0	0	0	0	511	205	
13	0	0	0	0	512	206	
14	0	0	0	0	513	205	
15	0	0	0	0	513	207	
0	0	0	0	0	514	206	
1	0	0	0	0	514	205	
2	0	0	0	0	514	206	
3	0	0	0	0	515	206	
4	0	0	0	0	516	205	
5	0	0	0	0	516	206	
6	0	0	0	0	515	206	
7	0	0	0	0	516	205	
8	0	0	0	0	516	207	
9	0	0	0	0	516	206	
10	0	0	0	0	516	205	
11	0	0	0	0	515	206	
12	0	0	0	0	515	206	
13	0	0	0	0	516	205	
14	0	0	0	0	515	206	
15	0	0	0	0	515	207	
0	0	0	0	0	515	205	
1	0	0	0	0	516	206	
2	0	0	0	0	516	206	
3	0	0	0	0	515	205	
4	0	0	0	0	515	206	
5	0	0	0	0	515	206	
6	0	0	0	0	515	205	
7	0	0	0	0	515	206	
8	0	0	0	0	515	206	
9	0	0	0	0	515	205	
10	0	0	0	0	514	206	
11	0	0	0	0	515	206	
12	0	0	0	0	515	205	
13	0	0	0	0	515	206	
14	0	0	0	0	515	206	
15	0	0	0	0	517	205	
0	0	0	0	0	518	206	
1	0	0	0	0	517	206	
2	0	0	0	0	516	205	
3	0	0	0	0	515	207	
4	0	0	0	0	516	206	
5	0	0	0	0	516	205	
6	0	0	0	0	515	205	
7	0	0	0	0	514	206	
8	0	0	0	0	514	206	
9	0	0	0	0	514	205	
10	0	0	0	0	515	206	
11	0	0	0	0	514	206	
12	0	0	0	0	514	205	
13	0	0	0	0	515	206	
14	0	0	0	0	514	206	
15	0	0	0	0	513	206	
0	0	0	0	0	513	206	
1	0	0	0	0	513	206	
2	0	0	0	0	513	205	
3	0	0	0	0	513	206	
4	0	0	0	0	513	206	
5	0	0	0	0	513	205	
6	0	0	0	0	513	206	
7	0	0	0	0	513	206	
8	0	0	0	0	514	205	
9	0	0	0	0	514	206	
10	0	0	0	0	513	206	
11	0	0	0	0	513	205	
12	0	0	0	0	513	206	
13	0	0	0	0	514	206	
14	0	0	0	0	515	205	
15	0	0	0	0	516	207	
0	0	0	0	0	519	206	
1	0	0	0	0	520	206	
2	0	0	0	0	521	205	
3	0	0	0	0	522	206	
4	0	0	0	0	521	206	
5	0	0	0	0	519	206	
6	0	0	0	0	520	206	
7	0	0	0	0	520	205	
8	0	0	0	0	521	206	
9	0	0	0	0	522	206	
10	0	0	0	0	522	204	
11	0	0	0	0	524	206	
12	0	0	0	0	525	206	
13	0	0	0	0	527	204	
14	0	0	0	0	529	206	
15	0	0	0	0	531	206	
0	0	0	0	0	532	205	
1	0	0	0	0	535	206	
2	0	0	0	0	538	206	
3	0	0	0	0	540	204	
4	0	0	0	0	543	206	
5	0	0	0	0	546	206	
6	0	0	0	0	550	204	
7	0	0	0	0	553	206	
8	0	0	0	0	556	206	
9	0	0	0	0	558	205	
10	0	0	0	0	559	207	
11	0	0	0	0	560	206	
12	0	0	0	0	560	205	
13	0	0	0	0	558	207	
14	0	0	0	0	556	206	
15	0	0	0	0	554	205	
0	0	0	0	0	551	207	
1	0	0	0	0	548	206	
2	0	0	0	0	544	204	
3	0	0	0	0	539	206	
4	0	0	0	0	535	206	
5	0	0	0	0	530	205	
6	0	0	0	0	525	206	
7	0	0	0	0	520	206	
8	0	0	0	0	515	206	
9	0	0	0	0	508	204	
10	0	0	0	0	501	206	
11	0	0	0	0	494	206	
12	0	0	0	0	487	206	
13	0	0	0	0	480	206	
14	0	0	0	0	475	206	
15	0	0	0	0	470	205	
0	0	0	0	0	464	206	
1	0	0	0	0	460	206	
2	0	0	0	0	454	205	
3	0	0	0	0	449	206	
4	0	0	0	0	444	206	
5	0	0	0	0	439	205	
6	0	0	0	0	433	206	
7	0	0	0	0	429	206	
8	0	0	0	0	427	206	
9	0	0	0	0	425	206	
10	0	0	0	0	427	206	
11	0	0	0	0	431	207	
12	0	0	0	0	434	206	
13	0	0	0	0	440	206	
14	0	0	0	0	444	207	
15	0	0	0	0	448	206	
0	0	0	0	0	453	206	
1	0	0	0	0	458	207	
2	0	0	0	0	463	206	
3	0	0	0	0	470	206	
4	0	0	0	0	475	206	
5	0	0	0	0	481	206	
6	0	0	0	0	486	206	
7	0	0	0	0	491	206	
8	0	0	0	0	495	206	
9	0	0	0	0	499	205	
10	0	0	0	0	502	207	
11	0	0	0	0	505	206	
12	0	0	0	0	508	204	
13	0	0	0	0	510	206	
14	0	0	0	0	510	206	
15	0	0	0	0	512	205	
0	0	0	0	0	512	206	
1	0	0	0	0	514	206	
2	0	0	0	0	516	205	
3	0	0	0	0	518	206	
4	0	0	0	0	519	206	
5	0	0	0	0	519	205	
6	0	0	0	0	520	206	
7	0	0	0	0	520	206	
8	0	0	0	0	519	204	
9	0	0	0	0	519	206	
10	0	0	0	0	519	206	
11	0	0	0	0	519	204	
12	0	0	0	0	519	206	
13	0	0	0	0	519	206	
14	0	0	0	0	519	204	
15	0	0	0	0	520	206	
0	0	0	0	0	521	205	
1	0	0	0	0	522	206	
2	0	0	0	0	524	205	
3	0	0	0	0	524	206	
4	0	0	0	0	525	206	
5	0	0	0	0	526	205	
6	0	0	0	0	526	207	
7	0	0	0	0	525	206	
8	0	0	0	0	525	205	
9	0	0	0	0	526	206	
10	0	0	0	0	527	206	
11	0	0	0	0	528	204	
12	0	0	0	0	528	206	
13	0	0	0	0	529	205	
14	0	0	0	0	528	207	
15	0	0	0	0	528	206	
0	0	0	0	0	528	205	
1	0	0	0	0	529	206	
2	0	0	0	0	529	206	
3	0	0	0	0	528	204	
4	0	0	0	0	528	206	
5	0	0	0	0	528	206	
6	0	0	0	0	528	205	
7	0	0	0	0	528	206	
8	0	0	0	0	527	206	
9	0	0	0	0	526	204	
10	0	0	0	0	526	206	
11	0	0	0	0	525	206	
12	0	0	0	0	525	205	
13	0	0	0	0	524	206	
14	0	0	0	0	524	206	
15	0	0	0	0	524	205	
0	0	0	0	0	524	205	
1	0	0	0	0	523	206	
2	0	0	0	0	522	205	
3	0	0	0	0	522	205	
4	0	0	0	0	521	206	
5	0	0	0	0	520	206	
6	0	0	0	0	521	204	
7	0	0	0	0	521	206	
8	0	0	0	0	521	206	
9	0	0	0	0	520	206	
10	0	0	0	0	520	206	
11	0	0	0	0	520	205	
12	0	0	0	0	519	206	
13	0	0	0	0	519	206	
14	0	0	0	0	519	205	
15	0	0	0	0	521	205	
0	0	0	0	0	524	206	
1	0	0	0	0	525	206	
2	0	0	0	0	525	205	
3	0	0	0	0	524	206	
4	0	0	0	0	520	205	
5	0	0	0	0	521	206	
6	0	0	0	0	522	206	
7	0	0	0	0	524	205	
8	0	0	0	0	525	206	
9	0	0	0	0	526	205	
10	0	0	0	0	527	206	
11	0	0	0	0	527	206	
12	0	0	0	0	527	205	
13	0	0	0	0	526	205	
14	0	0	0	0	524	206	
15	0	0	0	0	524	205	
0	0	0	0	0	523	206	
1	0	0	0	0	524	206	
2	0	0	0	0	525	205	
3	0	0	0	0	525	206	
4	0	0	0	0	525	206	
5	0	0	0	0	525	204	
6	0	0	0	0	524	206	
7	0	0	0	0	521	206	
8	0	0	0	0	520	204	
9	0	0	0	0	519	206	
10	0	0	0	0	518	205	
11	0	0	0	0	517	207	
12	0	0	0	0	516	206	
13	0	0	0	0	515	205	
14	0	0	0	0	513	206	
15	0	0	0	0	512	205	
0	0	0	0	0	509	204	
1	0	0	0	0	508	206	
2	0	0	0	0	505	205	
3	0	0	0	0	504	206	
4	0	0	0	0	502	206	
5	0	0	0	0	500	205	
6	0	0	0	0	500	206	
7	0	0	0	0	500	206	
8	0	0	0	0	501	205	
9	0	0	0	0	501	206	
10	0	0	0	0	501	206	
11	0	0	0	0	501	204	
12	0	0	0	0	500	206	
13	0	0	0	0	500	206	
14	0	0	0	0	501	204	
15	0	0	0	0	503	206	
0	0	0	0	0	502	205	
1	0	0	0	0	503	206	
2	0	0	0	0	503	206	
3	0	0	0	0	503	205	
4	0	0	0	0	504	207	
5	0	0	0	0	504	206	
6	0	0	0	0	504	205	
7	0	0	0	0	504	206	
8	0	0	0	0	504	206	
9	0	0	0	0	504	205	
10	0	0	0	0	503	206	
11	0	0	0	0	503	206	
12	0	0	0	0	502	204	
13	0	0	0	0	503	206	
14	0	0	0	0	503	205	
15	0	0	0	0	502	206	
0	0	0	0	0	502	206	
1	0	0	0	0	502	205	
2	0	0	0	0	504	206	
3	0	0	0	0	505	206	
4	0	0	0	0	507	204	
5	0	0	0	0	509	206	
6	0	0	0	0	509	206	
7	0	0	0	0	509	204	
8	0	0	0	0	510	206	
9	0	0	0	0	511	206	
10	0	0	0	0	511	205	
11	0	0	0	0	511	206	
12	0	0	0	0	512	205	
13	0	0	0	0	513	204	
14	0	0	0	0	513	206	
15	0	0	0	0	514	205	
0	0	0	0	0	515	205	
1	0	0	0	0	515	206	
2	0	0	0	0	515	205	
3	0	0	0	0	515	204	
4	0	0	0	0	516	206	
5	0	0	0	0	517	205	
6	0	0	0	0	516	206	
7	0	0	0	0	518	206	
8	0	0	0	0	518	204	
9	0	0	0	0	517	206	
10	0	0	0	0	518	205	
11	0	0	0	0	518	204	
12	0	0	0	0	520	206	
13	0	0	0	0	519	205	
14	0	0	0	0	519	205	
15	0	0	0	0	519	206	
0	0	0	0	0	519	205	
1	0	0	0	0	518	206	
2	0	0	0	0	517	206	
3	0	0	0	0	517	204	
4	0	0	0	0	516	206	
5	0	0	0	0	517	206	
6	0	0	0	0	517	204	
7	0	0	0	0	517	206	
8	0	0	0	0	516	206	
9	0	0	0	0	514	204	
10	0	0	0	0	513	206	
11	0	0	0	0	513	206	
12	0	0	0	0	515	205	
13	0	0	0	0	516	206	
14	0	0	0	0	517	205	
15	0	0	0	0	517	204	
0	0	0	0	0	516	206	
1	0	0	0	0	516	205	
2	0	0	0	0	517	206	
3	0	0	0	0	516	206	
4	0	0	0	0	516	204	
5	0	0	0	0	516	206	
6	0	0	0	0	516	205	
7	0	0	0	0	516	204	
8	0	0	0	0	516	206	
9	0	0	0	0	517	205	
10	0	0	0	0	518	206	
11	0	0	0	0	518	206	
12	0	0	0	0	518	204	
13	0	0	0	0	518	206	
14	0	0	0	0	519	206	
15	0	0	0	0	520	205	
0	0	0	0	0	520	206	
1	0	0	0	0	521	206	
2	0	0	0	0	522	205	
3	0	0	0	0	521	206	
4	0	0	0	0	520	206	
5	0	0	0	0	519	204	
6	0	0	0	0	520	206	
7	0	0	0	0	520	206	
8	0	0	0	0	519	205	
9	0	0	0	0	519	207	
10	0	0	0	0	518	206	
11	0	0	0	0	518	205	
12	0	0	0	0	518	206	
13	0	0	0	0	518	206	
14	0	0	0	0	518	205	
15	0	0	0	0	519	206	
0	0	0	0	0	521	205	
1	0	0	0	0	521	204	
2	0	0	0	0	521	206	
3	0	0	0	0	521	205	
4	0	0	0	0	520	204	
5	0	0	0	0	519	205	
6	0	0	0	0	518	205	
7	0	0	0	0	518	204	
8	0	0	0	0	518	206	
9	0	0	0	0	517	205	
10	0	0	0	0	516	205	
11	0	0	0	0	515	206	
12	0	0	0	0	513	205	
13	0	0	0	0	514	204	
14	0	0	0	0	514	206	
15	0	0	0	0	512	205	
0	0	0	0	0	512	206	
1	0	0	0	0	511	206	
2	0	0	0	0	510	205	
3	0	0	0	0	509	206	
4	0	0	0	0	509	206	
5	0	0	0	0	508	205	
6	0	0	0	0	507	206	
7	0	0	0	0	506	206	
8	0	0	0	0	505	204	
9	0	0	0	0	505	206	
10	0	0	0	0	504	206	
11	0	0	0	0	503	204	
12	0	0	0	0	502	206	
13	0	0	0	0	501	205	
14	0	0	0	0	500	205	
15	0	0	0	0	499	206	
0	0	0	0	0	498	205	
1	0	0	0	0	496	205	
2	0	0	0	0	496	206	
3	0	0	0	0	495	204	
4	0	0	0	0	494	206	
5	0	0	0	0	493	205	
6	0	0	0	0	493	206	
7	0	0	0	0	492	206	
8	0	0	0	0	492	205	
9	0	0	0	0	492	206	
10	0	0	0	0	490	205	
11	0	0	0	0	489	204	
12	0	0	0	0	488	206	
13	0	0	0	0	487	205	
14	0	0	0	0	487	206	
15	0	0	0	0	487	206	
0	0	0	0	0	486	205	
1	0	0	0	0	486	206	
2	0	0	0	0	486	206	
3	0	0	0	0	486	205	
4	0	0	0	0	486	206	
5	0	0	0	0	487	206	
6	0	0	0	0	487	205	
7	0	0	0	0	487	204	
8	0	0	0	0	487	206	
9	0	0	0	0	487	205	
10	0	0	0	0	486	206	
11	0	0	0	0	487	206	
12	0	0	0	0	488	205	
13	0	0	0	0	489	206	
14	0	0	0	0	489	206	
15	0	0	0	0	489	205	
0	0	0	0	0	489	206	
1	0	0	0	0	490	206	
2	0	0	0	0	491	205	
3	0	0	0	0	490	206	
4	0	0	0	0	490	206	
5	0	0	0	0	491	205	
6	0	0	0	0	492	204	
7	0	0	0	0	492	206	
8	0	0	0	0	491	206	
9	0	0	0	0	492	205	
10	0	0	0	0	492	206	
11	0	0	0	0	492	206	
12	0	0	0	0	490	205	
13	0	0	0	0	489	205	
14	0	0	0	0	489	205	
15	0	0	0	0	488	206	
0	0	0	0	0	489	206	
1	0	0	0	0	491	205	
2	0	0	0	0	492	205	
3	0	0	0	0	493	206	
4	0	0	0	0	493	205	
5	0	0	0	0	492	205	
6	0	0	0	0	492	206	
7	0	0	0	0	491	205	
8	0	0	0	0	491	206	
9	0	0	0	0	491	206	
10	0	0	0	0	492	205	
11	0	0	0	0	492	207	
12	0	0	0	0	491	206	
13	0	0	0	0	491	205	
14	0	0	0	0	490	206	
15	0	0	0	0	491	206	
0	0	0	0	0	492	205	
1	0	0	0	0	492	206	
2	0	0	0	0	493	206	
3	0	0	0	0	493	204	
4	0	0	0	0	496	205	
5	0	0	0	0	497	205	
6	0	0	0	0	499	205	
7	0	0	0	0	499	206	
8	0	0	0	0	500	205	
9	0	0	0	0	501	204	
10	0	0	0	0	502	206	
11	0	0	0	0	502	205	
12	0	0	0	0	503	204	
13	0	0	0	0	501	206	
14	0	0	0	0	501	205	
15	0	0	0	0	502	205	
0	0	0	0	0	502	206	
1	0	0	0	0	503	205	
2	0	0	0	0	504	206	
3	0	0	0	0	504	206	
4	0	0	0	0	504	205	
5	0	0	0	0	505	206	
6	0	0	0	0	505	206	
7	0	0	0	0	506	205	
8	0	0	0	0	507	205	
9	0	0	0	0	508	206	
10	0	0	0	0	508	205	
11	0	0	0	0	509	205	
12	0	0	0	0	510	206	
13	0	0	0	0	511	205	
14	0	0	0	0	511	206	
15	0	0	0	0	512	206	
0	0	0	0	0	512	204	
1	0	0	0	0	512	206	
2	0	0	0	0	510	206	
3	0	0	0	0	509	204	
4	0	0	0	0	509	206	
5	0	0	0	0	510	205	
6	0	0	0	0	510	206	
7	0	0	0	0	510	206	
8	0	0	0	0	510	205	
9	0	0	0	0	509	206	
10	0	0	0	0	508	206	
11	0	0	0	0	508	204	
12	0	0	0	0	509	206	
13	0	0	0	0	509	205	
14	0	0	0	0	510	206	
15	0	0	0	0	510	206	
0	0	0	0	0	508	204	
1	0	0	0	0	506	206	
2	0	0	0	0	504	205	
3	0	0	0	0	504	206	
4	0	0	0	0	504	206	
5	0	0	0	0	503	204	
6	0	0	0	0	503	206	
7	0	0	0	0	502	206	
8	0	0	0	0	502	204	
9	0	0	0	0	501	206	
10	0	0	0	0	500	205	
11	0	0	0	0	499	204	
12	0	0	0	0	499	206	
13	0	0	0	0	499	205	
14	0	0	0	0	499	204	
15	0	0	0	0	499	206	
0	0	0	0	0	499	206	
1	0	0	0	0	500	204	
2	0	0	0	0	499	206	
3	0	0	0	0	500	205	
4	0	0	0	0	501	206	
5	0	0	0	0	502	206	
6	0	0	0	0	503	204	
7	0	0	0	0	504	206	
8	0	0	0	0	505	204	
9	0	0	0	0	507	206	
10	0	0	0	0	508	205	
11	0	0	0	0	509	205	
12	0	0	0	0	511	205	
13	0	0	0	0	512	205	
14	0	0	0	0	512	206	
15	0	0	0	0	515	205	
0	0	0	0	0	516	206	
1	0	0	0	0	517	206	
2	0	0	0	0	516	204	
3	0	0	0	0	517	206	
4	0	0	0	0	516	205	
5	0	0	0	0	516	206	
6	0	0	0	0	516	206	
7	0	0	0	0	516	204	
8	0	0	0	0	515	205	
9	0	0	0	0	514	204	
10	0	0	0	0	513	206	
11	0	0	0	0	512	205	
12	0	0	0	0	511	206	
13	0	0	0	0	511	206	
14	0	0	0	0	511	205	
15	0	0	0	0	510	206	
0	0	0	0	0	510	204	
1	0	0	0	0	510	206	
2	0	0	0	0	510	205	
3	0	0	0	0	510	206	
4	0	0	0	0	510	206	
5	0	0	0	0	509	204	
6	0	0	0	0	508	205	
7	0	0	0	0	508	205	
8	0	0	0	0	508	206	
9	0	0	0	0	508	206	
10	0	0	0	0	510	204	
11	0	0	0	0	511	206	
12	0	0	0	0	511	204	
13	0	0	0	0	512	205	
14	0	0	0	0	512	205	
15	0	0	0	0	512	205	
0	0	0	0	0	512	205	
1	0	0	0	0	512	206	
2	0	0	0	0	512	206	
3	0	0	0	0	512	204	
4	0	0	0	0	514	205	
5	0	0	0	0	513	205	
6	0	0	0	0	512	206	
7	0	0	0	0	514	206	
8	0	0	0	0	515	204	
9	0	0	0	0	515	205	
10	0	0	0	0	515	205	
11	0	0	0	0	513	205	
12	0	0	0	0	513	205	
13	0	0	0	0	513	205	
14	0	0	0	0	511	206	
15	0	0	0	0	511	205	
0	0	0	0	0	511	205	
1	0	0	0	0	511	204	
2	0	0	0	0	511	205	
3	0	0	0	0	511	205	
4	0	0	0	0	512	206	
5	0	0	0	0	513	206	
6	0	0	0	0	514	204	
7	0	0	0	0	514	205	
8	0	0	0	0	513	204	
9	0	0	0	0	513	206	
10	0	0	0	0	512	205	
11	0	0	0	0	512	205	
12	0	0	0	0	512	205	
13	0	0	0	0	512	206	
14	0	0	0	0	512	206	
15	0	0	0	0	511	204	
0	0	0	0	0	511	205	
1	0	0	0	0	512	204	
2	0	0	0	0	512	205	
3	0	0	0	0	513	205	
4	0	0	0	0	513	205	
5	0	0	0	0	513	206	
6	0	0	0	0	515	204	
7	0	0	0	0	515	205	
8	0	0	0	0	516	204	
9	0	0	0	0	515	205	
10	0	0	0	0	516	205	
11	0	0	0	0	517	205	
12	0	0	0	0	517	206	
13	0	0	0	0	517	204	
14	0	0	0	0	518	205	
15	0	0	0	0	517	205	
0	0	0	0	0	515	206	
1	0	0	0	0	513	205	
2	0	0	0	0	512	205	
3	0	0	0	0	512	206	
4	0	0	0	0	514	204	
5	0	0	0	0	515	205	
6	0	0	0	0	515	204	
7	0	0	0	0	514	205	
8	0	0	0	0	513	204	
9	0	0	0	0	512	205	
10	0	0	0	0	512	205	
11	0	0	0	0	512	204	
12	0	0	0	0	513	205	
13	0	0	0	0	513	204	
14	0	0	0	0	513	205	
15	0	0	0	0	512	205	
0	0	0	0	0	511	205	
1	0	0	0	0	511	205	
2	0	0	0	0	510	206	
3	0	0	0	0	509	206	
4	0	0	0	0	509	204	
5	0	0	0	0	508	205	
6	0	0	0	0	508	206	
7	0	0	0	0	506	205	
8	0	0	0	0	505	205	
9	0	0	0	0	507	204	
10	0	0	0	0	506	205	
11	0	0	0	0	505	205	
12	0	0	0	0	504	205	
13	0	0	0	0	504	205	
14	0	0	0	0	505	205	
15	0	0	0	0	504	204	
0	0	0	0	0	504	205	
1	0	0	0	0	504	205	
2	0	0	0	0	503	204	
3	0	0	0	0	503	205	
4	0	0	0	0	503	206	
5	0	0	0	0	502	204	
6	0	0	0	0	502	205	
7	0	0	0	0	501	205	
8	0	0	0	0	501	206	
9	0	0	0	0	502	206	
10	0	0	0	0	503	205	
11	0	0	0	0	503	206	
12	0	0	0	0	503	204	
13	0	0	0	0	503	206	
14	0	0	0	0	504	205	
15	0	0	0	0	504	205	
0	0	0	0	0	503	204	
1	0	0	0	0	503	205	
2	0	0	0	0	502	206	
3	0	0	0	0	503	204	
4	0	0	0	0	503	205	
5	0	0	0	0	503	206	
6	0	0	0	0	503	204	
7	0	0	0	0	503	205	
8	0	0	0	0	503	205	
9	0	0	0	0	504	205	
10	0	0	0	0	504	205	
11	0	0	0	0	505	205	
12	0	0	0	0	505	204	
13	0	0	0	0	505	205	
14	0	0	0	0	504	205	
15	0	0	0	0	504	204	
0	0	0	0	0	504	205	
1	0	0	0	0	505	205	
2	0	0	0	0	505	204	
3	0	0	0	0	506	205	
4	0	0	0	0	506	204	
5	0	0	0	0	504	205	
6	0	0	0	0	504	205	
7	0	0	0	0	504	204	
8	0	0	0	0	504	205	
9	0	0	0	0	505	205	
10	0	0	0	0	505	204	
11	0	0	0	0	506	205	
12	0	0	0	0	506	206	
13	0	0	0	0	506	204	
14	0	0	0	0	506	205	
15	0	0	0	0	507	206	
0	0	0	0	0	506	204	
1	0	0	0	0	505	205	
2	0	0	0	0	504	205	
3	0	0	0	0	504	204	
4	0	0	0	0	504	205	
5	0	0	0	0	505	205	
6	0	0	0	0	505	204	
7	0	0	0	0	505	205	
8	0	0	0	0	504	205	
9	0	0	0	0	504	205	
10	0	0	0	0	503	205	
11	0	0	0	0	502	205	
12	0	0	0	0	502	204	
13	0	0	0	0	502	205	
14	0	0	0	0	502	204	
15	0	0	0	0	502	205	
0	0	0	0	0	502	206	
1	0	0	0	0	502	204	
2	0	0	0	0	502	205	
3	0	0	0	0	502	206	
4	0	0	0	0	502	204	
5	0	0	0	0	501	205	
6	0	0	0	0	501	205	
7	0	0	0	0	500	204	
8	0	0	0	0	501	205	
9	0	0	0	0	502	205	
10	0	0	0	0	502	204	
11	0	0	0	0	502	205	
12	0	0	0	0	501	204	
13	0	0	0	0	502	205	
14	0	0	0	0	502	206	
15	0	0	0	0	502	204	
0	0	0	0	0	503	205	
1	0	0	0	0	504	205	
2	0	0	0	0	504	204	
3	0	0	0	0	503	205	
4	0	0	0	0	503	204	
5	0	0	0	0	505	205	
6	0	0	0	0	505	204	
7	0	0	0	0	505	205	
8	0	0	0	0	505	206	
9	0	0	0	0	505	204	
10	0	0	0	0	506	205	
11	0	0	0	0	505	206	
12	0	0	0	0	504	204	
13	0	0	0	0	505	205	
14	0	0	0	0	505	205	
15	0	0	0	0	505	204	
0	0	0	0	0	507	205	
1	0	0	0	0	508	205	
2	0	0	0	0	510	204	
3	0	0	0	0	511	205	
4	0	0	0	0	512	204	
5	0	0	0	0	512	205	
6	0	0	0	0	513	205	
7	0	0	0	0	515	204	
8	0	0	0	0	513	205	
9	0	0	0	0	514	205	
10	0	0	0	0	515	204	
11	0	0	0	0	515	205	
12	0	0	0	0	515	204	
13	0	0	0	0	515	206	
14	0	0	0	0	515	205	
15	0	0	0	0	517	204	
0	0	0	0	0	517	205	
1	0	0	0	0	516	204	
2	0	0	0	0	516	205	
3	0	0	0	0	516	205	
4	0	0	0	0	516	204	
5	0	0	0	0	517	206	
6	0	0	0	0	518	205	
7	0	0	0	0	517	204	
8	0	0	0	0	515	205	
9	0	0	0	0	514	205	
10	0	0	0	0	514	204	
11	0	0	0	0	513	204	
12	0	0	0	0	514	205	
13	0	0	0	0	515	204	
14	0	0	0	0	514	206	
15	0	0	0	0	515	205	
0	0	0	0	0	515	204	
1	0	0	0	0	515	205	
2	0	0	0	0	515	205	
3	0	0	0	0	514	204	
4	0	0	0	0	514	204	
5	0	0	0	0	513	205	
6	0	0	0	0	514	204	
7	0	0	0	0	515	205	
8	0	0	0	0	515	205	
9	0	0	0	0	515	204	
10	0	0	0	0	515	205	
11	0	0	0	0	516	204	
12	0	0	0	0	518	204	
13	0	0	0	0	519	205	
14	0	0	0	0	519	206	
15	0	0	0	0	520	204	
0	0	0	0	0	520	205	
1	0	0	0	0	520	205	
2	0	0	0	0	521	204	
3	0	0	0	0	521	204	
4	0	0	0	0	522	205	
5	0	0	0	0	522	205	
6	0	0	0	0	522	204	
7	0	0	0	0	521	205	
8	0	0	0	0	522	205	
9	0	0	0	0	523	204	
10	0	0	0	0	524	205	
11	0	0	0	0	525	205	
12	0	0	0	0	525	204	
13	0	0	0	0	525	204	
14	0	0	0	0	524	205	
15	0	0	0	0	524	205	
0	0	0	0	0	524	204	
1	0	0	0	0	524	205	
2	0	0	0	0	524	205	
3	0	0	0	0	524	204	
4	0	0	0	0	523	204	
5	0	0	0	0	524	205	
6	0	0	0	0	524	204	
7	0	0	0	0	523	203	
8	0	0	0	0	523	205	
9	0	0	0	0	521	205	
10	0	0	0	0	521	204	
11	0	0	0	0	519	205	
12	0	0	0	0	517	205	
13	0	0	0	0	516	205	
14	0	0	0	0	515	204	
15	0	0	0	0	513	205	
0	0	0	0	0	511	205	
1	0	0	0	0	509	204	
2	0	0	0	0	508	205	
3	0	0	0	0	504	205	
4	0	0	0	0	502	204	
5	0	0	0	0	500	204	
6	0	0	0	0	499	205	
7	0	0	0	0	498	205	
8	0	0	0	0	498	204	
9	0	0	0	0	497	205	
10	0	0	0	0	497	205	
11	0	0	0	0	497	204	
12	0	0	0	0	497	205	
13	0	0	0	0	498	205	
14	0	0	0	0	498	204	
15	0	0	0	0	497	205	
0	0	0	0	0	497	205	
1	0	0	0	0	496	204	
2	0	0	0	0	496	205	
3	0	0	0	0	495	205	
4	0	0	0	0	496	204	
5	0	0	0	0	497	205	
6	0	0	0	0	498	205	
7	0	0	0	0	499	204	
8	0	0	0	0	499	205	
9	0	0	0	0	500	205	
10	0	0	0	0	501	204	
11	0	0	0	0	502	205	
12	0	0	0	0	502	205	
13	0	0	0	0	502	204	
14	0	0	0	0	502	205	
15	0	0	0	0	502	205	
0	0	0	0	0	502	204	
1	0	0	0	0	502	204	
2	0	0	0	0	503	205	
3	0	0	0	0	502	204	
4	0	0	0	0	501	204	
5	0	0	0	0	500	205	
6	0	0	0	0	499	205	
7	0	0	0	0	499	204	
8	0	0	0	0	498	205	
9	0	0	0	0	498	205	
10	0	0	0	0	499	204	
11	0	0	0	0	500	205	
12	0	0	0	0	500	204	
13	0	0	0	0	499	205	
14	0	0	0	0	498	206	
15	0	0	0	0	497	204	
0	0	0	0	0	496	205	
1	0	0	0	0	495	205	
2	0	0	0	0	496	204	
3	0	0	0	0	495	204	
4	0	0	0	0	495	205	
5	0	0	0	0	495	204	
6	0	0	0	0	495	204	
7	0	0	0	0	495	205	
8	0	0	0	0	496	205	
9	0	0	0	0	496	204	
10	0	0	0	0	497	205	
11	0	0	0	0	497	205	
12	0	0	0	0	497	204	
13	0	0	0	0	496	205	
14	0	0	0	0	497	205	
15	0	0	0	0	497	204	
0	0	0	0	0	497	205	
1	0	0	0	0	497	205	
2	0	0	0	0	498	204	
3	0	0	0	0	498	205	
4	0	0	0	0	499	205	
5	0	0	0	0	500	204	
6	0	0	0	0	499	204	
7	0	0	0	0	500	205	
8	0	0	0	0	501	205	
9	0	0	0	0	500	204	
10	0	0	0	0	501	205	
11	0	0	0	0	501	205	
12	0	0	0	0	501	204	
13	0	0	0	0	500	205	
14	0	0	0	0	500	205	
15	0	0	0	0	500	204	
0	0	0	0	0	499	205	
1	0	0	0	0	499	205	
2	0	0	0	0	498	204	
3	0	0	0	0	497	204	
4	0	0	0	0	498	205	
5	0	0	0	0	498	204	
6	0	0	0	0	499	204	
7	0	0	0	0	499	205	
8	0	0	0	0	499	205	
9	0	0	0	0	499	204	
10	0	0	0	0	499	205	
11	0	0	0	0	499	205	
12	0	0	0	0	499	204	
13	0	0	0	0	500	205	
14	0	0	0	0	500	205	
15	0	0	0	0	500	204	
0	0	0	0	0	499	206	
1	0	0	0	0	499	205	
2	0	0	0	0	498	204	
3	0	0	0	0	499	203	
4	0	0	0	0	498	205	
5	0	0	0	0	499	205	
6	0	0	0	0	500	204	
7	0	0	0	0	500	205	
8	0	0	0	0	501	204	
9	0	0	0	0	501	204	
10	0	0	0	0	500	205	
11	0	0	0	0	500	205	
12	0	0	0	0	500	204	
13	0	0	0	0	501	205	
14	0	0	0	0	502	205	
15	0	0	0	0	502	204	
0	0	0	0	0	502	206	
1	0	0	0	0	504	205	
2	0	0	0	0	505	204	
3	0	0	0	0	506	205	
4	0	0	0	0	506	204	
5	0	0	0	0	507	204	
6	0	0	0	0	506	203	
7	0	0	0	0	506	204	
8	0	0	0	0	505	204	
9	0	0	0	0	505	203	
10	0	0	0	0	504	205	
11	0	0	0	0	504	204	
12	0	0	0	0	505	205	
13	0	0	0	0	505	204	
14	0	0	0	0	505	203	
15	0	0	0	0	508	205	
0	0	0	0	0	509	205	
1	0	0	0	0	511	204	
2	0	0	0	0	512	205	
3	0	0	0	0	514	204	
4	0	0	0	0	515	204	
5	0	0	0	0	516	203	
6	0	0	0	0	515	205	
7	0	0	0	0	514	205	
8	0	0	0	0	513	204	
9	0	0	0	0	513	205	
10	0	0	0	0	512	205	
11	0	0	0	0	512	204	
12	0	0	0	0	512	204	
13	0	0	0	0	514	204	
14	0	0	0	0	514	205	
15	0	0	0	0	515	203	
0	0	0	0	0	518	205	
1	0	0	0	0	519	204	
2	0	0	0	0	522	203	
3	0	0	0	0	525	204	
4	0	0	0	0	527	204	
5	0	0	0	0	529	205	
6	0	0	0	0	531	204	
7	0	0	0	0	535	204	
8	0	0	0	0	539	203	
9	0	0	0	0	542	204	
10	0	0	0	0	545	205	
11	0	0	0	0	548	203	
12	0	0	0	0	551	205	
13	0	0	0	0	553	204	
14	0	0	0	0	553	205	
15	0	0	0	0	552	204	
0	0	0	0	0	551	204	
1	0	0	0	0	550	203	
2	0	0	0	0	547	205	
3	0	0	0	0	543	205	
4	0	0	0	0	540	204	
5	0	0	0	0	536	205	
6	0	0	0	0	534	205	
7	0	0	0	0	531	203	
8	0	0	0	0	527	205	
9	0	0	0	0	522	205	
10	0	0	0	0	518	204	
11	0	0	0	0	511	204	
12	0	0	0	0	504	204	
13	0	0	0	0	496	204	
14	0	0	0	0	490	205	
15	0	0	0	0	484	205	
0	0	0	0	0	478	204	
1	0	0	0	0	473	205	
2	0	0	0	0	469	204	
3	0	0	0	0	464	204	
4	0	0	0	0	458	205	
5	0	0	0	0	453	205	
6	0	0	0	0	448	204	
7	0	0	0	0	444	205	
8	0	0	0	0	440	205	
9	0	0	0	0	436	204	
10	0	0	0	0	434	205	
11	0	0	0	0	434	205	
12	0	0	0	0	435	204	
13	0	0	0	0	438	204	
14	0	0	0	0	440	204	
15	0	0	0	0	444	204	
0	0	0	0	0	448	205	
1	0	0	0	0	452	204	
2	0	0	0	0	456	204	
3	0	0	0	0	461	204	
4	0	0	0	0	464	204	
5	0	0	0	0	467	204	
6	0	0	0	0	469	205	
7	0	0	0	0	474	205	
8	0	0	0	0	479	204	
9	0	0	0	0	484	205	
10	0	0	0	0	487	205	
11	0	0	0	0	490	204	
12	0	0	0	0	493	205	
13	0	0	0	0	496	204	
14	0	0	0	0	497	203	
15	0	0	0	0	499	205	
0	0	0	0	0	501	204	
1	0	0	0	0	504	205	
2	0	0	0	0	506	204	
3	0	0	0	0	508	204	
4	0	0	0	0	509	205	
5	0	0	0	0	510	205	
6	0	0	0	0	511	204	
7	0	0	0	0	511	205	
8	0	0	0	0	511	205	
9	0	0	0	0	512	203	
10	0	0	0	0	512	204	
11	0	0	0	0	512	205	
12	0	0	0	0	511	203	
13	0	0	0	0	512	204	
14	0	0	0	0	513	204	
15	0	0	0	0	513	204	
0	0	0	0	0	515	204	
1	0	0	0	0	516	203	
2	0	0	0	0	517	204	
3	0	0	0	0	518	204	
4	0	0	0	0	518	204	
5	0	0	0	0	519	204	
6	0	0	0	0	519	204	
7	0	0	0	0	519	205	
8	0	0	0	0	519	205	
9	0	0	0	0	521	204	
10	0	0	0	0	522	204	
11	0	0	0	0	523	205	
12	0	0	0	0	523	203	
13	0	0	0	0	524	204	
14	0	0	0	0	522	204	
15	0	0	0	0	521	203	
0	0	0	0	0	521	204	
1	0	0	0	0	522	205	
2	0	0	0	0	523	203	
3	0	0	0	0	522	204	
4	0	0	0	0	523	205	
5	0	0	0	0	523	203	
6	0	0	0	0	521	205	
7	0	0	0	0	520	204	
8	0	0	0	0	520	204	
9	0	0	0	0	521	204	
10	0	0	0	0	521	205	
11	0	0	0	0	521	204	
12	0	0	0	0	521	204	
13	0	0	0	0	521	204	
14	0	0	0	0	521	203	
15	0	0	0	0	521	204	
0	0	0	0	0	520	204	
1	0	0	0	0	521	205	
2	0	0	0	0	521	205	
3	0	0	0	0	521	203	
4	0	0	0	0	521	204	
5	0	0	0	0	521	205	
6	0	0	0	0	521	204	
7	0	0	0	0	521	204	
8	0	0	0	0	523	205	
9	0	0	0	0	523	203	
10	0	0	0	0	523	204	
11	0	0	0	0	522	203	
12	0	0	0	0	521	204	
13	0	0	0	0	521	205	
14	0	0	0	0	521	203	
15	0	0	0	0	520	204	
0	0	0	0	0	519	204	
1	0	0	0	0	518	204	
2	0	0	0	0	519	204	
3	0	0	0	0	520	204	
4	0	0	0	0	522	204	
5	0	0	0	0	523	204	
6	0	0	0	0	522	204	
7	0	0	0	0	523	204	
8	0	0	0	0	523	204	
9	0	0	0	0	523	204	
10	0	0	0	0	523	205	
11	0	0	0	0	523	205	
12	0	0	0	0	523	204	
13	0	0	0	0	522	204	
14	0	0	0	0	522	205	
15	0	0	0	0	523	203	
0	0	0	0	0	523	204	
1	0	0	0	0	524	205	
2	0	0	0	0	523	204	
3	0	0	0	0	524	205	
4	0	0	0	0	525	203	
5	0	0	0	0	525	204	
6	0	0	0	0	526	204	
7	0	0	0	0	527	204	
8	0	0	0	0	527	204	
9	0	0	0	0	526	204	
10	0	0	0	0	526	204	
11	0	0	0	0	526	205	
12	0	0	0	0	526	203	
13	0	0	0	0	526	204	
14	0	0	0	0	527	204	
15	0	0	0	0	528	204	
0	0	0	0	0	528	204	
1	0	0	0	0	527	204	
2	0	0	0	0	527	203	
3	0	0	0	0	527	204	
4	0	0	0	0	528	204	
5	0	0	0	0	527	205	
6	0	0	0	0	527	205	
7	0	0	0	0	527	203	
8	0	0	0	0	527	204	
9	0	0	0	0	527	204	
10	0	0	0	0	527	203	
11	0	0	0	0	528	204	
12	0	0	0	0	529	204	
13	0	0	0	0	529	205	
14	0	0	0	0	529	205	
15	0	0	0	0	528	203	
0	0	0	0	0	528	204	
1	0	0	0	0	529	204	
2	0	0	0	0	531	203	
3	0	0	0	0	531	204	
4	0	0	0	0	531	204	
5	0	0	0	0	531	205	
6	0	0	0	0	531	205	
7	0	0	0	0	531	204	
8	0	0	0	0	531	205	
9	0	0	0	0	529	205	
10	0	0	0	0	529	204	
11	0	0	0	0	529	204	
12	0	0	0	0	529	205	
13	0	0	0	0	529	203	
14	0	0	0	0	529	204	
15	0	0	0	0	529	205	
0	0	0	0	0	529	203	
1	0	0	0	0	527	204	
2	0	0	0	0	526	205	
3	0	0	0	0	527	203	
4	0	0	0	0	528	204	
5	0	0	0	0	528	204	
6	0	0	0	0	527	204	
7	0	0	0	0	526	204	
8	0	0	0	0	526	204	
9	0	0	0	0	526	203	
10	0	0	0	0	526	204	
11	0	0	0	0	526	204	
12	0	0	0	0	526	204	
13	0	0	0	0	527	205	
14	0	0	0	0	528	203	
15	0	0	0	0	529	204	
0	0	0	0	0	528	204	
1	0	0	0	0	528	205	
2	0	0	0	0	529	205	
3	0	0	0	0	530	203	
4	0	0	0	0	530	204	
5	0	0	0	0	531	204	
6	0	0	0	0	531	203	
7	0	0	0	0	532	204	
8	0	0	0	0	531	204	
9	0	0	0	0	532	203	
10	0	0	0	0	532	204	
11	0	0	0	0	531	204	
12	0	0	0	0	532	203	
13	0	0	0	0	533	204	
14	0	0	0	0	534	204	
15	0	0	0	0	536	204	
0	0	0	0	0	537	204	
1	0	0	0	0	537	204	
2	0	0	0	0	537	204	
3	0	0	0	0	536	205	
4	0	0	0	0	536	203	
5	0	0	0	0	535	204	
6	0	0	0	0	534	205	
7	0	0	0	0	532	203	
8	0	0	0	0	531	204	
9	0	0	0	0	529	205	
10	0	0	0	0	528	204	
11	0	0	0	0	528	205	
12	0	0	0	0	528	204	
13	0	0	0	0	527	204	
14	0	0	0	0	526	203	
15	0	0	0	0	526	204	
0	0	0	0	0	524	204	
1	0	0	0	0	523	203	
2	0	0	0	0	522	204	
3	0	0	0	0	523	205	
4	0	0	0	0	523	203	
5	0	0	0	0	524	204	
6	0	0	0	0	523	204	
7	0	0	0	0	524	203	
8	0	0	0	0	523	204	
9	0	0	0	0	522	205	
10	0	0	0	0	521	203	
11	0	0	0	0	521	204	
12	0	0	0	0	521	204	
13	0	0	0	0	522	204	
14	0	0	0	0	521	204	
15	0	0	0	0	521	204	
0	0	0	0	0	520	203	
1	0	0	0	0	520	204	
2	0	0	0	0	520	204	
3	0	0	0	0	519	205	
4	0	0	0	0	518	205	
5	0	0	0	0	517	203	
6	0	0	0	0	517	204	
7	0	0	0	0	517	205	
8	0	0	0	0	517	203	
9	0	0	0	0	518	204	
10	0	0	0	0	518	204	
11	0	0	0	0	519	204	
12	0	0	0	0	519	205	
13	0	0	0	0	520	204	
14	0	0	0	0	521	204	
15	0	0	0	0	521	203	
0	0	0	0	0	521	204	
1	0	0	0	0	521	205	
2	0	0	0	0	520	203	
3	0	0	0	0	520	204	
4	0	0	0	0	521	205	
5	0	0	0	0	521	204	
6	0	0	0	0	521	204	
7	0	0	0	0	521	204	
8	0	0	0	0	520	205	
9	0	0	0	0	519	205	
10	0	0	0	0	518	203	
11	0	0	0	0	519	204	
12	0	0	0	0	520	205	
13	0	0	0	0	521	204	
14	0	0	0	0	521	205	
15	0	0	0	0	519	204	
0	0	0	0	0	518	204	
1	0	0	0	0	517	205	
2	0	0	0	0	516	204	
3	0	0	0	0	515	204	
4	0	0	0	0	514	205	
5	0	0	0	0	513	204	
6	0	0	0	0	512	203	
7	0	0	0	0	511	204	
8	0	0	0	0	511	204	
9	0	0	0	0	510	204	
10	0	0	0	0	509	204	
11	0	0	0	0	508	205	
12	0	0	0	0	507	203	
13	0	0	0	0	505	204	
14	0	0	0	0	503	204	
15	0	0	0	0	503	204	
0	0	0	0	0	502	204	
1	0	0	0	0	501	204	
2	0	0	0	0	501	204	
3	0	0	0	0	500	205	
4	0	0	0	0	499	203	
5	0	0	0	0	499	204	
6	0	0	0	0	497	205	
7	0	0	0	0	496	203	
8	0	0	0	0	496	204	
9	0	0	0	0	495	204	
10	0	0	0	0	494	205	
11	0	0	0	0	495	205	
12	0	0	0	0	494	204	
13	0	0	0	0	494	204	
14	0	0	0	0	493	204	
15	0	0	0	0	492	204	
0	0	0	0	0	492	204	
1	0	0	0	0	491	204	
2	0	0	0	0	490	204	
3	0	0	0	0	490	203	
4	0	0	0	0	491	204	
5	0	0	0	0	491	205	
6	0	0	0	0	491	204	
7	0	0	0	0	491	204	
8	0	0	0	0	491	204	
9	0	0	0	0	491	203	
10	0	0	0	0	492	204	
11	0	0	0	0	492	205	
12	0	0	0	0	492	203	
13	0	0	0	0	492	204	
14	0	0	0	0	492	205	
15	0	0	0	0	493	203	
0	0	0	0	0	493	204	
1	0	0	0	0	493	204	
2	0	0	0	0	493	203	
3	0	0	0	0	493	204	
4	0	0	0	0	493	204	
5	0	0	0	0	493	203	
6	0	0	0	0	493	204	
7	0	0	0	0	492	204	
8	0	0	0	0	491	204	
9	0	0	0	0	491	205	
10	0	0	0	0	491	203	
11	0	0	0	0	491	204	
12	0	0	0	0	491	205	
13	0	0	0	0	491	204	
14	0	0	0	0	492	204	
15	0	0	0	0	492	204	
0	0	0	0	0	493	204	
1	0	0	0	0	493	204	
2	0	0	0	0	494	205	
3	0	0	0	0	494	203	
4	0	0	0	0	493	204	
5	0	0	0	0	494	205	
6	0	0	0	0	494	204	
7	0	0	0	0	494	204	
8	0	0	0	0	495	205	
9	0	0	0	0	495	204	
10	0	0	0	0	495	204	
11	0	0	0	0	494	204	
12	0	0	0	0	494	205	
13	0	0	0	0	494	205	
14	0	0	0	0	495	203	
15	0	0	0	0	495	204	
0	0	0	0	0	495	205	
1	0	0	0	0	494	204	
2	0	0	0	0	493	204	
3	0	0	0	0	492	204	
4	0	0	0	0	492	203	
5	0	0	0	0	492	204	
6	0	0	0	0	492	204	
7	0	0	0	0	492	203	
8	0	0	0	0	491	204	
9	0	0	0	0	491	205	
10	0	0	0	0	492	203	
11	0	0	0	0	492	204	
12	0	0	0	0	492	204	
13	0	0	0	0	492	204	
14	0	0	0	0	491	204	
15	0	0	0	0	492	204	
0	0	0	0	0	492	203	
1	0	0	0	0	492	204	
2	0	0	0	0	491	204	
3	0	0	0	0	491	203	
4	0	0	0	0	491	204	
5	0	0	0	0	492	204	
6	0	0	0	0	492	203	
7	0	0	0	0	491	204	
8	0	0	0	0	491	204	
9	0	0	0	0	491	203	
10	0	0	0	0	492	204	
11	0	0	0	0	492	204	
12	0	0	0	0	493	203	
13	0	0	0	0	494	204	
14	0	0	0	0	495	205	
15	0	0	0	0	494	204	
0	0	0	0	0	495	205	
1	0	0	0	0	494	204	
2	0	0	0	0	494	204	
3	0	0	0	0	494	205	
4	0	0	0	0	494	204	
5	0	0	0	0	494	204	
6	0	0	0	0	494	204	
7	0	0	0	0	495	204	
8	0	0	0	0	496	204	
9	0	0	0	0	496	204	
10	0	0	0	0	497	204	
11	0	0	0	0	497	204	
12	0	0	0	0	498	203	
13	0	0	0	0	499	204	
14	0	0	0	0	499	204	
15	0	0	0	0	499	203	
0	0	0	0	0	497	204	
1	0	0	0	0	496	205	
2	0	0	0	0	495	203	
3	0	0	0	0	495	204	
4	0	0	0	0	495	204	
5	0	0	0	0	496	205	
6	0	0	0	0	496	204	
7	0	0	0	0	496	204	
8	0	0	0	0	496	204	
9	0	0	0	0	496	204	
10	0	0	0	0	496	204	
11	0	0	0	0	494	205	
12	0	0	0	0	495	205	
13	0	0	0	0	495	204	
14	0	0	0	0	496	204	
15	0	0	0	0	498	204	
0	0	0	0	0	499	204	
1	0	0	0	0	499	205	
2	0	0	0	0	499	204	
3	0	0	0	0	500	204	
4	0	0	0	0	500	204	
5	0	0	0	0	500	204	
6	0	0	0	0	500	204	
7	0	0	0	0	501	204	
8	0	0	0	0	501	204	
9	0	0	0	0	502	204	
10	0	0	0	0	502	204	
11	0	0	0	0	502	205	
12	0	0	0	0	501	203	
13	0	0	0	0	501	204	
14	0	0	0	0	499	205	
15	0	0	0	0	499	203	
0	0	0	0	0	498	204	
1	0	0	0	0	498	205	
2	0	0	0	0	499	203	
3	0	0	0	0	497	204	
4	0	0	0	0	497	205	
5	0	0	0	0	498	203	
6	0	0	0	0	499	204	
7	0	0	0	0	500	204	
8	0	0	0	0	500	204	
9	0	0	0	0	499	205	
10	0	0	0	0	500	204	
11	0	0	0	0	501	204	
12	0	0	0	0	501	204	
13	0	0	0	0	501	203	
14	0	0	0	0	501	204	
15	0	0	0	0	501	204	
0	0	0	0	0	502	203	
1	0	0	0	0	503	204	
2	0	0	0	0	504	204	
3	0	0	0	0	503	205	
4	0	0	0	0	503	204	
5	0	0	0	0	503	203	
6	0	0	0	0	503	204	
7	0	0	0	0	504	204	
8	0	0	0	0	504	205	
9	0	0	0	0	506	204	
10	0	0	0	0	507	204	
11	0	0	0	0	508	204	
12	0	0	0	0	508	204	
13	0	0	0	0	509	205	
14	0	0	0	0	509	205	
15	0	0	0	0	510	203	
0	0	0	0	0	510	204	
1	0	0	0	0	510	204	
2	0	0	0	0	511	205	
3	0	0	0	0	512	205	
4	0	0	0	0	512	203	
5	0	0	0	0	512	204	
6	0	0	0	0	513	203	
7	0	0	0	0	514	204	
8	0	0	0	0	515	204	
9	0	0	0	0	517	204	
10	0	0	0	0	518	205	
11	0	0	0	0	518	203	
12	0	0	0	0	517	204	
13	0	0	0	0	517	203	
14	0	0	0	0	517	204	
15	0	0	0	0	518	204	
0	0	0	0	0	519	204	
1	0	0	0	0	519	204	
2	0	0	0	0	519	205	
3	0	0	0	0	519	204	
4	0	0	0	0	519	204	
5	0	0	0	0	520	205	
6	0	0	0	0	520	203	
7	0	0	0	0	521	204	
8	0	0	0	0	521	203	
9	0	0	0	0	522	204	
10	0	0	0	0	522	204	
11	0	0	0	0	521	204	
12	0	0	0	0	520	204	
13	0	0	0	0	519	204	
14	0	0	0	0	519	205	
15	0	0	0	0	520	204	
0	0	0	0	0	520	205	
1	0	0	0	0	520	203	
2	0	0	0	0	519	204	
3	0	0	0	0	519	203	
4	0	0	0	0	518	204	
5	0	0	0	0	519	204	
6	0	0	0	0	519	204	
7	0	0	0	0	518	205	
8	0	0	0	0	519	203	
9	0	0	0	0	520	205	
10	0	0	0	0	520	203	
11	0	0	0	0	520	204	
12	0	0	0	0	519	203	
13	0	0	0	0	518	204	
14	0	0	0	0	517	204	
15	0	0	0	0	517	204	
0	0	0	0	0	516	204	
1	0	0	0	0	516	205	
2	0	0	0	0	516	204	
3	0	0	0	0	517	203	
4	0	0	0	0	517	204	
5	0	0	0	0	517	204	
6	0	0	0	0	515	203	
7	0	0	0	0	515	204	
8	0	0	0	0	515	204	
9	0	0	0	0	515	204	
10	0	0	0	0	515	205	
11	0	0	0	0	515	203	
12	0	0	0	0	518	204	
13	0	0	0	0	518	204	
14	0	0	0	0	518	205	
15	0	0	0	0	518	204	
0	0	0	0	0	518	203	
1	0	0	0	0	518	204	
2	0	0	0	0	518	204	
3	0	0	0	0	518	204	
4	0	0	0	0	518	204	
5	0	0	0	0	518	204	
6	0	0	0	0	519	205	
7	0	0	0	0	519	204	
8	0	0	0	0	520	203	
9	0	0	0	0	519	204	
10	0	0	0	0	518	204	
11	0	0	0	0	518	205	
12	0	0	0	0	518	204	
13	0	0	0	0	518	204	
14	0	0	0	0	517	204	
15	0	0	0	0	517	204	
0	0	0	0	0	518	204	
1	0	0	0	0	519	204	
2	0	0	0	0	518	205	
3	0	0	0	0	518	203	
4	0	0	0	0	518	204	
5	0	0	0	0	517	204	
6	0	0	0	0	517	204	
7	0	0	0	0	517	204	
8	0	0	0	0	516	204	
9	0	0	0	0	517	203	
10	0	0	0	0	517	204	
11	0	0	0	0	516	205	
12	0	0	0	0	516	203	
13	0	0	0	0	515	204	
14	0	0	0	0	515	204	
15	0	0	0	0	514	203	
0	0	0	0	0	513	204	
1	0	0	0	0	513	204	
2	0	0	0	0	513	203	
3	0	0	0	0	514	204	
4	0	0	0	0	515	205	
5	0	0	0	0	516	203	
6	0	0	0	0	516	204	
7	0	0	0	0	515	204	
8	0	0	0	0	515	204	
9	0	0	0	0	515	204	
10	0	0	0	0	515	204	
11	0	0	0	0	514	203	
12	0	0	0	0	513	204	
13	0	0	0	0	512	204	
14	0	0	0	0	512	203	
15	0	0	0	0	512	204	
0	0	0	0	0	511	204	
1	0	0	0	0	511	203	
2	0	0	0	0	510	204	
3	0	0	0	0	510	204	
4	0	0	0	0	509	205	
5	0	0	0	0	508	204	
6	0	0	0	0	509	204	
7	0	0	0	0	509	204	
8	0	0	0	0	510	204	
9	0	0	0	0	511	204	
10	0	0	0	0	510	203	
11	0	0	0	0	511	204	
12	0	0	0	0	510	204	
13	0	0	0	0	511	203	
14	0	0	0	0	510	204	
15	0	0	0	0	509	204	
0	0	0	0	0	509	204	
1	0	0	0	0	508	204	
2	0	0	0	0	508	204	
3	0	0	0	0	509	205	
4	0	0	0	0	510	204	
5	0	0	0	0	511	204	
6	0	0	0	0	511	205	
7	0	0	0	0	512	204	
8	0	0	0	0	512	203	
9	0	0	0	0	512	205	
10	0	0	0	0	512	204	
11	0	0	0	0	511	203	
12	0	0	0	0	511	204	
13	0	0	0	0	511	204	
14	0	0	0	0	511	204	
15	0	0	0	0	511	204	
0	0	0	0	0	512	204	
1	0	0	0	0	512	204	
2	0	0	0	0	512	204	
3	0	0	0	0	511	204	
4	0	0	0	0	510	204	
5	0	0	0	0	509	203	
6	0	0	0	0	508	204	
7	0	0	0	0	507	204	
8	0	0	0	0	506	204	
9	0	0	0	0	505	204	
10	0	0	0	0	505	204	
11	0	0	0	0	506	203	
12	0	0	0	0	506	204	
13	0	0	0	0	507	204	
14	0	0	0	0	506	203	
15	0	0	0	0	506	204	
0	0	0	0	0	505	205	
1	0	0	0	0	505	203	
2	0	0	0	0	505	204	
3	0	0	0	0	505	204	
4	0	0	0	0	504	203	
5	0	0	0	0	504	205	
6	0	0	0	0	503	203	
7	0	0	0	0	504	204	
8	0	0	0	0	505	204	
9	0	0	0	0	504	204	
10	0	0	0	0	504	204	
11	0	0	0	0	503	204	
12	0	0	0	0	502	203	
13	0	0	0	0	502	204	
14	0	0	0	0	502	204	
15	0	0	0	0	502	205	
0	0	0	0	0	503	205	
1	0	0	0	0	504	204	
2	0	0	0	0	504	204	
3	0	0	0	0	505	204	
4	0	0	0	0	506	204	
5	0	0	0	0	507	204	
6	0	0	0	0	507	204	
7	0	0	0	0	507	204	
8	0	0	0	0	507	204	
9	0	0	0	0	507	204	
10	0	0	0	0	508	203	
11	0	0	0	0	509	204	
12	0	0	0	0	510	205	
13	0	0	0	0	511	203	
14	0	0	0	0	510	204	
15	0	0	0	0	511	204	
0	0	0	0	0	511	203	
1	0	0	0	0	510	204	
2	0	0	0	0	511	204	
3	0	0	0	0	511	203	
4	0	0	0	0	511	204	
5	0	0	0	0	511	204	
6	0	0	0	0	512	203	
7	0	0	0	0	512	204	
8	0	0	0	0	513	204	
9	0	0	0	0	513	204	
10	0	0	0	0	515	204	
11	0	0	0	0	515	204	
12	0	0	0	0	514	204	
13	0	0	0	0	513	204	
14	0	0	0	0	513	204	
15	0	0	0	0	512	204	
0	0	0	0	0	512	205	
1	0	0	0	0	512	203	
2	0	0	0	0	512	204	
3	0	0	0	0	512	204	
4	0	0	0	0	512	203	
5	0	0	0	0	513	204	
6	0	0	0	0	514	205	
7	0	0	0	0	514	203	
8	0	0	0	0	515	204	
9	0	0	0	0	515	204	
10	0	0	0	0	515	204	
11	0	0	0	0	517	204	
12	0	0	0	0	519	204	
13	0	0	0	0	520	204	
14	0	0	0	0	519	204	
15	0	0	0	0	519	203	
0	0	0	0	0	521	204	
1	0	0	0	0	521	204	
2	0	0	0	0	522	204	
3	0	0	0	0	522	204	
4	0	0	0	0	521	203	
5	0	0	0	0	521	204	
6	0	0	0	0	521	204	
7	0	0	0	0	521	203	
8	0	0	0	0	521	204	
9	0	0	0	0	522	205	
10	0	0	0	0	522	203	
11	0	0	0	0	523	204	
12	0	0	0	0	523	205	
13	0	0	0	0	523	203	
14	0	0	0	0	523	204	
15	0	0	0	0	523	205	
0	0	0	0	0	522	203	
1	0	0	0	0	522	204	
2	0	0	0	0	522	204	
3	0	0	0	0	521	204	
4	0	0	0	0	520	205	
5	0	0	0	0	519	203	
6	0	0	0	0	518	204	
7	0	0	0	0	517	204	
8	0	0	0	0	515	204	
9	0	0	0	0	514	204	
10	0	0	0	0	513	203	
11	0	0	0	0	511	204	
12	0	0	0	0	510	204	
13	0	0	0	0	508	203	
14	0	0	0	0	507	204	
15	0	0	0	0	504	204	
0	0	0	0	0	502	205	
1	0	0	0	0	500	204	
2	0	0	0	0	499	204	
3	0	0	0	0	498	204	
4	0	0	0	0	497	205	
5	0	0	0	0	497	203	
6	0	0	0	0	497	204	
7	0	0	0	0	497	205	
8	0	0	0	0	496	203	
9	0	0	0	0	497	204	
10	0	0	0	0	496	205	
11	0	0	0	0	496	203	
12	0	0	0	0	496	204	
13	0	0	0	0	495	205	
14	0	0	0	0	496	203	
15	0	0	0	0	496	204	
0	0	0	0	0	497	204	
1	0	0	0	0	498	204	
2	0	0	0	0	499	205	
3	0	0	0	0	500	203	
4	0	0	0	0	502	204	
5	0	0	0	0	503	204	
6	0	0	0	0	503	205	
7	0	0	0	0	502	204	
8	0	0	0	0	501	204	
9	0	0	0	0	501	204	
10	0	0	0	0	502	205	
11	0	0	0	0	501	203	
12	0	0	0	0	501	204	
13	0	0	0	0	502	204	
14	0	0	0	0	501	203	
15	0	0	0	0	502	204	
0	0	0	0	0	502	204	
1	0	0	0	0	501	203	
2	0	0	0	0	502	204	
3	0	0	0	0	502	204	
4	0	0	0	0	502	203	
5	0	0	0	0	503	204	
6	0	0	0	0	504	204	
7	0	0	0	0	503	203	
8	0	0	0	0	502	204	
9	0	0	0	0	503	204	
10	0	0	0	0	503	205	
11	0	0	0	0	503	205	
12	0	0	0	0	503	203	
13	0	0	0	0	504	204	
14	0	0	0	0	504	205	
15	0	0	0	0	504	204	
0	0	0	0	0	504	205	
1	0	0	0	0	504	203	
2	0	0	0	0	504	204	
3	0	0	0	0	504	205	
4	0	0	0	0	505	203	
5	0	0	0	0	505	204	
6	0	0	0	0	507	203	
7	0	0	0	0	508	204	
8	0	0	0	0	508	203	
9	0	0	0	0	507	204	
10	0	0	0	0	507	204	
11	0	0	0	0	508	203	
12	0	0	0	0	508	204	
13	0	0	0	0	508	204	
14	0	0	0	0	508	203	
15	0	0	0	0	508	204	
0	0	0	0	0	508	205	
1	0	0	0	0	507	204	
2	0	0	0	0	507	204	
3	0	0	0	0	506	204	
4	0	0	0	0	506	203	
5	0	0	0	0	506	204	
6	0	0	0	0	506	204	
7	0	0	0	0	508	204	
8	0	0	0	0	508	204	
9	0	0	0	0	509	204	
10	0	0	0	0	510	204	
11	0	0	0	0	510	204	
12	0	0	0	0	510	204	
13	0	0	0	0	510	204	
14	0	0	0	0	509	204	
15	0	0	0	0	509	203	
0	0	0	0	0	509	205	
1	0	0	0	0	508	205	
2	0	0	0	0	508	204	
3	0	0	0	0	506	204	
4	0	0	0	0	505	205	
5	0	0	0	0	507	203	
6	0	0	0	0	508	204	
7	0	0	0	0	509	205	
8	0	0	0	0	510	203	
9	0	0	0	0	510	204	
10	0	0	0	0	511	204	
11	0	0	0	0	511	203	
12	0	0	0	0	511	204	
13	0	0	0	0	512	204	
14	0	0	0	0	511	203	
15	0	0	0	0	511	204	
0	0	0	0	0	510	204	
1	0	0	0	0	509	203	
2	0	0	0	0	508	204	
3	0	0	0	0	507	205	
4	0	0	0	0	506	203	
5	0	0	0	0	506	204	
6	0	0	0	0	505	205	
7	0	0	0	0	504	203	
8	0	0	0	0	504	204	
9	0	0	0	0	504	204	
10	0	0	0	0	503	203	
11	0	0	0	0	502	204	
12	0	0	0	0	501	205	
13	0	0	0	0	502	203	
14	0	0	0	0	501	204	
15	0	0	0	0	500	203	
0	0	0	0	0	500	204	
1	0	0	0	0	499	204	
2	0	0	0	0	499	203	
3	0	0	0	0	500	204	
4	0	0	0	0	500	204	
5	0	0	0	0	501	204	
6	0	0	0	0	502	204	
7	0	0	0	0	503	204	
8	0	0	0	0	503	205	
9	0	0	0	0	503	204	
10	0	0	0	0	504	204	
11	0	0	0	0	504	205	
12	0	0	0	0	506	204	
13	0	0	0	0	507	204	
14	0	0	0	0	508	205	
15	0	0	0	0	510	204	
0	0	0	0	0	510	204	
1	0	0	0	0	511	204	
2	0	0	0	0	511	204	
3	0	0	0	0	512	204	
4	0	0	0	0	513	203	
5	0	0	0	0	513	204	
6	0	0	0	0	513	204	
7	0	0	0	0	514	204	
8	0	0	0	0	514	204	
9	0	0	0	0	514	204	
10	0	0	0	0	514	203	
11	0	0	0	0	516	204	
12	0	0	0	0	517	204	
13	0	0	0	0	519	203	
14	0	0	0	0	520	204	
15	0	0	0	0	522	204	
0	0	0	0	0	523	203	
1	0	0	0	0	525	205	
2	0	0	0	0	527	204	
3	0	0	0	0	531	203	
4	0	0	0	0	535	204	
5	0	0	0	0	539	204	
6	0	0	0	0	543	203	
7	0	0	0	0	547	204	
8	0	0	0	0	550	204	
9	0	0	0	0	552	203	
10	0	0	0	0	554	204	
11	0	0	0	0	554	204	
12	0	0	0	0	553	203	
13	0	0	0	0	551	204	
14	0	0	0	0	549	205	
15	0	0	0	0	546	203	
0	0	0	0	0	543	204	
1	0	0	0	0	539	204	
2	0	0	0	0	536	203	
3	0	0	0	0	530	204	
4	0	0	0	0	526	205	
5	0	0	0	0	519	203	
6	0	0	0	0	514	204	
7	0	0	0	0	509	204	
8	0	0	0	0	504	203	
9	0	0	0	0	500	204	
10	0	0	0	0	495	204	
11	0	0	0	0	490	205	
12	0	0	0	0	484	204	
13	0	0	0	0	479	204	
14	0	0	0	0	472	205	
15	0	0	0	0	468	205	
0	0	0	0	0	465	204	
1	0	0	0	0	461	205	
2	0	0	0	0	456	204	
3	0	0	0	0	452	204	
4	0	0	0	0	448	204	
5	0	0	0	0	442	204	
6	0	0	0	0	435	204	
7	0	0	0	0	431	204	
8	0	0	0	0	428	204	
9	0	0	0	0	427	204	
10	0	0	0	0	427	204	
11	0	0	0	0	429	204	
12	0	0	0	0	432	204	
13	0	0	0	0	435	204	
14	0	0	0	0	438	205	
15	0	0	0	0	443	203	
0	0	0	0	0	449	204	
1	0	0	0	0	454	205	
2	0	0	0	0	459	203	
3	0	0	0	0	463	204	
4	0	0	0	0	467	204	
5	0	0	0	0	472	204	
6	0	0	0	0	478	204	
7	0	0	0	0	483	204	
8	0	0	0	0	486	204	
9	0	0	0	0	489	203	
10	0	0	0	0	492	204	
11	0	0	0	0	494	205	
12	0	0	0	0	496	203	
13	0	0	0	0	499	204	
14	0	0	0	0	501	204	
15	0	0	0	0	501	203	
0	0	0	0	0	502	204	
1	0	0	0	0	503	204	
2	0	0	0	0	503	203	
3	0	0	0	0	504	204	
4	0	0	0	0	504	204	
5	0	0	0	0	504	203	
6	0	0	0	0	505	204	
7	0	0	0	0	506	204	
8	0	0	0	0	507	203	
9	0	0	0	0	507	204	
10	0	0	0	0	508	204	
11	0	0	0	0	510	203	
12	0	0	0	0	511	204	
13	0	0	0	0	511	204	
14	0	0	0	0	512	203	
15	0	0	0	0	512	205	
0	0	0	0	0	512	204	
1	0	0	0	0	512	203	
2	0	0	0	0	512	204	
3	0	0	0	0	512	204	
4	0	0	0	0	513	204	
5	0	0	0	0	514	205	
6	0	0	0	0	514	203	
7	0	0	0	0	514	204	
8	0	0	0	0	515	204	
9	0	0	0	0	514	203	
10	0	0	0	0	513	204	
11	0	0	0	0	513	204	
12	0	0	0	0	513	204	
13	0	0	0	0	512	204	
14	0	0	0	0	512	204	
15	0	0	0	0	512	203	
0	0	0	0	0	512	204	
1	0	0	0	0	511	204	
2	0	0	0	0	511	205	
3	0	0	0	0	510	204	
4	0	0	0	0	510	203	
5	0	0	0	0	510	205	
6	0	0	0	0	510	204	
7	0	0	0	0	509	204	
8	0	0	0	0	509	205	
9	0	0	0	0	510	204	
10	0	0	0	0	510	203	
11	0	0	0	0	511	205	
12	0	0	0	0	511	204	
13	0	0	0	0	511	204	
14	0	0	0	0	510	205	
15	0	0	0	0	510	204	
0	0	0	0	0	509	204	
1	0	0	0	0	510	203	
2	0	0	0	0	510	204	
3	0	0	0	0	512	204	
4	0	0	0	0	512	203	
5	0	0	0	0	513	204	
6	0	0	0	0	513	203	
7	0	0	0	0	513	204	
8	0	0	0	0	514	204	
9	0	0	0	0	515	203	
10	0	0	0	0	517	205	
11	0	0	0	0	518	204	
12	0	0	0	0	518	203	
13	0	0	0	0	518	205	
14	0	0	0	0	517	204	
15	0	0	0	0	518	203	
0	0	0	0	0	518	204	
1	0	0	0	0	518	204	
2	0	0	0	0	517	203	
3	0	0	0	0	517	204	
4	0	0	0	0	516	203	
5	0	0	0	0	515	204	
6	0	0	0	0	514	204	
7	0	0	0	0	514	204	
8	0	0	0	0	513	203	
9	0	0	0	0	513	204	
10	0	0	0	0	513	204	
11	0	0	0	0	513	203	
12	0	0	0	0	512	204	
13	0	0	0	0	512	204	
14	0	0	0	0	512	203	
15	0	0	0	0	512	204	
0	0	0	0	0	511	204	
1	0	0	0	0	511	203	
2	0	0	0	0	511	204	
3	0	0	0	0	511	204	
4	0	0	0	0	511	203	
5	0	0	0	0	512	204	
6	0	0	0	0	511	204	
7	0	0	0	0	512	203	
8	0	0	0	0	512	204	
9	0	0	0	0	513	204	
10	0	0	0	0	513	203	
11	0	0	0	0	512	204	
12	0	0	0	0	511	203	
13	0	0	0	0	512	204	
14	0	0	0	0	512	204	
15	0	0	0	0	512	203	
0	0	0	0	0	512	204	
1	0	0	0	0	513	204	
2	0	0	0	0	513	203	
3	0	0	0	0	513	204	
4	0	0	0	0	514	204	
5	0	0	0	0	514	203	
6	0	0	0	0	514	204	
7	0	0	0	0	515	204	
8	0	0	0	0	515	204	
9	0	0	0	0	515	203	
10	0	0	0	0	516	204	
11	0	0	0	0	516	204	
12	0	0	0	0	516	203	
13	0	0	0	0	515	204	
14	0	0	0	0	515	204	
15	0	0	0	0	516	203	
0	0	0	0	0	515	204	
1	0	0	0	0	516	203	
2	0	0	0	0	515	205	
3	0	0	0	0	514	204	
4	0	0	0	0	514	204	
5	0	0	0	0	514	203	
6	0	0	0	0	513	204	
7	0	0	0	0	513	204	
8	0	0	0	0	513	203	
9	0	0	0	0	513	204	
10	0	0	0	0	512	204	
11	0	0	0	0	512	203	
12	0	0	0	0	511	204	
13	0	0	0	0	511	204	
14	0	0	0	0	511	203	
15	0	0	0	0	511	204	
0	0	0	0	0	511	204	
1	0	0	0	0	512	204	
2	0	0	0	0	512	204	
3	0	0	0	0	513	204	
4	0	0	0	0	513	203	
5	0	0	0	0	513	204	
6	0	0	0	0	513	204	
7	0	0	0	0	514	203	
8	0	0	0	0	515	204	
9	0	0	0	0	516	204	
10	0	0	0	0	519	203	
11	0	0	0	0	519	204	
12	0	0	0	0	520	204	
13	0	0	0	0	521	203	
14	0	0	0	0	520	204	
15	0	0	0	0	520	204	
0	0	0	0	0	519	203	
1	0	0	0	0	520	204	
2	0	0	0	0	520	204	
3	0	0	0	0	519	203	
4	0	0	0	0	519	204	
5	0	0	0	0	520	204	
6	0	0	0	0	520	203	
7	0	0	0	0	521	205	
8	0	0	0	0	522	204	
9	0	0	0	0	523	203	
10	0	0	0	0	523	204	
11	0	0	0	0	523	204	
12	0	0	0	0	521	203	
13	0	0	0	0	518	204	
14	0	0	0	0	518	204	
15	0	0	0	0	517	204	
0	0	0	0	0	516	203	
1	0	0	0	0	518	204	
2	0	0	0	0	519	204	
3	0	0	0	0	520	203	
4	0	0	0	0	522	204	
5	0	0	0	0	522	204	
6	0	0	0	0	522	203	
7	0	0	0	0	521	204	
8	0	0	0	0	521	204	
9	0	0	0	0	521	203	
10	0	0	0	0	520	204	
11	0	0	0	0	521	204	
12	0	0	0	0	520	203	
13	0	0	0	0	520	204	
14	0	0	0	0	519	204	
15	0	0	0	0	519	204	
0	0	0	0	0	519	203	
1	0	0	0	0	519	204	
2	0	0	0	0	520	204	
3	0	0	0	0	520	203	
4	0	0	0	0	520	204	
5	0	0	0	0	520	204	
6	0	0	0	0	519	203	
7	0	0	0	0	519	204	
8	0	0	0	0	519	204	
9	0	0	0	0	518	204	
10	0	0	0	0	518	203	
11	0	0	0	0	517	204	
12	0	0	0	0	516	204	
13	0	0	0	0	516	203	
14	0	0	0	0	515	204	
15	0	0	0	0	517	204	
0	0	0	0	0	518	203	
1	0	0	0	0	518	204	
2	0	0	0	0	519	204	
3	0	0	0	0	520	203	
4	0	0	0	0	519	203	
5	0	0	0	0	518	204	
6	0	0	0	0	518	204	
7	0	0	0	0	517	203	
8	0	0	0	0	516	204	
9	0	0	0	0	516	204	
10	0	0	0	0	516	204	
11	0	0	0	0	517	203	
12	0	0	0	0	517	204	
13	0	0	0	0	516	204	
14	0	0	0	0	516	203	
15	0	0	0	0	516	204	
0	0	0	0	0	516	204	
1	0	0	0	0	516	203	
2	0	0	0	0	515	204	
3	0	0	0	0	515	204	
4	0	0	0	0	515	203	
5	0	0	0	0	515	204	
6	0	0	0	0	515	204	
7	0	0	0	0	514	203	
8	0	0	0	0	514	204	
9	0	0	0	0	513	204	
10	0	0	0	0	512	203	
11	0	0	0	0	511	204	
12	0	0	0	0	509	204	
13	0	0	0	0	508	203	
14	0	0	0	0	507	204	
15	0	0	0	0	505	204	
0	0	0	0	0	504	203	
1	0	0	0	0	503	204	
2	0	0	0	0	502	204	
3	0	0	0	0	503	204	
4	0	0	0	0	503	204	
5	0	0	0	0	502	204	
6	0	0	0	0	500	203	
7	0	0	0	0	499	204	
8	0	0	0	0	499	204	
9	0	0	0	0	498	203	
10	0	0	0	0	497	204	
11	0	0	0	0	496	204	
12	0	0	0	0	496	204	
13	0	0	0	0	496	204	
14	0	0	0	0	496	204	
15	0	0	0	0	496	203	
0	0	0	0	0	496	204	
1	0	0	0	0	496	204	
2	0	0	0	0	496	203	
3	0	0	0	0	497	204	
4	0	0	0	0	496	203	
5	0	0	0	0	497	204	
6	0	0	0	0	497	203	
7	0	0	0	0	496	203	
8	0	0	0	0	496	204	
9	0	0	0	0	494	204	
10	0	0	0	0	492	203	
11	0	0	0	0	492	204	
12	0	0	0	0	492	204	
13	0	0	0	0	492	203	
14	0	0	0	0	491	203	
15	0	0	0	0	489	204	
0	0	0	0	0	489	204	
1	0	0	0	0	488	203	
2	0	0	0	0	489	204	
3	0	0	0	0	488	204	
4	0	0	0	0	489	203	
5	0	0	0	0	490	204	
6	0	0	0	0	491	204	
7	0	0	0	0	492	203	
8	0	0	0	0	493	204	
9	0	0	0	0	493	204	
10	0	0	0	0	494	203	
11	0	0	0	0	494	204	
12	0	0	0	0	494	204	
13	0	0	0	0	494	204	
14	0	0	0	0	493	203	
15	0	0	0	0	493	204	
0	0	0	0	0	492	204	
1	0	0	0	0	492	203	
2	0	0	0	0	492	204	
3	0	0	0	0	491	204	
4	0	0	0	0	491	203	
5	0	0	0	0	491	204	
6	0	0	0	0	492	204	
7	0	0	0	0	492	203	
8	0	0	0	0	492	204	
9	0	0	0	0	492	204	
10	0	0	0	0	491	203	
11	0	0	0	0	491	203	
12	0	0	0	0	491	204	
13	0	0	0	0	491	203	
14	0	0	0	0	491	203	
15	0	0	0	0	491	204	
0	0	0	0	0	492	204	
1	0	0	0	0	492	203	
2	0	0	0	0	491	204	
3	0	0	0	0	491	204	
4	0	0	0	0	492	203	
5	0	0	0	0	492	204	
6	0	0	0	0	492	204	
7	0	0	0	0	492	204	
8	0	0	0	0	492	203	
9	0	0	0	0	492	204	
10	0	0	0	0	492	204	
11	0	0	0	0	492	203	
12	0	0	0	0	492	204	
13	0	0	0	0	491	204	
14	0	0	0	0	490	203	
15	0	0	0	0	489	203	
0	0	0	0	0	490	204	
1	0	0	0	0	491	204	
2	0	0	0	0	491	203	
3	0	0	0	0	492	204	
4	0	0	0	0	492	204	
5	0	0	0	0	492	203	
6	0	0	0	0	492	204	
7	0	0	0	0	493	204	
8	0	0	0	0	494	203	
9	0	0	0	0	494	204	
10	0	0	0	0	495	204	
11	0	0	0	0	495	204	
12	0	0	0	0	495	203	
13	0	0	0	0	495	204	
14	0	0	0	0	495	204	
15	0	0	0	0	495	203	
0	0	0	0	0	496	204	
1	0	0	0	0	496	204	
2	0	0	0	0	495	203	
3	0	0	0	0	496	204	
4	0	0	0	0	496	204	
5	0	0	0	0	496	203	
6	0	0	0	0	497	204	
7	0	0	0	0	498	204	
8	0	0	0	0	499	203	
9	0	0	0	0	499	203	
10	0	0	0	0	500	204	
11	0	0	0	0	500	204	
12	0	0	0	0	500	203	
13	0	0	0	0	500	204	
14	0	0	0	0	499	204	
15	0	0	0	0	500	203	
0	0	0	0	0	500	204	
1	0	0	0	0	500	203	
2	0	0	0	0	499	204	
3	0	0	0	0	500	204	
4	0	0	0	0	501	203	
5	0	0	0	0	501	204	
6	0	0	0	0	500	203	
7	0	0	0	0	499	204	
8	0	0	0	0	498	204	
9	0	0	0	0	499	203	
10	0	0	0	0	499	204	
11	0	0	0	0	500	203	
12	0	0	0	0	500	203	
13	0	0	0	0	500	204	
14	0	0	0	0	500	204	
15	0	0	0	0	501	203	
0	0	0	0	0	500	204	
1	0	0	0	0	500	204	
2	0	0	0	0	500	203	
3	0	0	0	0	500	204	
4	0	0	0	0	501	204	
5	0	0	0	0	501	203	
6	0	0	0	0	499	204	
7	0	0	0	0	499	204	
8	0	0	0	0	499	203	
9	0	0	0	0	499	204	
10	0	0	0	0	499	204	
11	0	0	0	0	498	203	
12	0	0	0	0	498	204	
13	0	0	0	0	497	204	
14	0	0	0	0	496	204	
15	0	0	0	0	496	203	
0	0	0	0	0	496	204	
1	0	0	0	0	496	204	
2	0	0	0	0	496	202	
3	0	0	0	0	496	204	
4	0	0	0	0	495	204	
5	0	0	0	0	495	203	
6	0	0	0	0	495	204	
7	0	0	0	0	495	204	
8	0	0	0	0	496	203	
9	0	0	0	0	495	204	
10	0	0	0	0	495	204	
11	0	0	0	0	495	203	
12	0	0	0	0	494	204	
13	0	0	0	0	494	204	
14	0	0	0	0	493	203	
15	0	0	0	0	492	204	
0	0	0	0	0	492	204	
1	0	0	0	0	491	203	
2	0	0	0	0	491	204	
3	0	0	0	0	491	204	
4	0	0	0	0	491	203	
5	0	0	0	0	492	204	
6	0	0	0	0	493	204	
7	0	0	0	0	495	203	
8	0	0	0	0	496	204	
9	0	0	0	0	496	204	
10	0	0	0	0	497	203	
11	0	0	0	0	498	204	
12	0	0	0	0	500	204	
13	0	0	0	0	502	203	
14	0	0	0	0	502	204	
15	0	0	0	0	503	204	
0	0	0	0	0	503	203	
1	0	0	0	0	503	204	
2	0	0	0	0	503	204	
3	0	0	0	0	504	202	
4	0	0	0	0	505	204	
5	0	0	0	0	505	204	
6	0	0	0	0	505	204	
7	0	0	0	0	505	203	
8	0	0	0	0	504	202	
9	0	0	0	0	504	204	
10	0	0	0	0	504	204	
11	0	0	0	0	504	202	
12	0	0	0	0	506	204	
13	0	0	0	0	508	203	
14	0	0	0	0	508	202	
15	0	0	0	0	509	204	
0	0	0	0	0	509	203	
1	0	0	0	0	508	203	
2	0	0	0	0	508	204	
3	0	0	0	0	509	203	
4	0	0	0	0	508	203	
5	0	0	0	0	508	204	
6	0	0	0	0	508	204	
7	0	0	0	0	508	203	
8	0	0	0	0	508	204	
9	0	0	0	0	508	203	
10	0	0	0	0	510	204	
11	0	0	0	0	511	204	
12	0	0	0	0	511	203	
13	0	0	0	0	510	204	
14	0	0	0	0	510	204	
15	0	0	0	0	509	203	
0	0	0	0	0	510	204	
1	0	0	0	0	509	204	
2	0	0	0	0	509	203	
3	0	0	0	0	508	204	
4	0	0	0	0	507	203	
5	0	0	0	0	506	204	
6	0	0	0	0	505	204	
7	0	0	0	0	506	203	
8	0	0	0	0	506	203	
9	0	0	0	0	507	204	
10	0	0	0	0	506	203	
11	0	0	0	0	506	204	
12	0	0	0	0	507	204	
13	0	0	0	0	508	203	
14	0	0	0	0	508	203	
15	0	0	0	0	508	204	
0	0	0	0	0	509	204	
1	0	0	0	0	508	203	
2	0	0	0	0	507	204	
3	0	0	0	0	506	204	
4	0	0	0	0	505	203	
5	0	0	0	0	505	204	
6	0	0	0	0	504	204	
7	0	0	0	0	505	203	
8	0	0	0	0	505	204	
9	0	0	0	0	505	204	
10	0	0	0	0	505	203	
11	0	0	0	0	505	204	
12	0	0	0	0	505	204	
13	0	0	0	0	507	203	
14	0	0	0	0	508	204	
15	0	0	0	0	507	204	
0	0	0	0	0	507	203	
1	0	0	0	0	508	204	
2	0	0	0	0	508	204	
3	0	0	0	0	507	203	
4	0	0	0	0	508	204	
5	0	0	0	0	508	203	
6	0	0	0	0	508	204	
7	0	0	0	0	509	203	
8	0	0	0	0	509	204	
9	0	0	0	0	510	203	
10	0	0	0	0	510	204	
11	0	0	0	0	510	204	
12	0	0	0	0	510	203	
13	0	0	0	0	510	204	
14	0	0	0	0	511	203	
15	0	0	0	0	510	204	
0	0	0	0	0	510	204	
1	0	0	0	0	509	204	
2	0	0	0	0	509	203	
3	0	0	0	0	510	204	
4	0	0	0	0	510	204	
5	0	0	0	0	510	202	
6	0	0	0	0	511	204	
7	0	0	0	0	511	203	
8	0	0	0	0	510	204	
9	0	0	0	0	511	203	
10	0	0	0	0	510	204	
11	0	0	0	0	510	204	
12	0	0	0	0	509	203	
13	0	0	0	0	509	204	
14	0	0	0	0	510	203	
15	0	0	0	0	509	204	
0	0	0	0	0	509	204	
1	0	0	0	0	509	202	
2	0	0	0	0	508	204	
3	0	0	0	0	507	203	
4	0	0	0	0	507	204	
5	0	0	0	0	508	204	
6	0	0	0	0	508	203	
7	0	0	0	0	509	204	
8	0	0	0	0	509	203	
9	0	0	0	0	509	204	
10	0	0	0	0	508	204	
11	0	0	0	0	508	203	
12	0	0	0	0	508	204	
13	0	0	0	0	508	203	
14	0	0	0	0	508	203	
15	0	0	0	0	509	204	
0	0	0	0	0	510	203	
1	0	0	0	0	510	204	
2	0	0	0	0	511	203	
3	0	0	0	0	512	204	
4	0	0	0	0	511	204	
5	0	0	0	0	511	203	
6	0	0	0	0	510	204	
7	0	0	0	0	509	202	
8	0	0	0	0	508	204	
9	0	0	0	0	508	203	
10	0	0	0	0	508	204	
11	0	0	0	0	509	203	
12	0	0	0	0	510	205	
13	0	0	0	0	512	204	
14	0	0	0	0	512	202	
15	0	0	0	0	511	204	
0	0	0	0	0	512	203	
1	0	0	0	0	511	204	
2	0	0	0	0	511	203	
3	0	0	0	0	511	203	
4	0	0	0	0	511	204	
5	0	0	0	0	510	202	
6	0	0	0	0	510	204	
7	0	0	0	0	510	203	
8	0	0	0	0	510	204	
9	0	0	0	0	510	203	
10	0	0	0	0	508	204	
11	0	0	0	0	508	204	
12	0	0	0	0	508	203	
13	0	0	0	0	509	204	
14	0	0	0	0	510	203	
15	0	0	0	0	510	204	
0	0	0	0	0	511	203	
1	0	0	0	0	511	204	
2	0	0	0	0	511	204	
3	0	0	0	0	511	204	
4	0	0	0	0	510	204	
5	0	0	0	0	509	202	
6	0	0	0	0	510	204	
7	0	0	0	0	511	203	
8	0	0	0	0	512	204	
9	0	0	0	0	512	203	
10	0	0	0	0	513	202	
11	0	0	0	0	513	204	
12	0	0	0	0	513	204	
13	0	0	0	0	513	203	
14	0	0	0	0	512	204	
15	0	0	0	0	511	204	
0	0	0	0	0	509	203	
1	0	0	0	0	508	203	
2	0	0	0	0	508	204	
3	0	0	0	0	508	204	
4	0	0	0	0	508	203	
5	0	0	0	0	507	204	
6	0	0	0	0	507	204	
7	0	0	0	0	507	203	
8	0	0	0	0	507	203	
9	0	0	0	0	507	204	
10	0	0	0	0	506	203	
11	0	0	0	0	506	204	
12	0	0	0	0	506	204	
13	0	0	0	0	507	203	
14	0	0	0	0	508	203	
15	0	0	0	0	509	204	
0	0	0	0	0	510	204	
1	0	0	0	0	509	203	
2	0	0	0	0	510	204	
3	0	0	0	0	510	204	
4	0	0	0	0	511	203	
5	0	0	0	0	511	204	
6	0	0	0	0	510	204	
7	0	0	0	0	510	204	
8	0	0	0	0	509	203	
9	0	0	0	0	508	204	
10	0	0	0	0	507	204	
11	0	0	0	0	505	203	
12	0	0	0	0	504	204	
13	0	0	0	0	504	203	
14	0	0	0	0	503	203	
15	0	0	0	0	503	204	
0	0	0	0	0	503	203	
1	0	0	0	0	504	202	
2	0	0	0	0	505	204	
3	0	0	0	0	505	204	
4	0	0	0	0	505	203	
5	0	0	0	0	505	204	
6	0	0	0	0	506	204	
7	0	0	0	0	507	203	
8	0	0	0	0	507	204	
9	0	0	0	0	507	204	
10	0	0	0	0	506	203	
11	0	0	0	0	506	204	
12	0	0	0	0	506	204	
13	0	0	0	0	505	203	
14	0	0	0	0	506	202	
15	0	0	0	0	506	204	
0	0	0	0	0	505	204	
1	0	0	0	0	506	203	
2	0	0	0	0	506	204	
3	0	0	0	0	507	204	
4	0	0	0	0	508	203	
5	0	0	0	0	508	204	
6	0	0	0	0	508	204	
7	0	0	0	0	508	203	
8	0	0	0	0	508	204	
9	0	0	0	0	508	204	
10	0	0	0	0	507	203	
11	0	0	0	0	507	203	
12	0	0	0	0	506	204	
13	0	0	0	0	507	204	
14	0	0	0	0	507	203	
15	0	0	0	0	507	202	
0	0	0	0	0	507	204	
1	0	0	0	0	505	204	
2	0	0	0	0	504	203	
3	0	0	0	0	503	204	
4	0	0	0	0	504	204	
5	0	0	0	0	504	203	
6	0	0	0	0	504	204	
7	0	0	0	0	505	204	
8	0	0	0	0	505	203	
9	0	0	0	0	505	202	
10	0	0	0	0	506	204	
11	0	0	0	0	506	204	
12	0	0	0	0	507	203	
13	0	0	0	0	508	203	
14	0	0	0	0	509	204	
15	0	0	0	0	510	203	
0	0	0	0	0	510	204	
1	0	0	0	0	509	204	
2	0	0	0	0	509	203	
3	0	0	0	0	508	202	
4	0	0	0	0	508	204	
5	0	0	0	0	508	204	
6	0	0	0	0	508	203	
7	0	0	0	0	508	204	
8	0	0	0	0	510	204	
9	0	0	0	0	510	202	
10	0	0	0	0	511	204	
11	0	0	0	0	511	204	
12	0	0	0	0	511	203	
13	0	0	0	0	510	204	
14	0	0	0	0	509	204	
15	0	0	0	0	508	203	
0	0	0	0	0	508	204	
1	0	0	0	0	508	204	
2	0	0	0	0	506	203	
3	0	0	0	0	506	203	
4	0	0	0	0	505	204	
5	0	0	0	0	505	203	
6	0	0	0	0	504	204	
7	0	0	0	0	504	204	
8	0	0	0	0	504	203	
9	0	0	0	0	505	202	
10	0	0	0	0	506	204	
11	0	0	0	0	506	203	
12	0	0	0	0	508	203	
13	0	0	0	0	508	204	
14	0	0	0	0	510	204	
15	0	0	0	0	510	203	
0	0	0	0	0	511	204	
1	0	0	0	0	511	204	
2	0	0	0	0	510	203	
3	0	0	0	0	510	204	
4	0	0	0	0	510	204	
5	0	0	0	0	509	203	
6	0	0	0	0	510	204	
7	0	0	0	0	511	204	
8	0	0	0	0	512	202	
9	0	0	0	0	512	204	
10	0	0	0	0	513	203	
11	0	0	0	0	513	204	
12	0	0	0	0	513	204	
13	0	0	0	0	513	203	
14	0	0	0	0	513	204	
15	0	0	0	0	512	204	
0	0	0	0	0	510	203	
1	0	0	0	0	510	204	
2	0	0	0	0	510	204	
3	0	0	0	0	510	203	
4	0	0	0	0	510	204	
5	0	0	0	0	511	204	
6	0	0	0	0	510	203	
7	0	0	0	0	510	204	
8	0	0	0	0	509	204	
9	0	0	0	0	508	203	
10	0	0	0	0	508	204	
11	0	0	0	0	509	204	
12	0	0	0	0	509	203	
13	0	0	0	0	508	204	
14	0	0	0	0	507	204	
15	0	0	0	0	507	203	
0	0	0	0	0	505	202	
1	0	0	0	0	504	204	
2	0	0	0	0	504	203	
3	0	0	0	0	502	204	
4	0	0	0	0	500	204	
5	0	0	0	0	499	203	
6	0	0	0	0	499	203	
7	0	0	0	0	498	204	
8	0	0	0	0	497	204	
9	0	0	0	0	496	203	
10	0	0	0	0	495	204	
11	0	0	0	0	494	204	
12	0	0	0	0	493	203	
13	0	0	0	0	492	204	
14	0	0	0	0	492	204	
15	0	0	0	0	493	203	
0	0	0	0	0	493	204	
1	0	0	0	0	494	204	
2	0	0	0	0	495	203	
3	0	0	0	0	496	204	
4	0	0	0	0	495	204	
5	0	0	0	0	495	203	
6	0	0	0	0	495	204	
7	0	0	0	0	495	204	
8	0	0	0	0	495	203	
9	0	0	0	0	495	202	
10	0	0	0	0	496	204	
11	0	0	0	0	497	204	
12	0	0	0	0	496	203	
13	0	0	0	0	498	204	
14	0	0	0	0	498	204	
15	0	0	0	0	498	203	
0	0	0	0	0	497	203	
1	0	0	0	0	497	204	
2	0	0	0	0	499	204	
3	0	0	0	0	499	203	
4	0	0	0	0	502	203	
5	0	0	0	0	502	204	
6	0	0	0	0	504	204	
7	0	0	0	0	503	203	
8	0	0	0	0	502	204	
9	0	0	0	0	502	204	
10	0	0	0	0	501	203	
11	0	0	0	0	501	203	
12	0	0	0	0	502	204	
13	0	0	0	0	502	203	
14	0	0	0	0	500	203	
15	0	0	0	0	499	204	
0	0	0	0	0	500	203	
1	0	0	0	0	502	202	
2	0	0	0	0	504	204	
3	0	0	0	0	505	203	
4	0	0	0	0	506	203	
5	0	0	0	0	507	204	
6	0	0	0	0	505	204	
7	0	0	0	0	502	203	
8	0	0	0	0	500	204	
9	0	0	0	0	500	204	
10	0	0	0	0	500	203	
11	0	0	0	0	501	202	
12	0	0	0	0	501	204	
13	0	0	0	0	500	204	
14	0	0	0	0	501	203	
15	0	0	0	0	502	204	
0	0	0	0	0	502	204	
1	0	0	0	0	503	203	
2	0	0	0	0	503	202	
3	0	0	0	0	502	204	
4	0	0	0	0	500	204	
5	0	0	0	0	497	203	
6	0	0	0	0	497	204	
7	0	0	0	0	497	204	
8	0	0	0	0	498	203	
9	0	0	0	0	498	203	
10	0	0	0	0	498	204	
11	0	0	0	0	498	204	
12	0	0	0	0	499	203	
13	0	0	0	0	501	204	
14	0	0	0	0	502	204	
15	0	0	0	0	502	203	
0	0	0	0	0	501	204	
1	0	0	0	0	500	204	
2	0	0	0	0	498	203	
3	0	0	0	0	496	203	
4	0	0	0	0	494	204	
5	0	0	0	0	494	204	
6	0	0	0	0	494	202	
7	0	0	0	0	494	204	
8	0	0	0	0	493	204	
9	0	0	0	0	492	203	
10	0	0	0	0	494	204	
11	0	0	0	0	496	204	
12	0	0	0	0	498	203	
13	0	0	0	0	500	204	
14	0	0	0	0	500	204	
15	0	0	0	0	500	203	
0	0	0	0	0	501	204	
1	0	0	0	0	501	204	
2	0	0	0	0	501	203	
3	0	0	0	0	502	203	
4	0	0	0	0	502	204	
5	0	0	0	0	501	203	
6	0	0	0	0	501	204	
7	0	0	0	0	502	204	
8	0	0	0	0	504	203	
9	0	0	0	0	505	202	
10	0	0	0	0	505	204	
11	0	0	0	0	505	204	
12	0	0	0	0	505	203	
13	0	0	0	0	504	204	
14	0	0	0	0	504	204	
15	0	0	0	0	505	203	
0	0	0	0	0	506	203	
1	0	0	0	0	506	204	
2	0	0	0	0	506	203	
3	0	0	0	0	507	204	
4	0	0	0	0	507	203	
5	0	0	0	0	507	204	
6	0	0	0	0	508	204	
7	0	0	0	0	510	203	
8	0	0	0	0	512	204	
9	0	0	0	0	515	204	
10	0	0	0	0	516	203	
11	0	0	0	0	517	204	
12	0	0	0	0	517	204	
13	0	0	0	0	515	203	
14	0	0	0	0	516	204	
15	0	0	0	0	515	204	
0	0	0	0	0	512	202	
1	0	0	0	0	513	204	
2	0	0	0	0	515	203	
3	0	0	0	0	518	204	
4	0	0	0	0	520	204	
5	0	0	0	0	521	202	
6	0	0	0	0	521	204	
7	0	0	0	0	523	204	
8	0	0	0	0	524	202	
9	0	0	0	0	523	204	
10	0	0	0	0	523	204	
11	0	0	0	0	524	203	
12	0	0	0	0	526	204	
13	0	0	0	0	526	204	
14	0	0	0	0	523	203	
15	0	0	0	0	522	204	
0	0	0	0	0	522	204	
1	0	0	0	0	521	203	
2	0	0	0	0	520	204	
3	0	0	0	0	522	204	
4	0	0	0	0	525	204	
5	0	0	0	0	528	204	
6	0	0	0	0	533	202	
7	0	0	0	0	536	204	
8	0	0	0	0	539	204	
9	0	0	0	0	543	203	
10	0	0	0	0	547	204	
11	0	0	0	0	550	204	
12	0	0	0	0	553	203	
13	0	0	0	0	556	204	
14	0	0	0	0	558	203	
15	0	0	0	0	559	203	
0	0	0	0	0	560	204	
1	0	0	0	0	560	203	
2	0	0	0	0	560	202	
3	0	0	0	0	559	204	
4	0	0	0	0	557	204	
5	0	0	0	0	554	202	
6	0	0	0	0	550	203	
7	0	0	0	0	546	203	
8	0	0	0	0	540	202	
9	0	0	0	0	536	204	
10	0	0	0	0	531	203	
11	0	0	0	0	529	204	
12	0	0	0	0	525	204	
13	0	0	0	0	519	203	
14	0	0	0	0	515	204	
15	0	0	0	0	510	204	
0	0	0	0	0	504	203	
1	0	0	0	0	497	204	
2	0	0	0	0	491	204	
3	0	0	0	0	485	203	
4	0	0	0	0	480	204	
5	0	0	0	0	476	204	
6	0	0	0	0	472	203	
7	0	0	0	0	468	204	
8	0	0	0	0	465	204	
9	0	0	0	0	462	203	
10	0	0	0	0	458	204	
11	0	0	0	0	453	204	
12	0	0	0	0	448	204	
13	0	0	0	0	445	204	
14	0	0	0	0	444	204	
15	0	0	0	0	444	204	
0	0	0	0	0	444	204	
1	0	0	0	0	447	203	
2	0	0	0	0	449	204	
3	0	0	0	0	455	204	
4	0	0	0	0	458	203	
5	0	0	0	0	463	204	
6	0	0	0	0	468	204	
7	0	0	0	0	476	203	
8	0	0	0	0	483	204	
9	0	0	0	0	490	204	
10	0	0	0	0	494	203	
11	0	0	0	0	496	204	
12	0	0	0	0	497	203	
13	0	0	0	0	500	204	
14	0	0	0	0	504	204	
15	0	0	0	0	506	203	
0	0	0	0	0	505	204	
1	0	0	0	0	504	204	
2	0	0	0	0	504	203	
3	0	0	0	0	505	204	
4	0	0	0	0	507	204	
5	0	0	0	0	508	203	
6	0	0	0	0	510	204	
7	0	0	0	0	512	203	
8	0	0	0	0	515	202	
9	0	0	0	0	516	204	
10	0	0	0	0	515	203	
11	0	0	0	0	513	202	
12	0	0	0	0	511	204	
13	0	0	0	0	509	203	
14	0	0	0	0	508	202	
15	0	0	0	0	507	204	
0	0	0	0	0	509	204	
1	0	0	0	0	511	204	
2	0	0	0	0	515	204	
3	0	0	0	0	520	202	
4	0	0	0	0	527	204	
5	0	0	0	0	535	204	
6	0	0	0	0	540	202	
7	0	0	0	0	544	204	
8	0	0	0	0	547	202	
9	0	0	0	0	548	204	
10	0	0	0	0	549	204	
11	0	0	0	0	546	203	
12	0	0	0	0	539	203	
13	0	0	0	0	532	203	
14	0	0	0	0	527	203	
15	0	0	0	0	524	204	
0	0	0	0	0	524	203	
1	0	0	0	0	521	203	
2	0	0	0	0	517	204	
3	0	0	0	0	513	203	
4	0	0	0	0	509	204	
5	0	0	0	0	505	204	
6	0	0	0	0	505	203	
7	0	0	0	0	507	203	
8	0	0	0	0	511	204	
9	0	0	0	0	517	203	
10	0	0	0	0	523	204	
11	0	0	0	0	533	204	
12	0	0	0	0	548	203	
13	0	0	0	0	561	203	
14	0	0	0	0	569	203	
15	0	0	0	0	567	204	
0	0	0	0	0	556	204	
1	0	0	0	0	542	203	
2	0	0	0	0	527	204	
3	0	0	0	0	515	203	
4	0	0	0	0	504	204	
5	0	0	0	0	495	203	
6	0	0	0	0	490	203	
7	0	0	0	0	485	204	
8	0	0	0	0	483	203	
9	0	0	0	0	482	204	
10	0	0	0	0	483	204	
11	0	0	0	0	484	203	
12	0	0	0	0	484	204	
13	0	0	0	0	484	203	
14	0	0	0	0	483	204	
15	0	0	0	0	482	204	
0	0	0	0	0	483	203	
1	0	0	0	0	486	204	
2	0	0	0	0	491	204	
3	0	0	0	0	496	203	
4	0	0	0	0	505	204	
5	0	0	0	0	514	204	
6	0	0	0	0	525	202	
7	0	0	0	0	530	204	
8	0	0	0	0	529	203	
9	0	0	0	0	524	202	
10	0	0	0	0	518	204	
11	0	0	0	0	513	203	
12	0	0	0	0	511	202	
13	0	0	0	0	513	204	
14	0	0	0	0	516	203	
15	0	0	0	0	516	203	
0	0	0	0	0	512	204	
1	0	0	0	0	511	203	
2	0	0	0	0	508	204	
3	0	0	0	0	505	204	
4	0	0	0	0	509	203	
5	0	0	0	0	517	203	
6	0	0	0	0	520	204	
7	0	0	0	0	517	203	
8	0	0	0	0	510	203	
9	0	0	0	0	507	204	
10	0	0	0	0	513	203	
11	0	0	0	0	528	202	
12	0	0	0	0	542	204	
13	0	0	0	0	553	203	
14	0	0	0	0	557	202	
15	0	0	0	0	558	203	
0	0	0	0	0	556	203	
1	0	0	0	0	548	202	
2	0	0	0	0	534	204	
3	0	0	0	0	508	203	
4	0	0	0	0	476	203	
5	0	0	0	0	445	204	
6	0	0	0	0	415	204	
7	0	0	0	0	395	204	
8	0	0	0	0	385	204	
9	0	0	0	0	381	204	
10	0	0	0	0	376	204	
11	0	0	0	0	370	204	
12	0	0	0	0	362	204	
13	0	0	0	0	355	204	
14	0	0	0	0	348	204	
15	0	0	0	0	342	204	
0	0	0	0	0	335	204	
1	0	0	0	0	328	204	
2	0	0	0	0	327	204	
3	0	0	0	0	328	204	
4	0	0	0	0	331	204	
5	0	0	0	0	331	204	
6	0	0	0	0	330	204	
7	0	0	0	0	327	204	
8	0	0	0	0	323	204	
9	0	0	0	0	317	204	
10	0	0	0	0	314	204	
11	0	0	0	0	311	204	
12	0	0	0	0	307	204	
13	0	0	0	0	304	204	
14	0	0	0	0	304	204	
15	0	0	0	0	306	204	
0	0	0	0	0	306	204	
1	0	0	0	0	304	204	
2	0	0	0	0	302	204	
3	0	0	0	0	301	204	
4	0	0	0	0	300	204	
5	0	0	0	0	298	204	
6	0	0	0	0	297	204	
7	0	0	0	0	295	204	
8	0	0	0	0	294	204	
9	0	0	0	0	293	204	
10	0	0	0	0	293	204	
11	0	0	0	0	293	204	
12	0	0	0	0	294	204	
13	0	0	0	0	294	204	
14	0	0	0	0	294	204	
15	0	0	0	0	294	204	
0	0	0	0	0	295	204	
1	0	0	0	0	297	204	
2	0	0	0	0	299	204	
3	0	0	0	0	302	204	
4	0	0	0	0	304	204	
5	0	0	0	0	307	204	
6	0	0	0	0	308	204	
7	0	0	0	0	311	204	
8	0	0	0	0	310	204	
9	0	0	0	0	311	204	
10	0	0	0	0	312	204	
11	0	0	0	0	313	204	
12	0	0	0	0	315	204	
13	0	0	0	0	317	204	
14	0	0	0	0	317	204	
15	0	0	0	0	318	204	
0	0	0	0	0	319	204	
1	0	0	0	0	321	204	
2	0	0	0	0	323	204	
3	0	0	0	0	323	204	
4	0	0	0	0	323	204	
5	0	0	0	0	324	204	
6	0	0	0	0	325	204	
7	0	0	0	0	326	204	
8	0	0	0	0	327	204	
9	0	0	0	0	329	204	
10	0	0	0	0	332	204	
11	0	0	0	0	333	204	
12	0	0	0	0	336	204	
13	0	0	0	0	338	204	
14	0	0	0	0	338	204	
15	0	0	0	0	340	204	
0	0	0	0	0	340	204	
1	0	0	0	0	340	204	
2	0	0	0	0	342	204	
3	0	0	0	0	344	204	
4	0	0	0	0	346	204	
5	0	0	0	0	348	204	
6	0	0	0	0	350	204	
7	0	0	0	0	352	204	
8	0	0	0	0	352	204	
9	0	0	0	0	354	204	
10	0	0	0	0	356	204	
11	0	0	0	0	357	204	
12	0	0	0	0	359	203	
13	0	0	0	0	362	204	
14	0	0	0	0	367	204	
15	0	0	0	0	370	204	
0	0	0	0	0	371	204	
1	0	0	0	0	373	204	
2	0	0	0	0	374	204	
3	0	0	0	0	375	204	
4	0	0	0	0	377	204	
5	0	0	0	0	379	204	
6	0	0	0	0	380	204	
7	0	0	0	0	381	204	
8	0	0	0	0	382	204	
9	0	0	0	0	384	204	
10	0	0	0	0	386	204	
11	0	0	0	0	389	203	
12	0	0	0	0	392	204	
13	0	0	0	0	396	203	
14	0	0	0	0	398	204	
15	0	0	0	0	399	204	
0	0	0	0	0	401	204	
1	0	0	0	0	401	204	
2	0	0	0	0	403	204	
3	0	0	0	0	404	204	
4	0	0	0	0	406	203	
5	0	0	0	0	408	204	
6	0	0	0	0	411	203	
7	0	0	0	0	413	204	
8	0	0	0	0	415	204	
9	0	0	0	0	416	204	
10	0	0	0	0	417	204	
11	0	0	0	0	419	203	
12	0	0	0	0	422	204	
13	0	0	0	0	423	204	
14	0	0	0	0	424	203	
15	0	0	0	0	425	204	
0	0	0	0	0	426	203	
1	0	0	0	0	427	204	
2	0	0	0	0	429	204	
3	0	0	0	0	431	204	
4	0	0	0	0	432	204	
5	0	0	0	0	435	203	
6	0	0	0	0	437	203	
7	0	0	0	0	439	204	
8	0	0	0	0	439	203	
9	0	0	0	0	441	204	
10	0	0	0	0	441	204	
11	0	0	0	0	441	203	
12	0	0	0	0	441	204	
13	0	0	0	0	443	204	
14	0	0	0	0	444	203	
15	0	0	0	0	446	204	
0	0	0	0	0	447	204	
1	0	0	0	0	448	203	
2	0	0	0	0	449	204	
3	0	0	0	0	449	204	
4	0	0	0	0	450	203	
5	0	0	0	0	451	204	
6	0	0	0	0	451	203	
7	0	0	0	0	451	204	
8	0	0	0	0	453	204	
9	0	0	0	0	455	203	
10	0	0	0	0	456	204	
11	0	0	0	0	457	204	
12	0	0	0	0	458	203	
13	0	0	0	0	457	204	
14	0	0	0	0	456	204	
15	0	0	0	0	457	203	
0	0	0	0	0	458	203	
1	0	0	0	0	459	204	
2	0	0	0	0	459	203	
3	0	0	0	0	459	204	
4	0	0	0	0	459	204	
5	0	0	0	0	460	203	
6	0	0	0	0	461	204	
7	0	0	0	0	463	204	
8	0	0	0	0	467	203	
9	0	0	0	0	473	204	
10	0	0	0	0	479	203	
11	0	0	0	0	483	204	
12	0	0	0	0	484	204	
13	0	0	0	0	484	203	
14	0	0	0	0	484	204	
15	0	0	0	0	483	204	
0	0	0	0	0	482	203	
1	0	0	0	0	481	204	
2	0	0	0	0	480	204	
3	0	0	0	0	478	202	
4	0	0	0	0	475	204	
5	0	0	0	0	471	203	
6	0	0	0	0	469	204	
7	0	0	0	0	469	204	
8	0	0	0	0	472	203	
9	0	0	0	0	477	203	
10	0	0	0	0	487	204	
11	0	0	0	0	500	203	
12	0	0	0	0	511	204	
13	0	0	0	0	519	204	
14	0	0	0	0	523	203	
15	0	0	0	0	520	204	
0	0	0	0	0	515	203	
1	0	0	0	0	511	203	
2	0	0	0	0	510	203	
3	0	0	0	0	515	203	
4	0	0	0	0	521	203	
5	0	0	0	0	527	204	
6	0	0	0	0	527	204	
7	0	0	0	0	523	202	
8	0	0	0	0	517	204	
9	0	0	0	0	512	204	
10	0	0	0	0	504	202	
11	0	0	0	0	497	204	
12	0	0	0	0	491	204	
13	0	0	0	0	485	202	
14	0	0	0	0	480	203	
15	0	0	0	0	477	203	
0	0	0	0	0	475	204	
1	0	0	0	0	476	204	
2	0	0	0	0	478	203	
3	0	0	0	0	479	204	
4	0	0	0	0	480	203	
5	0	0	0	0	484	203	
6	0	0	0	0	487	204	
7	0	0	0	0	490	203	
8	0	0	0	0	493	204	
9	0	0	0	0	497	204	
10	0	0	0	0	499	203	
11	0	0	0	0	500	203	
12	0	0	0	0	501	203	
13	0	0	0	0	502	203	
14	0	0	0	0	503	203	
15	0	0	0	0	504	203	
0	0	0	0	0	505	204	
1	0	0	0	0	508	204	
2	0	0	0	0	512	203	
3	0	0	0	0	521	203	
4	0	0	0	0	529	204	
5	0	0	0	0	535	202	
6	0	0	0	0	537	203	
7	0	0	0	0	538	203	
8	0	0	0	0	536	202	
9	0	0	0	0	535	203	
10	0	0	0	0	532	203	
11	0	0	0	0	530	202	
12	0	0	0	0	530	204	
13	0	0	0	0	534	203	
14	0	0	0	0	541	202	
15	0	0	0	0	545	203	
0	0	0	0	0	545	203	
1	0	0	0	0	543	202	
2	0	0	0	0	540	203	
3	0	0	0	0	537	202	
4	0	0	0	0	536	203	
5	0	0	0	0	536	204	
6	0	0	0	0	544	202	
7	0	0	0	0	558	203	
8	0	0	0	0	571	203	
9	0	0	0	0	578	202	
10	0	0	0	0	577	203	
11	0	0	0	0	572	203	
12	0	0	0	0	564	203	
13	0	0	0	0	557	204	
14	0	0	0	0	548	203	
15	0	0	0	0	539	204	
0	0	0	0	0	530	203	
1	0	0	0	0	523	203	
2	0	0	0	0	519	204	
3	0	0	0	0	517	204	
4	0	0	0	0	516	202	
5	0	0	0	0	515	204	
6	0	0	0	0	516	203	
7	0	0	0	0	518	202	
8	0	0	0	0	519	204	
9	0	0	0	0	519	204	
10	0	0	0	0	520	202	
11	0	0	0	0	523	203	
12	0	0	0	0	526	203	
13	0	0	0	0	526	203	
14	0	0	0	0	525	203	
15	0	0	0	0	525	203	
0	0	0	0	0	527	204	
1	0	0	0	0	530	204	
2	0	0	0	0	535	203	
3	0	0	0	0	540	204	
4	0	0	0	0	547	204	
5	0	0	0	0	559	202	
6	0	0	0	0	571	204	
7	0	0	0	0	579	204	
8	0	0	0	0	577	202	
9	0	0	0	0	571	203	
10	0	0	0	0	564	203	
11	0	0	0	0	556	204	
12	0	0	0	0	551	203	
13	0	0	0	0	547	203	
14	0	0	0	0	544	204	
15	0	0	0	0	542	204	
0	0	0	0	0	543	202	
1	0	0	0	0	543	203	
2	0	0	0	0	542	203	
3	0	0	0	0	542	202	
4	0	0	0	0	543	203	
5	0	0	0	0	545	204	
6	0	0	0	0	547	202	
7	0	0	0	0	550	203	
8	0	0	0	0	553	203	
9	0	0	0	0	554	202	
10	0	0	0	0	553	203	
11	0	0	0	0	551	203	
12	0	0	0	0	550	203	
13	0	0	0	0	551	203	
14	0	0	0	0	550	203	
15	0	0	0	0	548	204	
0	0	0	0	0	545	204	
1	0	0	0	0	543	202	
2	0	0	0	0	540	204	
3	0	0	0	0	540	204	
4	0	0	0	0	544	202	
5	0	0	0	0	552	203	
6	0	0	0	0	560	204	
7	0	0	0	0	564	202	
8	0	0	0	0	564	203	
9	0	0	0	0	561	203	
10	0	0	0	0	558	203	
11	0	0	0	0	554	204	
12	0	0	0	0	548	202	
13	0	0	0	0	542	203	
14	0	0	0	0	539	204	
15	0	0	0	0	537	204	
0	0	0	0	0	541	203	
1	0	0	0	0	550	203	
2	0	0	0	0	560	204	
3	0	0	0	0	568	204	
4	0	0	0	0	570	202	
5	0	0	0	0	569	203	
6	0	0	0	0	569	203	
7	0	0	0	0	572	204	
8	0	0	0	0	573	204	
9	0	0	0	0	574	202	
10	0	0	0	0	574	204	
11	0	0	0	0	575	204	
12	0	0	0	0	577	202	
13	0	0	0	0	577	204	
14	0	0	0	0	575	204	
15	0	0	0	0	573	202	
0	0	0	0	0	572	204	
1	0	0	0	0	568	204	
2	0	0	0	0	564	202	
3	0	0	0	0	560	204	
4	0	0	0	0	555	204	
5	0	0	0	0	551	202	
6	0	0	0	0	548	203	
7	0	0	0	0	547	204	
8	0	0	0	0	549	202	
9	0	0	0	0	552	203	
10	0	0	0	0	556	203	
11	0	0	0	0	558	201	
12	0	0	0	0	558	203	
13	0	0	0	0	558	203	
14	0	0	0	0	558	204	
15	0	0	0	0	558	203	
0	0	0	0	0	558	202	
1	0	0	0	0	558	204	
2	0	0	0	0	560	204	
3	0	0	0	0	563	202	
4	0	0	0	0	565	204	
5	0	0	0	0	566	204	
6	0	0	0	0	567	202	
7	0	0	0	0	568	203	
8	0	0	0	0	570	203	
9	0	0	0	0	572	201	
10	0	0	0	0	572	203	
11	0	0	0	0	572	203	
12	0	0	0	0	568	204	
13	0	0	0	0	565	204	
14	0	0	0	0	562	202	
15	0	0	0	0	558	203	
0	0	0	0	0	555	203	
1	0	0	0	0	555	202	
2	0	0	0	0	554	203	
3	0	0	0	0	553	202	
4	0	0	0	0	553	203	
5	0	0	0	0	554	203	
6	0	0	0	0	557	204	
7	0	0	0	0	559	204	
8	0	0	0	0	562	202	
9	0	0	0	0	561	204	
10	0	0	0	0	563	203	
11	0	0	0	0	563	203	
12	0	0	0	0	564	203	
13	0	0	0	0	566	203	
14	0	0	0	0	568	204	
15	0	0	0	0	570	204	
0	0	0	0	0	573	202	
1	0	0	0	0	576	204	
2	0	0	0	0	577	203	
3	0	0	0	0	579	201	
4	0	0	0	0	578	203	
5	0	0	0	0	575	203	
6	0	0	0	0	570	204	
7	0	0	0	0	568	202	
8	0	0	0	0	565	204	
9	0	0	0	0	561	203	
10	0	0	0	0	562	202	
11	0	0	0	0	568	203	
12	0	0	0	0	575	201	
13	0	0	0	0	583	204	
14	0	0	0	0	590	204	
15	0	0	0	0	597	203	
0	0	0	0	0	605	203	
1	0	0	0	0	609	202	
2	0	0	0	0	605	203	
3	0	0	0	0	595	202	
4	0	0	0	0	584	204	
5	0	0	0	0	576	202	
6	0	0	0	0	572	204	
7	0	0	0	0	571	204	
8	0	0	0	0	573	203	
9	0	0	0	0	581	203	
10	0	0	0	0	592	202	
11	0	0	0	0	600	204	
12	0	0	0	0	602	201	
13	0	0	0	0	598	204	
14	0	0	0	0	591	202	
15	0	0	0	0	582	204	
0	0	0	0	0	574	204	
1	0	0	0	0	565	203	
2	0	0	0	0	557	204	
3	0	0	0	0	551	202	
4	0	0	0	0	547	204	
5	0	0	0	0	547	203	
6	0	0	0	0	547	202	
7	0	0	0	0	543	204	
8	0	0	0	0	538	203	
9	0	0	0	0	531	202	
10	0	0	0	0	525	203	
11	0	0	0	0	520	202	
12	0	0	0	0	516	204	
13	0	0	0	0	513	202	
14	0	0	0	0	510	204	
15	0	0	0	0	509	202	
0	0	0	0	0	508	204	
1	0	0	0	0	511	203	
2	0	0	0	0	512	204	
3	0	0	0	0	515	204	
4	0	0	0	0	519	203	
5	0	0	0	0	523	203	
6	0	0	0	0	525	203	
7	0	0	0	0	526	203	
8	0	0	0	0	527	202	
9	0	0	0	0	526	204	
10	0	0	0	0	524	202	
11	0	0	0	0	525	204	
12	0	0	0	0	527	204	
13	0	0	0	0	529	203	
14	0	0	0	0	529	204	
15	0	0	0	0	526	203	
0	0	0	0	0	524	203	
1	0	0	0	0	524	202	
2	0	0	0	0	529	204	
3	0	0	0	0	540	204	
4	0	0	0	0	548	203	
5	0	0	0	0	553	203	
6	0	0	0	0	554	202	
7	0	0	0	0	557	203	
8	0	0	0	0	557	202	
9	0	0	0	0	556	204	
10	0	0	0	0	553	204	
11	0	0	0	0	552	203	
12	0	0	0	0	552	203	
13	0	0	0	0	551	202	
14	0	0	0	0	548	203	
15	0	0	0	0	545	202	
0	0	0	0	0	541	204	
1	0	0	0	0	536	204	
2	0	0	0	0	535	203	
3	0	0	0	0	535	203	
4	0	0	0	0	537	202	
5	0	0	0	0	540	204	
6	0	0	0	0	544	204	
7	0	0	0	0	546	203	
8	0	0	0	0	546	203	
9	0	0	0	0	544	202	
10	0	0	0	0	543	203	
11	0	0	0	0	543	202	
12	0	0	0	0	544	204	
13	0	0	0	0	543	201	
14	0	0	0	0	539	204	
15	0	0	0	0	536	202	
0	0	0	0	0	535	204	
1	0	0	0	0	535	204	
2	0	0	0	0	535	204	
3	0	0	0	0	536	204	
4	0	0	0	0	536	203	
5	0	0	0	0	536	203	
6	0	0	0	0	534	203	
7	0	0	0	0	535	203	
8	0	0	0	0	534	202	
9	0	0	0	0	534	204	
10	0	0	0	0	535	202	
11	0	0	0	0	538	204	
12	0	0	0	0	542	204	
13	0	0	0	0	546	203	
14	0	0	0	0	546	203	
15	0	0	0	0	543	202	
0	0	0	0	0	539	204	
1	0	0	0	0	536	204	
2	0	0	0	0	534	204	
3	0	0	0	0	532	204	
4	0	0	0	0	531	203	
5	0	0	0	0	534	204	
6	0	0	0	0	538	202	
7	0	0	0	0	541	203	
8	0	0	0	0	543	202	
9	0	0	0	0	544	204	
10	0	0	0	0	544	204	
11	0	0	0	0	543	204	
12	0	0	0	0	542	204	
13	0	0	0	0	537	203	
14	0	0	0	0	530	204	
15	0	0	0	0	525	203	
0	0	0	0	0	520	203	
1	0	0	0	0	518	202	
2	0	0	0	0	515	203	
3	0	0	0	0	514	203	
4	0	0	0	0	516	202	
5	0	0	0	0	520	204	
6	0	0	0	0	526	202	
7	0	0	0	0	529	204	
8	0	0	0	0	531	204	
9	0	0	0	0	531	203	
10	0	0	0	0	531	203	
11	0	0	0	0	532	202	
12	0	0	0	0	531	204	
13	0	0	0	0	528	204	
14	0	0	0	0	528	203	
15	0	0	0	0	536	204	
0	0	0	0	0	541	203	
1	0	0	0	0	543	203	
2	0	0	0	0	543	203	
3	0	0	0	0	541	203	
4	0	0	0	0	536	202	
5	0	0	0	0	531	204	
6	0	0	0	0	526	204	
7	0	0	0	0	521	203	
8	0	0	0	0	517	204	
9	0	0	0	0	515	202	
10	0	0	0	0	518	204	
11	0	0	0	0	520	204	
12	0	0	0	0	524	203	
13	0	0	0	0	530	203	
14	0	0	0	0	540	202	
15	0	0	0	0	545	203	
0	0	0	0	0	546	202	
1	0	0	0	0	544	204	
2	0	0	0	0	540	204	
3	0	0	0	0	537	203	
4	0	0	0	0	534	203	
5	0	0	0	0	530	202	
6	0	0	0	0	527	204	
7	0	0	0	0	527	202	
8	0	0	0	0	529	204	
9	0	0	0	0	534	204	
10	0	0	0	0	535	203	
11	0	0	0	0	535	203	
12	0	0	0	0	536	203	
13	0	0	0	0	538	203	
14	0	0	0	0	539	203	
15	0	0	0	0	540	203	
0	0	0	0	0	545	202	
1	0	0	0	0	553	203	
2	0	0	0	0	560	201	
3	0	0	0	0	561	204	
4	0	0	0	0	556	204	
5	0	0	0	0	550	203	
6	0	0	0	0	545	204	
7	0	0	0	0	542	203	
8	0	0	0	0	538	203	
9	0	0	0	0	534	203	
10	0	0	0	0	531	204	
11	0	0	0	0	529	203	
12	0	0	0	0	528	203	
13	0	0	0	0	528	203	
14	0	0	0	0	528	203	
15	0	0	0	0	528	202	
0	0	0	0	0	529	204	
1	0	0	0	0	529	204	
2	0	0	0	0	531	204	
3	0	0	0	0	533	203	
4	0	0	0	0	535	203	
5	0	0	0	0	536	203	
6	0	0	0	0	540	202	
7	0	0	0	0	543	203	
8	0	0	0	0	543	202	
9	0	0	0	0	541	204	
10	0	0	0	0	541	204	
11	0	0	0	0	543	203	
12	0	0	0	0	544	203	
13	0	0	0	0	545	202	
14	0	0	0	0	545	203	
15	0	0	0	0	547	202	
0	0	0	0	0	550	204	
1	0	0	0	0	552	204	
2	0	0	0	0	553	203	
3	0	0	0	0	554	203	
4	0	0	0	0	555	202	
5	0	0	0	0	556	203	
6	0	0	0	0	557	201	
7	0	0	0	0	556	204	
8	0	0	0	0	558	203	
9	0	0	0	0	560	204	
10	0	0	0	0	563	202	
11	0	0	0	0	564	204	
12	0	0	0	0	563	203	
13	0	0	0	0	564	203	
14	0	0	0	0	564	203	
15	0	0	0	0	561	203	
0	0	0	0	0	556	203	
1	0	0	0	0	553	202	
2	0	0	0	0	552	203	
3	0	0	0	0	552	202	
4	0	0	0	0	553	203	
5	0	0	0	0	551	202	
6	0	0	0	0	549	204	
7	0	0	0	0	547	202	
8	0	0	0	0	545	204	
9	0	0	0	0	544	202	
10	0	0	0	0	546	204	
11	0	0	0	0	549	203	
12	0	0	0	0	553	203	
13	0	0	0	0	559	203	
14	0	0	0	0	565	202	
15	0	0	0	0	569	203	
0	0	0	0	0	572	201	
1	0	0	0	0	575	204	
2	0	0	0	0	579	201	
3	0	0	0	0	577	204	
4	0	0	0	0	575	201	
5	0	0	0	0	572	203	
6	0	0	0	0	569	204	
7	0	0	0	0	565	203	
8	0	0	0	0	561	203	
9	0	0	0	0	557	203	
10	0	0	0	0	553	203	
11	0	0	0	0	553	203	
12	0	0	0	0	552	203	
13	0	0	0	0	552	203	
14	0	0	0	0	551	203	
15	0	0	0	0	551	202	
0	0	0	0	0	551	203	
1	0	0	0	0	555	202	
2	0	0	0	0	561	204	
3	0	0	0	0	566	203	
4	0	0	0	0	565	204	
5	0	0	0	0	560	204	
6	0	0	0	0	556	204	
7	0	0	0	0	553	204	
8	0	0	0	0	551	204	
9	0	0	0	0	547	203	
10	0	0	0	0	546	203	
11	0	0	0	0	550	203	
12	0	0	0	0	555	202	
13	0	0	0	0	560	203	
14	0	0	0	0	563	201	
15	0	0	0	0	566	204	
0	0	0	0	0	567	204	
1	0	0	0	0	568	203	
2	0	0	0	0	569	203	
3	0	0	0	0	569	202	
4	0	0	0	0	566	203	
5	0	0	0	0	560	202	
6	0	0	0	0	555	203	
7	0	0	0	0	550	202	
8	0	0	0	0	547	203	
9	0	0	0	0	543	202	
10	0	0	0	0	541	203	
11	0	0	0	0	539	203	
12	0	0	0	0	537	203	
13	0	0	0	0	536	203	
14	0	0	0	0	534	203	
15	0	0	0	0	533	204	
0	0	0	0	0	532	202	
1	0	0	0	0	532	203	
2	0	0	0	0	534	202	
3	0	0	0	0	534	203	
4	0	0	0	0	536	202	
5	0	0	0	0	535	204	
6	0	0	0	0	534	204	
7	0	0	0	0	534	203	
8	0	0	0	0	534	203	
9	0	0	0	0	534	203	
10	0	0	0	0	535	203	
11	0	0	0	0	536	203	
12	0	0	0	0	536	203	
13	0	0	0	0	534	202	
14	0	0	0	0	535	203	
15	0	0	0	0	534	202	
0	0	0	0	0	536	203	
1	0	0	0	0	537	201	
2	0	0	0	0	537	204	
3	0	0	0	0	538	203	
4	0	0	0	0	537	203	
5	0	0	0	0	537	204	
6	0	0	0	0	536	203	
7	0	0	0	0	537	203	
8	0	0	0	0	540	203	
9	0	0	0	0	542	203	
10	0	0	0	0	542	203	
11	0	0	0	0	543	203	
12	0	0	0	0	544	202	
13	0	0	0	0	547	203	
14	0	0	0	0	547	202	
15	0	0	0	0	547	203	
0	0	0	0	0	548	201	
1	0	0	0	0	549	204	
2	0	0	0	0	549	202	
3	0	0	0	0	548	204	
4	0	0	0	0	547	204	
5	0	0	0	0	547	203	
6	0	0	0	0	546	203	
7	0	0	0	0	547	202	
8	0	0	0	0	549	203	
9	0	0	0	0	550	201	
10	0	0	0	0	552	204	
11	0	0	0	0	558	203	
12	0	0	0	0	560	204	
13	0	0	0	0	558	204	
14	0	0	0	0	555	203	
15	0	0	0	0	554	203	
0	0	0	0	0	554	202	
1	0	0	0	0	553	203	
2	0	0	0	0	551	202	
3	0	0	0	0	553	203	
4	0	0	0	0	556	202	
5	0	0	0	0	557	203	
6	0	0	0	0	555	202	
7	0	0	0	0	550	203	
8	0	0	0	0	545	202	
9	0	0	0	0	541	204	
10	0	0	0	0	537	202	
11	0	0	0	0	535	204	
12	0	0	0	0	536	202	
13	0	0	0	0	534	204	
14	0	0	0	0	532	203	
15	0	0	0	0	531	204	
0	0	0	0	0	530	204	
1	0	0	0	0	531	203	
2	0	0	0	0	535	203	
3	0	0	0	0	544	201	
4	0	0	0	0	558	204	
5	0	0	0	0	571	204	
6	0	0	0	0	577	203	
7	0	0	0	0	577	203	
8	0	0	0	0	572	202	
9	0	0	0	0	563	203	
10	0	0	0	0	553	202	
11	0	0	0	0	544	203	
12	0	0	0	0	536	202	
13	0	0	0	0	528	203	
14	0	0	0	0	524	204	
15	0	0	0	0	521	203	
0	0	0	0	0	519	203	
1	0	0	0	0	519	202	
2	0	0	0	0	519	204	
3	0	0	0	0	520	202	
4	0	0	0	0	519	204	
5	0	0	0	0	519	203	
6	0	0	0	0	521	204	
7	0	0	0	0	524	204	
8	0	0	0	0	527	203	
9	0	0	0	0	530	204	
10	0	0	0	0	532	202	
11	0	0	0	0	532	203	
12	0	0	0	0	532	202	
13	0	0	0	0	533	203	
14	0	0	0	0	533	202	
15	0	0	0	0	533	204	
0	0	0	0	0	533	203	
1	0	0	0	0	532	203	
2	0	0	0	0	531	203	
3	0	0	0	0	529	202	
4	0	0	0	0	528	203	
5	0	0	0	0	527	202	
6	0	0	0	0	525	203	
7	0	0	0	0	524	202	
8	0	0	0	0	524	203	
9	0	0	0	0	525	204	
10	0	0	0	0	527	203	
11	0	0	0	0	529	203	
12	0	0	0	0	531	203	
13	0	0	0	0	534	203	
14	0	0	0	0	536	203	
15	0	0	0	0	537	203	
0	0	0	0	0	536	203	
1	0	0	0	0	537	202	
2	0	0	0	0	539	204	
3	0	0	0	0	539	204	
4	0	0	0	0	540	202	
5	0	0	0	0	541	203	
6	0	0	0	0	543	203	
7	0	0	0	0	548	203	
8	0	0	0	0	554	203	
9	0	0	0	0	559	203	
10	0	0	0	0	559	203	
11	0	0	0	0	556	203	
12	0	0	0	0	552	202	
13	0	0	0	0	551	203	
14	0	0	0	0	550	203	
15	0	0	0	0	547	201	
0	0	0	0	0	544	203	
1	0	0	0	0	541	203	
2	0	0	0	0	540	203	
3	0	0	0	0	540	203	
4	0	0	0	0	541	203	
5	0	0	0	0	542	204	
6	0	0	0	0	541	203	
7	0	0	0	0	539	203	
8	0	0	0	0	538	204	
9	0	0	0	0	540	203	
10	0	0	0	0	542	203	
11	0	0	0	0	543	202	
12	0	0	0	0	547	203	
13	0	0	0	0	554	203	
14	0	0	0	0	562	202	
15	0	0	0	0	568	203	
0	0	0	0	0	569	203	
1	0	0	0	0	570	203	
2	0	0	0	0	573	203	
3	0	0	0	0	576	202	
4	0	0	0	0	578	204	
5	0	0	0	0	579	204	
6	0	0	0	0	580	201	
7	0	0	0	0	585	203	
8	0	0	0	0	586	202	
9	0	0	0	0	585	203	
10	0	0	0	0	584	203	
11	0	0	0	0	582	203	
12	0	0	0	0	579	203	
13	0	0	0	0	574	204	
14	0	0	0	0	569	202	
15	0	0	0	0	562	203	
0	0	0	0	0	551	203	
1	0	0	0	0	540	204	
2	0	0	0	0	531	204	
3	0	0	0	0	526	202	
4	0	0	0	0	523	203	
5	0	0	0	0	522	204	
6	0	0	0	0	526	202	
7	0	0	0	0	532	203	
8	0	0	0	0	534	202	
9	0	0	0	0	527	203	
10	0	0	0	0	515	202	
11	0	0	0	0	502	203	
12	0	0	0	0	490	204	
13	0	0	0	0	480	203	
14	0	0	0	0	471	204	
15	0	0	0	0	464	203	
0	0	0	0	0	459	204	
1	0	0	0	0	456	204	
2	0	0	0	0	453	203	
3	0	0	0	0	450	203	
4	0	0	0	0	447	203	
5	0	0	0	0	447	204	
6	0	0	0	0	448	204	
7	0	0	0	0	451	203	
8	0	0	0	0	453	204	
9	0	0	0	0	456	204	
10	0	0	0	0	460	203	
11	0	0	0	0	462	204	
12	0	0	0	0	463	203	
13	0	0	0	0	464	204	
14	0	0	0	0	466	204	
15	0	0	0	0	470	202	
0	0	0	0	0	473	203	
1	0	0	0	0	478	204	
2	0	0	0	0	481	202	
3	0	0	0	0	485	203	
4	0	0	0	0	489	203	
5	0	0	0	0	496	203	
6	0	0	0	0	502	203	
7	0	0	0	0	508	203	
8	0	0	0	0	513	204	
9	0	0	0	0	519	203	
10	0	0	0	0	526	203	
11	0	0	0	0	529	204	
12	0	0	0	0	531	204	
13	0	0	0	0	531	202	
14	0	0	0	0	530	203	
15	0	0	0	0	528	204	
0	0	0	0	0	525	202	
1	0	0	0	0	522	203	
2	0	0	0	0	518	204	
3	0	0	0	0	517	202	
4	0	0	0	0	516	203	
5	0	0	0	0	516	204	
6	0	0	0	0	515	202	
7	0	0	0	0	516	203	
8	0	0	0	0	518	203	
9	0	0	0	0	519	203	
10	0	0	0	0	520	203	
11	0	0	0	0	521	203	
12	0	0	0	0	523	203	
13	0	0	0	0	525	204	
14	0	0	0	0	526	202	
15	0	0	0	0	527	203	
0	0	0	0	0	530	204	
1	0	0	0	0	532	202	
2	0	0	0	0	535	203	
3	0	0	0	0	535	204	
4	0	0	0	0	534	202	
5	0	0	0	0	533	203	
6	0	0	0	0	533	203	
7	0	0	0	0	533	202	
8	0	0	0	0	534	203	
9	0	0	0	0	535	204	
10	0	0	0	0	535	202	
11	0	0	0	0	536	203	
12	0	0	0	0	537	204	
13	0	0	0	0	540	202	
14	0	0	0	0	541	203	
15	0	0	0	0	542	204	
0	0	0	0	0	542	202	
1	0	0	0	0	542	203	
2	0	0	0	0	541	204	
3	0	0	0	0	540	202	
4	0	0	0	0	541	203	
5	0	0	0	0	543	203	
6	0	0	0	0	544	202	
7	0	0	0	0	545	203	
8	0	0	0	0	546	204	
9	0	0	0	0	546	202	
10	0	0	0	0	547	203	
11	0	0	0	0	547	204	
12	0	0	0	0	546	202	
13	0	0	0	0	546	204	
14	0	0	0	0	545	203	
15	0	0	0	0	544	203	
0	0	0	0	0	543	203	
1	0	0	0	0	543	203	
2	0	0	0	0	541	203	
3	0	0	0	0	541	202	
4	0	0	0	0	541	203	
5	0	0	0	0	543	203	
6	0	0	0	0	546	202	
7	0	0	0	0	553	203	
8	0	0	0	0	559	202	
9	0	0	0	0	559	203	
10	0	0	0	0	556	204	
11	0	0	0	0	554	202	
12	0	0	0	0	556	203	
13	0	0	0	0	558	204	
14	0	0	0	0	555	201	
15	0	0	0	0	550	203	
0	0	0	0	0	542	204	
1	0	0	0	0	537	202	
2	0	0	0	0	533	203	
3	0	0	0	0	530	204	
4	0	0	0	0	529	202	
5	0	0	0	0	529	203	
6	0	0	0	0	531	204	
7	0	0	0	0	532	202	
8	0	0	0	0	534	203	
9	0	0	0	0	535	203	
10	0	0	0	0	536	202	
11	0	0	0	0	536	203	
12	0	0	0	0	537	203	
13	0	0	0	0	538	202	
14	0	0	0	0	538	203	
15	0	0	0	0	538	204	
0	0	0	0	0	537	202	
1	0	0	0	0	536	203	
2	0	0	0	0	534	204	
3	0	0	0	0	533	202	
4	0	0	0	0	532	204	
5	0	0	0	0	531	204	
6	0	0	0	0	531	203	
7	0	0	0	0	531	204	
8	0	0	0	0	533	203	
9	0	0	0	0	535	203	
10	0	0	0	0	536	201	
11	0	0	0	0	537	203	
12	0	0	0	0	536	204	
13	0	0	0	0	536	202	
14	0	0	0	0	534	204	
15	0	0	0	0	531	203	
0	0	0	0	0	528	203	
1	0	0	0	0	527	202	
2	0	0	0	0	525	203	
3	0	0	0	0	524	204	
4	0	0	0	0	524	202	
5	0	0	0	0	524	203	
6	0	0	0	0	526	204	
7	0	0	0	0	528	202	
8	0	0	0	0	529	203	
9	0	0	0	0	530	204	
10	0	0	0	0	531	202	
11	0	0	0	0	533	203	
12	0	0	0	0	535	204	
13	0	0	0	0	537	203	
14	0	0	0	0	536	201	
15	0	0	0	0	535	203	
0	0	0	0	0	533	203	
1	0	0	0	0	532	202	
2	0	0	0	0	531	203	
3	0	0	0	0	530	204	
4	0	0	0	0	528	201	
5	0	0	0	0	527	203	
6	0	0	0	0	526	204	
7	0	0	0	0	525	202	
8	0	0	0	0	524	203	
9	0	0	0	0	525	204	
10	0	0	0	0	526	202	
11	0	0	0	0	527	204	
12	0	0	0	0	528	203	
13	0	0	0	0	529	202	
14	0	0	0	0	530	203	
15	0	0	0	0	531	203	
0	0	0	0	0	531	203	
1	0	0	0	0	531	203	
2	0	0	0	0	530	204	
3	0	0	0	0	530	202	
4	0	0	0	0	530	203	
5	0	0	0	0	532	203	
6	0	0	0	0	534	204	
7	0	0	0	0	538	203	
8	0	0	0	0	543	202	
9	0	0	0	0	548	203	
10	0	0	0	0	552	203	
11	0	0	0	0	552	202	
12	0	0	0	0	550	203	
13	0	0	0	0	548	203	
14	0	0	0	0	545	202	
15	0	0	0	0	543	203	
0	0	0	0	0	541	203	
1	0	0	0	0	540	202	
2	0	0	0	0	540	203	
3	0	0	0	0	539	203	
4	0	0	0	0	538	203	
5	0	0	0	0	539	204	
6	0	0	0	0	542	202	
7	0	0	0	0	546	203	
8	0	0	0	0	550	203	
9	0	0	0	0	553	201	
10	0	0	0	0	553	203	
11	0	0	0	0	551	202	
12	0	0	0	0	550	203	
13	0	0	0	0	547	204	
14	0	0	0	0	544	202	
15	0	0	0	0	540	204	
0	0	0	0	0	537	204	
1	0	0	0	0	532	203	
2	0	0	0	0	528	204	
3	0	0	0	0	525	204	
4	0	0	0	0	522	202	
5	0	0	0	0	520	203	
6	0	0	0	0	521	203	
7	0	0	0	0	527	204	
8	0	0	0	0	537	203	
9	0	0	0	0	543	203	
10	0	0	0	0	545	203	
11	0	0	0	0	544	204	
12	0	0	0	0	544	202	
13	0	0	0	0	543	203	
14	0	0	0	0	542	204	
15	0	0	0	0	539	202	
0	0	0	0	0	536	204	
1	0	0	0	0	534	203	
2	0	0	0	0	532	202	
3	0	0	0	0	530	203	
4	0	0	0	0	528	203	
5	0	0	0	0	528	203	
6	0	0	0	0	527	203	
7	0	0	0	0	527	203	
8	0	0	0	0	527	203	
9	0	0	0	0	527	204	
10	0	0	0	0	527	203	
11	0	0	0	0	527	203	
12	0	0	0	0	526	202	
13	0	0	0	0	525	203	
14	0	0	0	0	525	204	
15	0	0	0	0	524	202	
0	0	0	0	0	525	203	
1	0	0	0	0	526	204	
2	0	0	0	0	527	203	
3	0	0	0	0	529	204	
4	0	0	0	0	530	204	
5	0	0	0	0	529	202	
6	0	0	0	0	528	203	
7	0	0	0	0	529	203	
8	0	0	0	0	529	201	
9	0	0	0	0	530	203	
10	0	0	0	0	529	203	
11	0	0	0	0	531	202	
12	0	0	0	0	531	203	
13	0	0	0	0	532	204	
14	0	0	0	0	533	202	
15	0	0	0	0	534	203	
0	0	0	0	0	536	204	
1	0	0	0	0	538	202	
2	0	0	0	0	539	204	
3	0	0	0	0	537	203	
4	0	0	0	0	534	203	
5	0	0	0	0	531	201	
6	0	0	0	0	529	203	
7	0	0	0	0	528	203	
8	0	0	0	0	528	202	
9	0	0	0	0	529	203	
10	0	0	0	0	530	203	
11	0	0	0	0	531	203	
12	0	0	0	0	531	203	
13	0	0	0	0	531	203	
14	0	0	0	0	528	202	
15	0	0	0	0	524	203	
0	0	0	0	0	519	203	
1	0	0	0	0	515	202	
2	0	0	0	0	513	203	
3	0	0	0	0	511	203	
4	0	0	0	0	511	202	
5	0	0	0	0	509	203	
6	0	0	0	0	507	203	
7	0	0	0	0	507	203	
8	0	0	0	0	507	203	
9	0	0	0	0	508	203	
10	0	0	0	0	510	203	
11	0	0	0	0	513	203	
12	0	0	0	0	515	203	
13	0	0	0	0	516	202	
14	0	0	0	0	517	203	
15	0	0	0	0	516	203	
0	0	0	0	0	514	202	
1	0	0	0	0	513	203	
2	0	0	0	0	510	203	
3	0	0	0	0	509	204	
4	0	0	0	0	508	203	
5	0	0	0	0	506	203	
6	0	0	0	0	505	203	
7	0	0	0	0	504	203	
8	0	0	0	0	504	203	
9	0	0	0	0	502	202	
10	0	0	0	0	504	203	
11	0	0	0	0	504	204	
12	0	0	0	0	503	202	
13	0	0	0	0	501	203	
14	0	0	0	0	501	203	
15	0	0	0	0	501	203	
0	0	0	0	0	501	203	
1	0	0	0	0	502	203	
2	0	0	0	0	502	202	
3	0	0	0	0	503	203	
4	0	0	0	0	502	204	
5	0	0	0	0	503	202	
6	0	0	0	0	503	203	
7	0	0	0	0	504	203	
8	0	0	0	0	503	203	
9	0	0	0	0	503	204	
10	0	0	0	0	503	203	
11	0	0	0	0	504	203	
12	0	0	0	0	507	202	
13	0	0	0	0	508	203	
14	0	0	0	0	507	204	
15	0	0	0	0	506	202	
0	0	0	0	0	505	203	
1	0	0	0	0	504	204	
2	0	0	0	0	503	202	
3	0	0	0	0	501	204	
4	0	0	0	0	501	203	
5	0	0	0	0	502	203	
6	0	0	0	0	503	202	
7	0	0	0	0	505	203	
8	0	0	0	0	506	203	
9	0	0	0	0	507	202	
10	0	0	0	0	507	203	
11	0	0	0	0	507	203	
12	0	0	0	0	508	202	
13	0	0	0	0	507	203	
14	0	0	0	0	506	203	
15	0	0	0	0	504	203	
0	0	0	0	0	502	204	
1	0	0	0	0	501	203	
2	0	0	0	0	500	203	
3	0	0	0	0	499	203	
4	0	0	0	0	498	202	
5	0	0	0	0	496	203	
6	0	0	0	0	497	204	
7	0	0	0	0	499	202	
8	0	0	0	0	504	203	
9	0	0	0	0	514	203	
10	0	0	0	0	524	202	
11	0	0	0	0	531	203	
12	0	0	0	0	531	203	
13	0	0	0	0	526	202	
14	0	0	0	0	519	203	
15	0	0	0	0	513	203	
0	0	0	0	0	506	202	
1	0	0	0	0	501	203	
2	0	0	0	0	498	204	
3	0	0	0	0	496	202	
4	0	0	0	0	493	203	
5	0	0	0	0	493	203	
6	0	0	0	0	493	202	
7	0	0	0	0	493	203	
8	0	0	0	0	494	203	
9	0	0	0	0	496	202	
10	0	0	0	0	496	203	
11	0	0	0	0	497	203	
12	0	0	0	0	497	204	
13	0	0	0	0	497	204	
14	0	0	0	0	496	202	
15	0	0	0	0	497	203	
0	0	0	0	0	497	203	
1	0	0	0	0	497	202	
2	0	0	0	0	496	203	
3	0	0	0	0	495	204	
4	0	0	0	0	496	202	
5	0	0	0	0	496	203	
6	0	0	0	0	498	203	
7	0	0	0	0	499	203	
8	0	0	0	0	502	203	
9	0	0	0	0	505	203	
10	0	0	0	0	508	203	
11	0	0	0	0	511	203	
12	0	0	0	0	514	203	
13	0	0	0	0	514	204	
14	0	0	0	0	512	203	
15	0	0	0	0	508	203	
0	0	0	0	0	505	203	
1	0	0	0	0	502	203	
2	0	0	0	0	497	202	
3	0	0	0	0	494	203	
4	0	0	0	0	493	204	
5	0	0	0	0	493	202	
6	0	0	0	0	493	203	
7	0	0	0	0	493	204	
8	0	0	0	0	493	202	
9	0	0	0	0	494	203	
10	0	0	0	0	496	204	
11	0	0	0	0	498	202	
12	0	0	0	0	499	203	
13	0	0	0	0	501	203	
14	0	0	0	0	500	204	
15	0	0	0	0	500	203	
0	0	0	0	0	501	203	
1	0	0	0	0	501	203	
2	0	0	0	0	501	203	
3	0	0	0	0	500	203	
4	0	0	0	0	498	204	
5	0	0	0	0	498	203	
6	0	0	0	0	499	203	
7	0	0	0	0	499	203	
8	0	0	0	0	500	204	
9	0	0	0	0	505	202	
10	0	0	0	0	510	203	
11	0	0	0	0	513	204	
12	0	0	0	0	513	202	
13	0	0	0	0	511	203	
14	0	0	0	0	507	203	
15	0	0	0	0	504	204	
0	0	0	0	0	500	203	
1	0	0	0	0	497	203	
2	0	0	0	0	494	202	
3	0	0	0	0	494	203	
4	0	0	0	0	494	203	
5	0	0	0	0	494	202	
6	0	0	0	0	492	203	
7	0	0	0	0	490	203	
8	0	0	0	0	490	202	
9	0	0	0	0	490	203	
10	0	0	0	0	490	204	
11	0	0	0	0	492	202	
12	0	0	0	0	493	203	
13	0	0	0	0	493	203	
14	0	0	0	0	493	203	
15	0	0	0	0	493	204	
0	0	0	0	0	492	202	
1	0	0	0	0	492	203	
2	0	0	0	0	491	204	
3	0	0	0	0	492	203	
4	0	0	0	0	492	204	
5	0	0	0	0	493	203	
6	0	0	0	0	493	203	
7	0	0	0	0	494	203	
8	0	0	0	0	496	203	
9	0	0	0	0	496	203	
10	0	0	0	0	497	203	
11	0	0	0	0	497	203	
12	0	0	0	0	496	203	
13	0	0	0	0	495	203	
14	0	0	0	0	496	203	
15	0	0	0	0	496	202	
0	0	0	0	0	496	203	
1	0	0	0	0	495	204	
2	0	0	0	0	495	202	
3	0	0	0	0	495	203	
4	0	0	0	0	495	204	
5	0	0	0	0	495	202	
6	0	0	0	0	494	203	
7	0	0	0	0	494	204	
8	0	0	0	0	494	203	
9	0	0	0	0	496	204	
10	0	0	0	0	498	203	
11	0	0	0	0	502	203	
12	0	0	0	0	507	203	
13	0	0	0	0	511	204	
14	0	0	0	0	515	202	
15	0	0	0	0	516	203	
0	0	0	0	0	516	203	
1	0	0	0	0	515	202	
2	0	0	0	0	514	203	
3	0	0	0	0	512	203	
4	0	0	0	0	508	203	
5	0	0	0	0	504	203	
6	0	0	0	0	499	204	
7	0	0	0	0	498	202	
8	0	0	0	0	498	203	
9	0	0	0	0	499	202	
10	0	0	0	0	504	203	
11	0	0	0	0	510	203	
12	0	0	0	0	519	202	
13	0	0	0	0	528	203	
14	0	0	0	0	534	203	
15	0	0	0	0	531	202	
0	0	0	0	0	524	203	
1	0	0	0	0	518	202	
2	0	0	0	0	516	203	
3	0	0	0	0	516	203	
4	0	0	0	0	514	203	
5	0	0	0	0	511	202	
6	0	0	0	0	507	203	
7	0	0	0	0	505	204	
8	0	0	0	0	506	202	
9	0	0	0	0	507	203	
10	0	0	0	0	507	202	
11	0	0	0	0	507	204	
12	0	0	0	0	508	203	
13	0	0	0	0	510	203	
14	0	0	0	0	513	202	
15	0	0	0	0	515	203	
0	0	0	0	0	512	203	
1	0	0	0	0	508	203	
2	0	0	0	0	504	203	
3	0	0	0	0	501	203	
4	0	0	0	0	498	204	
5	0	0	0	0	494	203	
6	0	0	0	0	492	203	
7	0	0	0	0	489	203	
8	0	0	0	0	486	203	
9	0	0	0	0	484	203	
10	0	0	0	0	484	203	
11	0	0	0	0	484	203	
12	0	0	0	0	486	203	
13	0	0	0	0	488	204	
14	0	0	0	0	489	204	
15	0	0	0	0	489	203	
0	0	0	0	0	488	203	
1	0	0	0	0	486	203	
2	0	0	0	0	483	203	
3	0	0	0	0	482	204	
4	0	0	0	0	483	203	
5	0	0	0	0	490	203	
6	0	0	0	0	502	204	
7	0	0	0	0	513	203	
8	0	0	0	0	519	202	
9	0	0	0	0	520	203	
10	0	0	0	0	521	203	
11	0	0	0	0	520	201	
12	0	0	0	0	515	203	
13	0	0	0	0	509	203	
14	0	0	0	0	503	202	
15	0	0	0	0	498	203	
0	0	0	0	0	494	203	
1	0	0	0	0	489	202	
2	0	0	0	0	487	203	
3	0	0	0	0	487	204	
4	0	0	0	0	488	202	
5	0	0	0	0	487	203	
6	0	0	0	0	486	204	
7	0	0	0	0	485	202	
8	0	0	0	0	484	204	
9	0	0	0	0	485	203	
10	0	0	0	0	485	202	
11	0	0	0	0	484	203	
12	0	0	0	0	483	203	
13	0	0	0	0	482	203	
14	0	0	0	0	480	203	
15	0	0	0	0	480	203	
0	0	0	0	0	480	203	
1	0	0	0	0	480	203	
2	0	0	0	0	481	203	
3	0	0	0	0	482	202	
4	0	0	0	0	483	203	
5	0	0	0	0	486	203	
6	0	0	0	0	488	204	
7	0	0	0	0	489	204	
8	0	0	0	0	490	202	
9	0	0	0	0	491	203	
10	0	0	0	0	492	203	
11	0	0	0	0	493	203	
12	0	0	0	0	494	204	
13	0	0	0	0	494	202	
14	0	0	0	0	495	203	
15	0	0	0	0	496	203	
0	0	0	0	0	497	202	
1	0	0	0	0	498	203	
2	0	0	0	0	498	204	
3	0	0	0	0	497	202	
4	0	0	0	0	496	203	
5	0	0	0	0	496	203	
6	0	0	0	0	497	202	
7	0	0	0	0	496	203	
8	0	0	0	0	497	203	
9	0	0	0	0	498	202	
10	0	0	0	0	499	203	
11	0	0	0	0	499	203	
12	0	0	0	0	499	202	
13	0	0	0	0	500	203	
14	0	0	0	0	501	203	
15	0	0	0	0	502	202	
0	0	0	0	0	502	203	
1	0	0	0	0	501	204	
2	0	0	0	0	500	202	
3	0	0	0	0	500	203	
4	0	0	0	0	500	203	
5	0	0	0	0	502	202	
6	0	0	0	0	500	203	
7	0	0	0	0	500	203	
8	0	0	0	0	501	202	
9	0	0	0	0	503	203	
10	0	0	0	0	504	203	
11	0	0	0	0	505	203	
12	0	0	0	0	505	203	
13	0	0	0	0	506	202	
14	0	0	0	0	506	203	
15	0	0	0	0	505	204	
0	0	0	0	0	505	202	
1	0	0	0	0	505	203	
2	0	0	0	0	505	203	
3	0	0	0	0	506	203	
4	0	0	0	0	505	204	
5	0	0	0	0	505	202	
6	0	0	0	0	505	203	
7	0	0	0	0	507	203	
8	0	0	0	0	508	202	
9	0	0	0	0	507	203	
10	0	0	0	0	507	203	
11	0	0	0	0	507	202	
12	0	0	0	0	505	203	
13	0	0	0	0	504	202	
14	0	0	0	0	504	203	
15	0	0	0	0	504	204	
0	0	0	0	0	505	202	
1	0	0	0	0	505	204	
2	0	0	0	0	505	203	
3	0	0	0	0	505	202	
4	0	0	0	0	506	203	
5	0	0	0	0	505	204	
6	0	0	0	0	504	202	
7	0	0	0	0	505	203	
8	0	0	0	0	506	203	
9	0	0	0	0	505	202	
10	0	0	0	0	505	203	
11	0	0	0	0	505	203	
12	0	0	0	0	505	202	
13	0	0	0	0	504	203	
14	0	0	0	0	504	203	
15	0	0	0	0	503	202	
0	0	0	0	0	504	203	
1	0	0	0	0	504	203	
2	0	0	0	0	505	201	
3	0	0	0	0	505	203	
4	0	0	0	0	504	203	
5	0	0	0	0	504	204	
6	0	0	0	0	504	203	
7	0	0	0	0	504	202	
8	0	0	0	0	503	203	
9	0	0	0	0	502	203	
10	0	0	0	0	503	203	
11	0	0	0	0	504	203	
12	0	0	0	0	504	202	
13	0	0	0	0	504	203	
14	0	0	0	0	504	203	
15	0	0	0	0	504	202	
0	0	0	0	0	503	203	
1	0	0	0	0	501	203	
2	0	0	0	0	499	203	
3	0	0	0	0	498	204	
4	0	0	0	0	497	202	
5	0	0	0	0	497	203	
6	0	0	0	0	497	203	
7	0	0	0	0	497	203	
8	0	0	0	0	497	204	
9	0	0	0	0	497	202	
10	0	0	0	0	498	203	
11	0	0	0	0	498	203	
12	0	0	0	0	499	203	
13	0	0	0	0	499	203	
14	0	0	0	0	499	203	
15	0	0	0	0	498	203	
0	0	0	0	0	498	204	
1	0	0	0	0	497	203	
2	0	0	0	0	498	204	
3	0	0	0	0	497	204	
4	0	0	0	0	497	202	
5	0	0	0	0	499	203	
6	0	0	0	0	499	203	
7	0	0	0	0	499	204	
8	0	0	0	0	500	204	
9	0	0	0	0	500	202	
10	0	0	0	0	500	203	
11	0	0	0	0	500	203	
12	0	0	0	0	501	204	
13	0	0	0	0	500	203	
14	0	0	0	0	501	203	
15	0	0	0	0	502	204	
0	0	0	0	0	503	203	
1	0	0	0	0	504	202	
2	0	0	0	0	506	203	
3	0	0	0	0	507	203	
4	0	0	0	0	508	201	
5	0	0	0	0	507	203	
6	0	0	0	0	507	203	
7	0	0	0	0	508	204	
8	0	0	0	0	508	203	
9	0	0	0	0	508	203	
10	0	0	0	0	508	203	
11	0	0	0	0	508	203	
12	0	0	0	0	509	203	
13	0	0	0	0	509	201	
14	0	0	0	0	510	203	
15	0	0	0	0	510	202	
0	0	0	0	0	509	203	
1	0	0	0	0	509	203	
2	0	0	0	0	509	202	
3	0	0	0	0	509	203	
4	0	0	0	0	508	203	
5	0	0	0	0	507	202	
6	0	0	0	0	505	203	
7	0	0	0	0	504	203	
8	0	0	0	0	504	202	
9	0	0	0	0	504	203	
10	0	0	0	0	506	202	
11	0	0	0	0	507	203	
12	0	0	0	0	507	203	
13	0	0	0	0	508	203	
14	0	0	0	0	508	203	
15	0	0	0	0	509	202	
0	0	0	0	0	510	203	
1	0	0	0	0	509	203	
2	0	0	0	0	508	202	
3	0	0	0	0	507	203	
4	0	0	0	0	507	204	
5	0	0	0	0	508	202	
6	0	0	0	0	508	203	
7	0	0	0	0	508	204	
8	0	0	0	0	508	202	
9	0	0	0	0	508	203	
10	0	0	0	0	508	203	
11	0	0	0	0	507	201	
12	0	0	0	0	507	203	
13	0	0	0	0	508	203	
14	0	0	0	0	508	202	
15	0	0	0	0	510	203	
0	0	0	0	0	509	203	
1	0	0	0	0	508	202	
2	0	0	0	0	507	203	
3	0	0	0	0	506	204	
4	0	0	0	0	506	202	
5	0	0	0	0	505	203	
6	0	0	0	0	506	204	
7	0	0	0	0	508	202	
8	0	0	0	0	511	203	
9	0	0	0	0	515	203	
10	0	0	0	0	520	202	
11	0	0	0	0	524	203	
12	0	0	0	0	524	203	
13	0	0	0	0	520	202	
14	0	0	0	0	515	203	
15	0	0	0	0	512	204	
0	0	0	0	0	506	202	
1	0	0	0	0	501	203	
2	0	0	0	0	495	204	
3	0	0	0	0	492	202	
4	0	0	0	0	490	203	
5	0	0	0	0	492	203	
6	0	0	0	0	494	204	
7	0	0	0	0	499	204	
8	0	0	0	0	505	202	
9	0	0	0	0	509	203	
10	0	0	0	0	510	204	
11	0	0	0	0	508	202	
12	0	0	0	0	505	203	
13	0	0	0	0	502	203	
14	0	0	0	0	499	202	
15	0	0	0	0	499	203	
0	0	0	0	0	498	203	
1	0	0	0	0	493	202	
2	0	0	0	0	489	203	
3	0	0	0	0	487	204	
4	0	0	0	0	487	202	
5	0	0	0	0	489	203	
6	0	0	0	0	492	203	
7	0	0	0	0	493	202	
8	0	0	0	0	493	203	
9	0	0	0	0	495	203	
10	0	0	0	0	499	202	
11	0	0	0	0	503	204	
12	0	0	0	0	507	203	
13	0	0	0	0	516	203	
14	0	0	0	0	529	202	
15	0	0	0	0	542	203	
0	0	0	0	0	548	202	
1	0	0	0	0	547	203	
2	0	0	0	0	544	203	
3	0	0	0	0	540	202	
4	0	0	0	0	536	203	
5	0	0	0	0	531	203	
6	0	0	0	0	524	202	
7	0	0	0	0	518	204	
8	0	0	0	0	512	203	
9	0	0	0	0	510	203	
10	0	0	0	0	511	202	
11	0	0	0	0	511	203	
12	0	0	0	0	508	203	
13	0	0	0	0	504	202	
14	0	0	0	0	500	203	
15	0	0	0	0	495	203	
0	0	0	0	0	489	202	
1	0	0	0	0	483	203	
2	0	0	0	0	481	203	
3	0	0	0	0	482	202	
4	0	0	0	0	484	203	
5	0	0	0	0	488	203	
6	0	0	0	0	493	203	
7	0	0	0	0	497	203	
8	0	0	0	0	502	202	
9	0	0	0	0	501	203	
10	0	0	0	0	498	204	
11	0	0	0	0	495	202	
12	0	0	0	0	492	203	
13	0	0	0	0	490	203	
14	0	0	0	0	490	203	
15	0	0	0	0	496	203	
0	0	0	0	0	506	203	
1	0	0	0	0	511	203	
2	0	0	0	0	512	202	
3	0	0	0	0	508	203	
4	0	0	0	0	504	203	
5	0	0	0	0	499	203	
6	0	0	0	0	496	203	
7	0	0	0	0	495	203	
8	0	0	0	0	495	204	
9	0	0	0	0	497	203	
10	0	0	0	0	502	202	
11	0	0	0	0	508	203	
12	0	0	0	0	516	203	
13	0	0	0	0	523	202	
14	0	0	0	0	524	204	
15	0	0	0	0	523	203	
0	0	0	0	0	521	202	
1	0	0	0	0	517	204	
2	0	0	0	0	513	203	
3	0	0	0	0	509	202	
4	0	0	0	0	505	204	
5	0	0	0	0	504	203	
6	0	0	0	0	503	202	
7	0	0	0	0	502	204	
8	0	0	0	0	504	203	
9	0	0	0	0	510	202	
10	0	0	0	0	517	203	
11	0	0	0	0	525	203	
12	0	0	0	0	535	201	
13	0	0	0	0	546	203	
14	0	0	0	0	559	202	
15	0	0	0	0	566	203	
0	0	0	0	0	565	203	
1	0	0	0	0	559	202	
2	0	0	0	0	551	203	
