# OpenSignals Text File Format. Version 1
# {"98:D3:B1:FD:3D:90": {"position": 0, "device": "bitalino_rev", "device name": "98:D3:B1:FD:3D:90", "device connection": "BTH98:D3:B1:FD:3D:90", "sampling rate": 1000, "resolution": [4, 1, 1, 1, 1, 10, 10], "firmware version": 1281, "comments": "", "keywords": "", "mode": 0, "sync interval": 2, "date": "2022-4-7", "time": "18:4:47.141", "channels": [2, 3], "sensor": ["ECGBIT", "EDABITREV"], "label": ["A2", "A3"], "column": ["nSeq", "I1", "I2", "O1", "O2", "A2", "A3"], "special": [{}, {}], "digital IO": [0, 0, 1, 1]}}
# EndOfHeader
0	0	0	0	0	507	754	
1	0	0	0	0	508	755	
2	0	0	0	0	509	755	
3	0	0	0	0	507	754	
4	0	0	0	0	507	755	
5	0	0	0	0	507	754	
6	0	0	0	0	506	754	
7	0	0	0	0	506	755	
8	0	0	0	0	507	754	
9	0	0	0	0	507	754	
10	0	0	0	0	506	755	
11	0	0	0	0	505	755	
12	0	0	0	0	505	754	
13	0	0	0	0	506	754	
14	0	0	0	0	507	755	
15	0	0	0	0	506	755	
0	0	0	0	0	505	754	
1	0	0	0	0	505	754	
2	0	0	0	0	505	754	
3	0	0	0	0	505	754	
4	0	0	0	0	506	754	
5	0	0	0	0	507	754	
6	0	0	0	0	508	754	
7	0	0	0	0	508	754	
8	0	0	0	0	508	754	
9	0	0	0	0	508	754	
10	0	0	0	0	508	754	
11	0	0	0	0	509	755	
12	0	0	0	0	509	754	
13	0	0	0	0	510	755	
14	0	0	0	0	508	754	
15	0	0	0	0	508	754	
0	0	0	0	0	508	754	
1	0	0	0	0	507	754	
2	0	0	0	0	507	754	
3	0	0	0	0	507	754	
4	0	0	0	0	508	754	
5	0	0	0	0	508	755	
6	0	0	0	0	508	754	
7	0	0	0	0	508	755	
8	0	0	0	0	507	754	
9	0	0	0	0	507	755	
10	0	0	0	0	506	755	
11	0	0	0	0	505	754	
12	0	0	0	0	505	754	
13	0	0	0	0	504	754	
14	0	0	0	0	504	754	
15	0	0	0	0	504	754	
0	0	0	0	0	503	754	
1	0	0	0	0	503	755	
2	0	0	0	0	503	754	
3	0	0	0	0	502	754	
4	0	0	0	0	502	754	
5	0	0	0	0	500	754	
6	0	0	0	0	500	754	
7	0	0	0	0	500	755	
8	0	0	0	0	500	754	
9	0	0	0	0	500	754	
10	0	0	0	0	501	754	
11	0	0	0	0	501	755	
12	0	0	0	0	502	754	
13	0	0	0	0	502	754	
14	0	0	0	0	503	754	
15	0	0	0	0	504	754	
0	0	0	0	0	505	755	
1	0	0	0	0	506	754	
2	0	0	0	0	507	754	
3	0	0	0	0	507	754	
4	0	0	0	0	508	754	
5	0	0	0	0	508	754	
6	0	0	0	0	509	754	
7	0	0	0	0	510	754	
8	0	0	0	0	510	755	
9	0	0	0	0	510	754	
10	0	0	0	0	510	754	
11	0	0	0	0	509	755	
12	0	0	0	0	509	754	
13	0	0	0	0	508	754	
14	0	0	0	0	508	754	
15	0	0	0	0	507	755	
0	0	0	0	0	506	755	
1	0	0	0	0	505	754	
2	0	0	0	0	505	755	
3	0	0	0	0	504	754	
4	0	0	0	0	505	754	
5	0	0	0	0	506	754	
6	0	0	0	0	505	755	
7	0	0	0	0	505	754	
8	0	0	0	0	504	754	
9	0	0	0	0	503	755	
10	0	0	0	0	503	754	
11	0	0	0	0	502	754	
12	0	0	0	0	503	754	
13	0	0	0	0	503	754	
14	0	0	0	0	504	755	
15	0	0	0	0	504	754	
0	0	0	0	0	502	754	
1	0	0	0	0	503	754	
2	0	0	0	0	503	754	
3	0	0	0	0	503	754	
4	0	0	0	0	504	755	
5	0	0	0	0	504	754	
6	0	0	0	0	504	754	
7	0	0	0	0	504	754	
8	0	0	0	0	504	754	
9	0	0	0	0	504	754	
10	0	0	0	0	506	754	
11	0	0	0	0	506	754	
12	0	0	0	0	507	754	
13	0	0	0	0	508	754	
14	0	0	0	0	510	754	
15	0	0	0	0	511	754	
0	0	0	0	0	510	754	
1	0	0	0	0	508	754	
2	0	0	0	0	507	754	
3	0	0	0	0	506	754	
4	0	0	0	0	506	754	
5	0	0	0	0	506	754	
6	0	0	0	0	507	754	
7	0	0	0	0	507	754	
8	0	0	0	0	506	754	
9	0	0	0	0	506	754	
10	0	0	0	0	506	754	
11	0	0	0	0	506	754	
12	0	0	0	0	507	754	
13	0	0	0	0	507	754	
14	0	0	0	0	505	754	
15	0	0	0	0	505	754	
0	0	0	0	0	504	754	
1	0	0	0	0	504	754	
2	0	0	0	0	504	754	
3	0	0	0	0	503	754	
4	0	0	0	0	504	754	
5	0	0	0	0	504	754	
6	0	0	0	0	503	754	
7	0	0	0	0	502	754	
8	0	0	0	0	499	754	
9	0	0	0	0	498	754	
10	0	0	0	0	496	754	
11	0	0	0	0	496	755	
12	0	0	0	0	496	754	
13	0	0	0	0	495	754	
14	0	0	0	0	496	754	
15	0	0	0	0	496	754	
0	0	0	0	0	496	754	
1	0	0	0	0	497	754	
2	0	0	0	0	498	754	
3	0	0	0	0	499	754	
4	0	0	0	0	499	754	
5	0	0	0	0	499	754	
6	0	0	0	0	500	754	
7	0	0	0	0	500	754	
8	0	0	0	0	501	754	
9	0	0	0	0	501	754	
10	0	0	0	0	502	754	
11	0	0	0	0	503	754	
12	0	0	0	0	503	754	
13	0	0	0	0	502	754	
14	0	0	0	0	502	754	
15	0	0	0	0	502	754	
0	0	0	0	0	502	754	
1	0	0	0	0	500	754	
2	0	0	0	0	500	754	
3	0	0	0	0	500	754	
4	0	0	0	0	501	754	
5	0	0	0	0	502	754	
6	0	0	0	0	502	754	
7	0	0	0	0	501	754	
8	0	0	0	0	500	754	
9	0	0	0	0	499	754	
10	0	0	0	0	500	754	
11	0	0	0	0	500	754	
12	0	0	0	0	500	754	
13	0	0	0	0	501	754	
14	0	0	0	0	502	754	
15	0	0	0	0	502	754	
0	0	0	0	0	502	754	
1	0	0	0	0	503	754	
2	0	0	0	0	504	754	
3	0	0	0	0	505	754	
4	0	0	0	0	505	754	
5	0	0	0	0	505	754	
6	0	0	0	0	505	754	
7	0	0	0	0	505	754	
8	0	0	0	0	503	754	
9	0	0	0	0	502	754	
10	0	0	0	0	501	754	
11	0	0	0	0	501	754	
12	0	0	0	0	502	754	
13	0	0	0	0	503	754	
14	0	0	0	0	503	754	
15	0	0	0	0	502	754	
0	0	0	0	0	502	754	
1	0	0	0	0	501	754	
2	0	0	0	0	501	754	
3	0	0	0	0	500	754	
4	0	0	0	0	500	754	
5	0	0	0	0	498	754	
6	0	0	0	0	497	754	
7	0	0	0	0	497	754	
8	0	0	0	0	498	754	
9	0	0	0	0	498	754	
10	0	0	0	0	497	753	
11	0	0	0	0	497	754	
12	0	0	0	0	498	754	
13	0	0	0	0	499	754	
14	0	0	0	0	500	754	
15	0	0	0	0	501	754	
0	0	0	0	0	501	754	
1	0	0	0	0	501	754	
2	0	0	0	0	500	754	
3	0	0	0	0	498	754	
4	0	0	0	0	497	754	
5	0	0	0	0	497	754	
6	0	0	0	0	498	754	
7	0	0	0	0	497	754	
8	0	0	0	0	499	754	
9	0	0	0	0	499	754	
10	0	0	0	0	501	754	
11	0	0	0	0	501	754	
12	0	0	0	0	500	754	
13	0	0	0	0	501	754	
14	0	0	0	0	503	754	
15	0	0	0	0	504	754	
0	0	0	0	0	504	754	
1	0	0	0	0	504	754	
2	0	0	0	0	504	754	
3	0	0	0	0	504	754	
4	0	0	0	0	503	754	
5	0	0	0	0	503	753	
6	0	0	0	0	503	754	
7	0	0	0	0	503	754	
8	0	0	0	0	503	754	
9	0	0	0	0	503	754	
10	0	0	0	0	503	754	
11	0	0	0	0	504	754	
12	0	0	0	0	504	754	
13	0	0	0	0	504	754	
14	0	0	0	0	503	754	
15	0	0	0	0	504	754	
0	0	0	0	0	504	754	
1	0	0	0	0	505	754	
2	0	0	0	0	505	754	
3	0	0	0	0	504	754	
4	0	0	0	0	504	754	
5	0	0	0	0	503	754	
6	0	0	0	0	502	754	
7	0	0	0	0	502	754	
8	0	0	0	0	500	754	
9	0	0	0	0	501	754	
10	0	0	0	0	502	754	
11	0	0	0	0	502	754	
12	0	0	0	0	502	754	
13	0	0	0	0	502	754	
14	0	0	0	0	502	754	
15	0	0	0	0	502	754	
0	0	0	0	0	502	754	
1	0	0	0	0	503	754	
2	0	0	0	0	503	754	
3	0	0	0	0	504	754	
4	0	0	0	0	505	754	
5	0	0	0	0	505	754	
6	0	0	0	0	507	754	
7	0	0	0	0	508	754	
8	0	0	0	0	509	754	
9	0	0	0	0	511	754	
10	0	0	0	0	512	754	
11	0	0	0	0	515	754	
12	0	0	0	0	516	753	
13	0	0	0	0	517	754	
14	0	0	0	0	517	754	
15	0	0	0	0	515	754	
0	0	0	0	0	515	754	
1	0	0	0	0	515	754	
2	0	0	0	0	515	754	
3	0	0	0	0	515	754	
4	0	0	0	0	517	754	
5	0	0	0	0	518	753	
6	0	0	0	0	519	754	
7	0	0	0	0	521	754	
8	0	0	0	0	524	754	
9	0	0	0	0	528	754	
10	0	0	0	0	532	754	
11	0	0	0	0	537	754	
12	0	0	0	0	542	754	
13	0	0	0	0	546	754	
14	0	0	0	0	551	754	
15	0	0	0	0	555	754	
0	0	0	0	0	558	754	
1	0	0	0	0	563	754	
2	0	0	0	0	566	754	
3	0	0	0	0	567	754	
4	0	0	0	0	567	754	
5	0	0	0	0	568	754	
6	0	0	0	0	568	754	
7	0	0	0	0	568	754	
8	0	0	0	0	566	754	
9	0	0	0	0	563	754	
10	0	0	0	0	560	754	
11	0	0	0	0	556	754	
12	0	0	0	0	550	754	
13	0	0	0	0	544	754	
14	0	0	0	0	539	754	
15	0	0	0	0	534	754	
0	0	0	0	0	530	754	
1	0	0	0	0	525	754	
2	0	0	0	0	520	754	
3	0	0	0	0	515	754	
4	0	0	0	0	509	754	
5	0	0	0	0	504	754	
6	0	0	0	0	498	754	
7	0	0	0	0	492	754	
8	0	0	0	0	487	754	
9	0	0	0	0	482	754	
10	0	0	0	0	478	754	
11	0	0	0	0	472	754	
12	0	0	0	0	467	754	
13	0	0	0	0	461	754	
14	0	0	0	0	454	754	
15	0	0	0	0	448	754	
0	0	0	0	0	443	754	
1	0	0	0	0	440	754	
2	0	0	0	0	439	754	
3	0	0	0	0	440	754	
4	0	0	0	0	442	754	
5	0	0	0	0	445	754	
6	0	0	0	0	448	754	
7	0	0	0	0	453	753	
8	0	0	0	0	458	754	
9	0	0	0	0	463	754	
10	0	0	0	0	467	754	
11	0	0	0	0	471	754	
12	0	0	0	0	475	754	
13	0	0	0	0	479	754	
14	0	0	0	0	484	754	
15	0	0	0	0	487	754	
0	0	0	0	0	489	753	
1	0	0	0	0	492	753	
2	0	0	0	0	494	754	
3	0	0	0	0	497	754	
4	0	0	0	0	500	754	
5	0	0	0	0	503	754	
6	0	0	0	0	504	754	
7	0	0	0	0	506	753	
8	0	0	0	0	507	754	
9	0	0	0	0	509	754	
10	0	0	0	0	510	754	
11	0	0	0	0	511	754	
12	0	0	0	0	511	754	
13	0	0	0	0	512	754	
14	0	0	0	0	512	754	
15	0	0	0	0	512	754	
0	0	0	0	0	511	754	
1	0	0	0	0	509	754	
2	0	0	0	0	507	753	
3	0	0	0	0	507	754	
4	0	0	0	0	505	754	
5	0	0	0	0	506	754	
6	0	0	0	0	507	754	
7	0	0	0	0	508	753	
8	0	0	0	0	508	754	
9	0	0	0	0	508	754	
10	0	0	0	0	509	754	
11	0	0	0	0	509	754	
12	0	0	0	0	508	753	
13	0	0	0	0	508	754	
14	0	0	0	0	508	754	
15	0	0	0	0	509	754	
0	0	0	0	0	509	754	
1	0	0	0	0	508	754	
2	0	0	0	0	508	754	
3	0	0	0	0	508	754	
4	0	0	0	0	508	754	
5	0	0	0	0	507	754	
6	0	0	0	0	507	754	
7	0	0	0	0	508	753	
8	0	0	0	0	508	754	
9	0	0	0	0	508	753	
10	0	0	0	0	506	754	
11	0	0	0	0	507	754	
12	0	0	0	0	506	753	
13	0	0	0	0	506	754	
14	0	0	0	0	506	754	
15	0	0	0	0	507	753	
0	0	0	0	0	507	754	
1	0	0	0	0	507	754	
2	0	0	0	0	505	754	
3	0	0	0	0	504	754	
4	0	0	0	0	504	754	
5	0	0	0	0	503	753	
6	0	0	0	0	502	754	
7	0	0	0	0	501	754	
8	0	0	0	0	500	754	
9	0	0	0	0	499	754	
10	0	0	0	0	499	754	
11	0	0	0	0	499	753	
12	0	0	0	0	499	754	
13	0	0	0	0	498	754	
14	0	0	0	0	497	753	
15	0	0	0	0	496	754	
0	0	0	0	0	495	753	
1	0	0	0	0	494	753	
2	0	0	0	0	494	754	
3	0	0	0	0	493	753	
4	0	0	0	0	493	754	
5	0	0	0	0	492	754	
6	0	0	0	0	492	754	
7	0	0	0	0	492	754	
8	0	0	0	0	492	753	
9	0	0	0	0	491	754	
10	0	0	0	0	491	754	
11	0	0	0	0	491	754	
12	0	0	0	0	491	754	
13	0	0	0	0	491	753	
14	0	0	0	0	490	754	
15	0	0	0	0	490	753	
0	0	0	0	0	491	753	
1	0	0	0	0	491	754	
2	0	0	0	0	491	754	
3	0	0	0	0	491	754	
4	0	0	0	0	492	754	
5	0	0	0	0	492	754	
6	0	0	0	0	492	754	
7	0	0	0	0	493	753	
8	0	0	0	0	495	754	
9	0	0	0	0	495	754	
10	0	0	0	0	495	753	
11	0	0	0	0	495	754	
12	0	0	0	0	494	754	
13	0	0	0	0	493	754	
14	0	0	0	0	492	753	
15	0	0	0	0	492	753	
0	0	0	0	0	492	753	
1	0	0	0	0	492	753	
2	0	0	0	0	493	754	
3	0	0	0	0	492	754	
4	0	0	0	0	492	754	
5	0	0	0	0	492	753	
6	0	0	0	0	492	753	
7	0	0	0	0	492	754	
8	0	0	0	0	490	753	
9	0	0	0	0	489	753	
10	0	0	0	0	489	754	
11	0	0	0	0	488	753	
12	0	0	0	0	487	753	
13	0	0	0	0	488	753	
14	0	0	0	0	487	754	
15	0	0	0	0	486	754	
0	0	0	0	0	486	753	
1	0	0	0	0	486	754	
2	0	0	0	0	486	754	
3	0	0	0	0	486	753	
4	0	0	0	0	486	754	
5	0	0	0	0	487	754	
6	0	0	0	0	487	754	
7	0	0	0	0	486	754	
8	0	0	0	0	485	754	
9	0	0	0	0	483	753	
10	0	0	0	0	483	753	
11	0	0	0	0	484	754	
12	0	0	0	0	485	753	
13	0	0	0	0	485	754	
14	0	0	0	0	486	754	
15	0	0	0	0	486	753	
0	0	0	0	0	485	754	
1	0	0	0	0	485	753	
2	0	0	0	0	485	754	
3	0	0	0	0	483	753	
4	0	0	0	0	484	753	
5	0	0	0	0	483	754	
6	0	0	0	0	483	753	
7	0	0	0	0	485	753	
8	0	0	0	0	487	753	
9	0	0	0	0	487	753	
10	0	0	0	0	488	754	
11	0	0	0	0	489	754	
12	0	0	0	0	490	753	
13	0	0	0	0	491	753	
14	0	0	0	0	491	753	
15	0	0	0	0	492	754	
0	0	0	0	0	493	754	
1	0	0	0	0	494	753	
2	0	0	0	0	496	753	
3	0	0	0	0	496	753	
4	0	0	0	0	497	754	
5	0	0	0	0	497	754	
6	0	0	0	0	497	753	
7	0	0	0	0	497	753	
8	0	0	0	0	498	753	
9	0	0	0	0	500	754	
10	0	0	0	0	500	753	
11	0	0	0	0	501	754	
12	0	0	0	0	502	754	
13	0	0	0	0	503	753	
14	0	0	0	0	504	753	
15	0	0	0	0	504	753	
0	0	0	0	0	506	754	
1	0	0	0	0	506	753	
2	0	0	0	0	507	753	
3	0	0	0	0	508	754	
4	0	0	0	0	508	754	
5	0	0	0	0	508	753	
6	0	0	0	0	509	753	
7	0	0	0	0	509	753	
8	0	0	0	0	509	754	
9	0	0	0	0	509	753	
10	0	0	0	0	510	753	
11	0	0	0	0	512	754	
12	0	0	0	0	512	753	
13	0	0	0	0	512	754	
14	0	0	0	0	511	753	
15	0	0	0	0	512	753	
0	0	0	0	0	512	753	
1	0	0	0	0	510	753	
2	0	0	0	0	511	754	
3	0	0	0	0	511	753	
4	0	0	0	0	511	753	
5	0	0	0	0	511	754	
6	0	0	0	0	512	753	
7	0	0	0	0	512	754	
8	0	0	0	0	512	753	
9	0	0	0	0	513	753	
10	0	0	0	0	513	753	
11	0	0	0	0	513	753	
12	0	0	0	0	513	754	
13	0	0	0	0	512	753	
14	0	0	0	0	512	753	
15	0	0	0	0	511	754	
0	0	0	0	0	510	753	
1	0	0	0	0	509	753	
2	0	0	0	0	507	753	
3	0	0	0	0	505	754	
4	0	0	0	0	505	753	
5	0	0	0	0	504	753	
6	0	0	0	0	505	754	
7	0	0	0	0	504	753	
8	0	0	0	0	504	753	
9	0	0	0	0	503	753	
10	0	0	0	0	503	753	
11	0	0	0	0	503	753	
12	0	0	0	0	503	753	
13	0	0	0	0	502	753	
14	0	0	0	0	500	753	
15	0	0	0	0	501	753	
0	0	0	0	0	503	754	
1	0	0	0	0	502	753	
2	0	0	0	0	501	754	
3	0	0	0	0	500	753	
4	0	0	0	0	500	753	
5	0	0	0	0	499	754	
6	0	0	0	0	498	753	
7	0	0	0	0	497	753	
8	0	0	0	0	497	753	
9	0	0	0	0	497	753	
10	0	0	0	0	497	753	
11	0	0	0	0	497	753	
12	0	0	0	0	496	753	
13	0	0	0	0	495	753	
14	0	0	0	0	496	753	
15	0	0	0	0	496	753	
0	0	0	0	0	496	753	
1	0	0	0	0	496	753	
2	0	0	0	0	496	753	
3	0	0	0	0	495	753	
4	0	0	0	0	494	754	
5	0	0	0	0	494	753	
6	0	0	0	0	494	753	
7	0	0	0	0	494	753	
8	0	0	0	0	494	753	
9	0	0	0	0	495	753	
10	0	0	0	0	496	753	
11	0	0	0	0	496	753	
12	0	0	0	0	496	753	
13	0	0	0	0	496	753	
14	0	0	0	0	496	753	
15	0	0	0	0	496	753	
0	0	0	0	0	496	753	
1	0	0	0	0	497	753	
2	0	0	0	0	496	753	
3	0	0	0	0	496	753	
4	0	0	0	0	496	753	
5	0	0	0	0	496	753	
6	0	0	0	0	496	753	
7	0	0	0	0	496	753	
8	0	0	0	0	496	753	
9	0	0	0	0	496	753	
10	0	0	0	0	495	753	
11	0	0	0	0	495	753	
12	0	0	0	0	495	753	
13	0	0	0	0	495	753	
14	0	0	0	0	495	753	
15	0	0	0	0	496	753	
0	0	0	0	0	497	753	
1	0	0	0	0	497	753	
2	0	0	0	0	497	753	
3	0	0	0	0	496	753	
4	0	0	0	0	497	753	
5	0	0	0	0	498	753	
6	0	0	0	0	498	753	
7	0	0	0	0	498	753	
8	0	0	0	0	497	753	
9	0	0	0	0	496	753	
10	0	0	0	0	496	753	
11	0	0	0	0	497	753	
12	0	0	0	0	497	753	
13	0	0	0	0	496	753	
14	0	0	0	0	495	753	
15	0	0	0	0	496	753	
0	0	0	0	0	496	753	
1	0	0	0	0	496	753	
2	0	0	0	0	496	753	
3	0	0	0	0	496	753	
4	0	0	0	0	496	753	
5	0	0	0	0	496	753	
6	0	0	0	0	495	753	
7	0	0	0	0	496	753	
8	0	0	0	0	496	753	
9	0	0	0	0	496	753	
10	0	0	0	0	496	753	
11	0	0	0	0	495	753	
12	0	0	0	0	494	753	
13	0	0	0	0	493	753	
14	0	0	0	0	492	753	
15	0	0	0	0	492	753	
0	0	0	0	0	492	753	
1	0	0	0	0	492	753	
2	0	0	0	0	492	753	
3	0	0	0	0	493	753	
4	0	0	0	0	494	753	
5	0	0	0	0	494	753	
6	0	0	0	0	494	753	
7	0	0	0	0	494	753	
8	0	0	0	0	493	753	
9	0	0	0	0	492	753	
10	0	0	0	0	492	753	
11	0	0	0	0	492	753	
12	0	0	0	0	491	753	
13	0	0	0	0	490	753	
14	0	0	0	0	489	752	
15	0	0	0	0	489	753	
0	0	0	0	0	490	753	
1	0	0	0	0	490	753	
2	0	0	0	0	489	753	
3	0	0	0	0	489	753	
4	0	0	0	0	490	752	
5	0	0	0	0	491	753	
6	0	0	0	0	492	753	
7	0	0	0	0	491	753	
8	0	0	0	0	491	753	
9	0	0	0	0	491	753	
10	0	0	0	0	491	753	
11	0	0	0	0	492	753	
12	0	0	0	0	492	753	
13	0	0	0	0	494	753	
14	0	0	0	0	494	752	
15	0	0	0	0	494	753	
0	0	0	0	0	494	753	
1	0	0	0	0	495	753	
2	0	0	0	0	494	753	
3	0	0	0	0	495	753	
4	0	0	0	0	495	753	
5	0	0	0	0	495	753	
6	0	0	0	0	495	753	
7	0	0	0	0	495	753	
8	0	0	0	0	495	753	
9	0	0	0	0	495	753	
10	0	0	0	0	495	753	
11	0	0	0	0	494	753	
12	0	0	0	0	494	753	
13	0	0	0	0	493	753	
14	0	0	0	0	493	753	
15	0	0	0	0	494	753	
0	0	0	0	0	495	753	
1	0	0	0	0	496	753	
2	0	0	0	0	496	752	
3	0	0	0	0	496	753	
4	0	0	0	0	496	753	
5	0	0	0	0	495	753	
6	0	0	0	0	494	753	
7	0	0	0	0	494	753	
8	0	0	0	0	495	753	
9	0	0	0	0	496	752	
10	0	0	0	0	497	753	
11	0	0	0	0	497	753	
12	0	0	0	0	497	753	
13	0	0	0	0	498	753	
14	0	0	0	0	497	753	
15	0	0	0	0	497	753	
0	0	0	0	0	497	753	
1	0	0	0	0	497	753	
2	0	0	0	0	496	753	
3	0	0	0	0	494	753	
4	0	0	0	0	494	753	
5	0	0	0	0	493	753	
6	0	0	0	0	492	753	
7	0	0	0	0	491	752	
8	0	0	0	0	491	753	
9	0	0	0	0	491	753	
10	0	0	0	0	492	753	
11	0	0	0	0	492	753	
12	0	0	0	0	492	753	
13	0	0	0	0	491	753	
14	0	0	0	0	491	753	
15	0	0	0	0	491	752	
0	0	0	0	0	492	753	
1	0	0	0	0	492	753	
2	0	0	0	0	491	753	
3	0	0	0	0	490	753	
4	0	0	0	0	488	752	
5	0	0	0	0	487	753	
6	0	0	0	0	485	753	
7	0	0	0	0	483	753	
8	0	0	0	0	482	753	
9	0	0	0	0	481	752	
10	0	0	0	0	481	752	
11	0	0	0	0	480	753	
12	0	0	0	0	480	752	
13	0	0	0	0	478	753	
14	0	0	0	0	476	752	
15	0	0	0	0	474	753	
0	0	0	0	0	472	753	
1	0	0	0	0	471	752	
2	0	0	0	0	468	752	
3	0	0	0	0	466	752	
4	0	0	0	0	463	753	
5	0	0	0	0	460	753	
6	0	0	0	0	457	753	
7	0	0	0	0	455	753	
8	0	0	0	0	451	752	
9	0	0	0	0	449	753	
10	0	0	0	0	447	752	
11	0	0	0	0	445	752	
12	0	0	0	0	443	753	
13	0	0	0	0	441	752	
14	0	0	0	0	440	753	
15	0	0	0	0	439	753	
0	0	0	0	0	437	753	
1	0	0	0	0	436	753	
2	0	0	0	0	436	752	
3	0	0	0	0	436	753	
4	0	0	0	0	435	752	
5	0	0	0	0	434	753	
6	0	0	0	0	434	753	
7	0	0	0	0	434	752	
8	0	0	0	0	433	753	
9	0	0	0	0	432	753	
10	0	0	0	0	433	752	
11	0	0	0	0	433	752	
12	0	0	0	0	432	752	
13	0	0	0	0	432	753	
14	0	0	0	0	431	752	
15	0	0	0	0	429	753	
0	0	0	0	0	428	752	
1	0	0	0	0	426	752	
2	0	0	0	0	427	752	
3	0	0	0	0	426	752	
4	0	0	0	0	427	752	
5	0	0	0	0	427	753	
6	0	0	0	0	427	752	
7	0	0	0	0	428	753	
8	0	0	0	0	428	752	
9	0	0	0	0	428	752	
10	0	0	0	0	428	752	
11	0	0	0	0	430	752	
12	0	0	0	0	431	753	
13	0	0	0	0	430	752	
14	0	0	0	0	430	753	
15	0	0	0	0	431	753	
0	0	0	0	0	432	752	
1	0	0	0	0	432	753	
2	0	0	0	0	432	753	
3	0	0	0	0	433	752	
4	0	0	0	0	433	752	
5	0	0	0	0	434	752	
6	0	0	0	0	435	753	
7	0	0	0	0	435	753	
8	0	0	0	0	435	752	
9	0	0	0	0	436	753	
10	0	0	0	0	436	752	
11	0	0	0	0	437	753	
12	0	0	0	0	439	752	
13	0	0	0	0	441	752	
14	0	0	0	0	442	752	
15	0	0	0	0	443	752	
0	0	0	0	0	444	752	
1	0	0	0	0	446	752	
2	0	0	0	0	447	752	
3	0	0	0	0	447	753	
4	0	0	0	0	447	752	
5	0	0	0	0	448	753	
6	0	0	0	0	449	752	
7	0	0	0	0	450	752	
8	0	0	0	0	450	752	
9	0	0	0	0	451	752	
10	0	0	0	0	451	752	
11	0	0	0	0	451	752	
12	0	0	0	0	452	752	
13	0	0	0	0	453	753	
14	0	0	0	0	453	752	
15	0	0	0	0	454	752	
0	0	0	0	0	454	752	
1	0	0	0	0	454	752	
2	0	0	0	0	454	752	
3	0	0	0	0	455	752	
4	0	0	0	0	455	753	
5	0	0	0	0	454	752	
6	0	0	0	0	454	752	
7	0	0	0	0	454	752	
8	0	0	0	0	454	752	
9	0	0	0	0	455	752	
10	0	0	0	0	455	752	
11	0	0	0	0	455	752	
12	0	0	0	0	456	752	
13	0	0	0	0	456	752	
14	0	0	0	0	456	752	
15	0	0	0	0	456	752	
0	0	0	0	0	457	752	
1	0	0	0	0	457	752	
2	0	0	0	0	459	752	
3	0	0	0	0	460	752	
4	0	0	0	0	460	752	
5	0	0	0	0	461	752	
6	0	0	0	0	463	752	
7	0	0	0	0	463	752	
8	0	0	0	0	463	752	
9	0	0	0	0	463	752	
10	0	0	0	0	464	752	
11	0	0	0	0	466	752	
12	0	0	0	0	467	752	
13	0	0	0	0	468	752	
14	0	0	0	0	469	752	
15	0	0	0	0	472	752	
0	0	0	0	0	472	752	
1	0	0	0	0	473	752	
2	0	0	0	0	475	752	
3	0	0	0	0	475	752	
4	0	0	0	0	475	752	
5	0	0	0	0	475	752	
6	0	0	0	0	475	752	
7	0	0	0	0	476	752	
8	0	0	0	0	476	752	
9	0	0	0	0	478	752	
10	0	0	0	0	480	752	
11	0	0	0	0	482	752	
12	0	0	0	0	482	752	
13	0	0	0	0	481	752	
14	0	0	0	0	483	752	
15	0	0	0	0	484	752	
0	0	0	0	0	486	752	
1	0	0	0	0	487	752	
2	0	0	0	0	488	752	
3	0	0	0	0	489	752	
4	0	0	0	0	490	752	
5	0	0	0	0	489	752	
6	0	0	0	0	490	752	
7	0	0	0	0	491	752	
8	0	0	0	0	491	752	
9	0	0	0	0	492	752	
10	0	0	0	0	493	752	
11	0	0	0	0	494	752	
12	0	0	0	0	494	752	
13	0	0	0	0	495	752	
14	0	0	0	0	495	752	
15	0	0	0	0	495	752	
0	0	0	0	0	494	752	
1	0	0	0	0	495	752	
2	0	0	0	0	495	752	
3	0	0	0	0	495	752	
4	0	0	0	0	495	752	
5	0	0	0	0	495	752	
6	0	0	0	0	494	752	
7	0	0	0	0	495	752	
8	0	0	0	0	495	752	
9	0	0	0	0	495	752	
10	0	0	0	0	495	752	
11	0	0	0	0	495	752	
12	0	0	0	0	494	752	
13	0	0	0	0	494	752	
14	0	0	0	0	493	752	
15	0	0	0	0	494	752	
0	0	0	0	0	496	752	
1	0	0	0	0	496	752	
2	0	0	0	0	498	752	
3	0	0	0	0	499	752	
4	0	0	0	0	502	752	
5	0	0	0	0	503	752	
6	0	0	0	0	503	752	
7	0	0	0	0	503	752	
8	0	0	0	0	504	752	
9	0	0	0	0	505	752	
10	0	0	0	0	505	752	
11	0	0	0	0	505	752	
12	0	0	0	0	506	752	
13	0	0	0	0	507	752	
14	0	0	0	0	509	752	
15	0	0	0	0	510	752	
0	0	0	0	0	511	752	
1	0	0	0	0	512	752	
2	0	0	0	0	513	752	
3	0	0	0	0	513	752	
4	0	0	0	0	515	752	
5	0	0	0	0	515	752	
6	0	0	0	0	516	752	
7	0	0	0	0	516	752	
8	0	0	0	0	517	752	
9	0	0	0	0	516	752	
10	0	0	0	0	515	752	
11	0	0	0	0	514	752	
12	0	0	0	0	513	752	
13	0	0	0	0	513	752	
14	0	0	0	0	512	752	
15	0	0	0	0	511	752	
0	0	0	0	0	511	752	
1	0	0	0	0	511	752	
2	0	0	0	0	512	752	
3	0	0	0	0	513	752	
4	0	0	0	0	514	752	
5	0	0	0	0	514	752	
6	0	0	0	0	514	752	
7	0	0	0	0	514	752	
8	0	0	0	0	514	752	
9	0	0	0	0	515	752	
10	0	0	0	0	515	752	
11	0	0	0	0	515	752	
12	0	0	0	0	516	752	
13	0	0	0	0	517	752	
14	0	0	0	0	518	752	
15	0	0	0	0	519	752	
0	0	0	0	0	519	752	
1	0	0	0	0	519	752	
2	0	0	0	0	519	752	
3	0	0	0	0	519	752	
4	0	0	0	0	518	752	
5	0	0	0	0	517	752	
6	0	0	0	0	517	752	
7	0	0	0	0	517	752	
8	0	0	0	0	516	752	
9	0	0	0	0	516	752	
10	0	0	0	0	517	752	
11	0	0	0	0	516	752	
12	0	0	0	0	515	752	
13	0	0	0	0	515	752	
14	0	0	0	0	516	752	
15	0	0	0	0	515	752	
0	0	0	0	0	516	752	
1	0	0	0	0	515	752	
2	0	0	0	0	514	752	
3	0	0	0	0	514	752	
4	0	0	0	0	513	752	
5	0	0	0	0	513	752	
6	0	0	0	0	514	752	
7	0	0	0	0	514	752	
8	0	0	0	0	515	752	
9	0	0	0	0	515	752	
10	0	0	0	0	515	752	
11	0	0	0	0	516	752	
12	0	0	0	0	517	752	
13	0	0	0	0	517	752	
14	0	0	0	0	518	752	
15	0	0	0	0	518	752	
0	0	0	0	0	519	752	
1	0	0	0	0	519	752	
2	0	0	0	0	519	752	
3	0	0	0	0	521	751	
4	0	0	0	0	523	752	
5	0	0	0	0	523	751	
6	0	0	0	0	524	752	
7	0	0	0	0	524	752	
8	0	0	0	0	523	751	
9	0	0	0	0	523	752	
10	0	0	0	0	523	752	
11	0	0	0	0	525	752	
12	0	0	0	0	526	752	
13	0	0	0	0	526	752	
14	0	0	0	0	527	752	
15	0	0	0	0	528	752	
0	0	0	0	0	528	752	
1	0	0	0	0	529	751	
2	0	0	0	0	529	751	
3	0	0	0	0	529	752	
4	0	0	0	0	531	752	
5	0	0	0	0	532	752	
6	0	0	0	0	532	751	
7	0	0	0	0	533	752	
8	0	0	0	0	533	752	
9	0	0	0	0	534	752	
10	0	0	0	0	534	752	
11	0	0	0	0	535	751	
12	0	0	0	0	535	751	
13	0	0	0	0	535	752	
14	0	0	0	0	535	752	
15	0	0	0	0	535	752	
0	0	0	0	0	536	752	
1	0	0	0	0	537	752	
2	0	0	0	0	538	752	
3	0	0	0	0	537	752	
4	0	0	0	0	537	752	
5	0	0	0	0	537	751	
6	0	0	0	0	538	751	
7	0	0	0	0	539	752	
8	0	0	0	0	539	752	
9	0	0	0	0	539	752	
10	0	0	0	0	540	752	
11	0	0	0	0	539	751	
12	0	0	0	0	539	752	
13	0	0	0	0	538	752	
14	0	0	0	0	536	751	
15	0	0	0	0	537	751	
0	0	0	0	0	537	751	
1	0	0	0	0	537	752	
2	0	0	0	0	537	752	
3	0	0	0	0	537	752	
4	0	0	0	0	538	752	
5	0	0	0	0	538	751	
6	0	0	0	0	539	752	
7	0	0	0	0	539	751	
8	0	0	0	0	540	752	
9	0	0	0	0	540	751	
10	0	0	0	0	540	751	
11	0	0	0	0	541	752	
12	0	0	0	0	541	751	
13	0	0	0	0	542	751	
14	0	0	0	0	543	751	
15	0	0	0	0	543	751	
0	0	0	0	0	544	751	
1	0	0	0	0	544	751	
2	0	0	0	0	544	751	
3	0	0	0	0	545	751	
4	0	0	0	0	545	751	
5	0	0	0	0	545	751	
6	0	0	0	0	546	751	
7	0	0	0	0	546	751	
8	0	0	0	0	547	751	
9	0	0	0	0	548	751	
10	0	0	0	0	547	752	
11	0	0	0	0	548	751	
12	0	0	0	0	548	751	
13	0	0	0	0	548	751	
14	0	0	0	0	549	751	
15	0	0	0	0	550	751	
0	0	0	0	0	550	751	
1	0	0	0	0	551	751	
2	0	0	0	0	551	751	
3	0	0	0	0	552	751	
4	0	0	0	0	553	751	
5	0	0	0	0	554	751	
6	0	0	0	0	555	751	
7	0	0	0	0	555	751	
8	0	0	0	0	555	751	
9	0	0	0	0	554	751	
10	0	0	0	0	553	751	
11	0	0	0	0	554	751	
12	0	0	0	0	554	751	
13	0	0	0	0	553	751	
14	0	0	0	0	552	751	
15	0	0	0	0	552	751	
0	0	0	0	0	551	751	
1	0	0	0	0	550	751	
2	0	0	0	0	548	751	
3	0	0	0	0	547	751	
4	0	0	0	0	545	751	
5	0	0	0	0	543	751	
6	0	0	0	0	543	751	
7	0	0	0	0	543	751	
8	0	0	0	0	543	751	
9	0	0	0	0	543	751	
10	0	0	0	0	542	751	
11	0	0	0	0	542	751	
12	0	0	0	0	542	751	
13	0	0	0	0	541	751	
14	0	0	0	0	539	751	
15	0	0	0	0	537	751	
0	0	0	0	0	536	751	
1	0	0	0	0	537	751	
2	0	0	0	0	538	751	
3	0	0	0	0	538	751	
4	0	0	0	0	539	751	
5	0	0	0	0	540	751	
6	0	0	0	0	540	751	
7	0	0	0	0	540	751	
8	0	0	0	0	540	751	
9	0	0	0	0	540	751	
10	0	0	0	0	540	751	
11	0	0	0	0	540	751	
12	0	0	0	0	540	751	
13	0	0	0	0	540	751	
14	0	0	0	0	541	751	
15	0	0	0	0	541	751	
0	0	0	0	0	541	751	
1	0	0	0	0	541	751	
2	0	0	0	0	541	751	
3	0	0	0	0	541	751	
4	0	0	0	0	540	751	
5	0	0	0	0	539	751	
6	0	0	0	0	539	751	
7	0	0	0	0	538	751	
8	0	0	0	0	538	751	
9	0	0	0	0	538	751	
10	0	0	0	0	538	750	
11	0	0	0	0	538	751	
12	0	0	0	0	537	751	
13	0	0	0	0	537	751	
14	0	0	0	0	537	751	
15	0	0	0	0	536	751	
0	0	0	0	0	536	751	
1	0	0	0	0	536	751	
2	0	0	0	0	535	751	
3	0	0	0	0	535	751	
4	0	0	0	0	535	751	
5	0	0	0	0	535	751	
6	0	0	0	0	536	751	
7	0	0	0	0	535	751	
8	0	0	0	0	534	751	
9	0	0	0	0	533	751	
10	0	0	0	0	533	751	
11	0	0	0	0	533	751	
12	0	0	0	0	534	751	
13	0	0	0	0	535	751	
14	0	0	0	0	535	750	
15	0	0	0	0	536	751	
0	0	0	0	0	535	751	
1	0	0	0	0	535	751	
2	0	0	0	0	535	750	
3	0	0	0	0	535	751	
4	0	0	0	0	534	750	
5	0	0	0	0	535	751	
6	0	0	0	0	535	751	
7	0	0	0	0	535	751	
8	0	0	0	0	534	750	
9	0	0	0	0	534	751	
10	0	0	0	0	534	750	
11	0	0	0	0	534	750	
12	0	0	0	0	534	751	
13	0	0	0	0	533	750	
14	0	0	0	0	532	751	
15	0	0	0	0	532	751	
0	0	0	0	0	531	751	
1	0	0	0	0	530	751	
2	0	0	0	0	530	751	
3	0	0	0	0	532	751	
4	0	0	0	0	533	751	
5	0	0	0	0	534	751	
6	0	0	0	0	533	751	
7	0	0	0	0	534	750	
8	0	0	0	0	535	751	
9	0	0	0	0	535	751	
10	0	0	0	0	535	751	
11	0	0	0	0	536	751	
12	0	0	0	0	536	750	
13	0	0	0	0	537	750	
14	0	0	0	0	537	750	
15	0	0	0	0	537	751	
0	0	0	0	0	537	750	
1	0	0	0	0	537	750	
2	0	0	0	0	537	751	
3	0	0	0	0	537	750	
4	0	0	0	0	537	750	
5	0	0	0	0	537	751	
6	0	0	0	0	537	750	
7	0	0	0	0	537	751	
8	0	0	0	0	536	750	
9	0	0	0	0	534	750	
10	0	0	0	0	534	750	
11	0	0	0	0	534	750	
12	0	0	0	0	532	751	
13	0	0	0	0	532	751	
14	0	0	0	0	532	751	
15	0	0	0	0	532	750	
0	0	0	0	0	531	750	
1	0	0	0	0	531	750	
2	0	0	0	0	530	750	
3	0	0	0	0	530	750	
4	0	0	0	0	530	750	
5	0	0	0	0	530	750	
6	0	0	0	0	530	751	
7	0	0	0	0	528	750	
8	0	0	0	0	526	750	
9	0	0	0	0	526	751	
10	0	0	0	0	525	750	
11	0	0	0	0	525	750	
12	0	0	0	0	524	750	
13	0	0	0	0	524	750	
14	0	0	0	0	524	750	
15	0	0	0	0	523	750	
0	0	0	0	0	522	750	
1	0	0	0	0	521	750	
2	0	0	0	0	523	751	
3	0	0	0	0	525	750	
4	0	0	0	0	526	750	
5	0	0	0	0	527	750	
6	0	0	0	0	528	750	
7	0	0	0	0	529	750	
8	0	0	0	0	528	750	
9	0	0	0	0	526	750	
10	0	0	0	0	525	750	
11	0	0	0	0	523	750	
12	0	0	0	0	521	750	
13	0	0	0	0	521	750	
14	0	0	0	0	521	750	
15	0	0	0	0	522	750	
0	0	0	0	0	524	750	
1	0	0	0	0	526	750	
2	0	0	0	0	528	750	
3	0	0	0	0	529	750	
4	0	0	0	0	531	750	
5	0	0	0	0	534	750	
6	0	0	0	0	537	750	
7	0	0	0	0	542	750	
8	0	0	0	0	545	750	
9	0	0	0	0	549	751	
10	0	0	0	0	553	750	
11	0	0	0	0	557	750	
12	0	0	0	0	561	750	
13	0	0	0	0	564	750	
14	0	0	0	0	568	750	
15	0	0	0	0	569	750	
0	0	0	0	0	569	750	
1	0	0	0	0	570	750	
2	0	0	0	0	570	750	
3	0	0	0	0	568	750	
4	0	0	0	0	566	750	
5	0	0	0	0	563	750	
6	0	0	0	0	560	750	
7	0	0	0	0	555	750	
8	0	0	0	0	549	750	
9	0	0	0	0	543	750	
10	0	0	0	0	540	750	
11	0	0	0	0	535	750	
12	0	0	0	0	528	750	
13	0	0	0	0	522	750	
14	0	0	0	0	514	750	
15	0	0	0	0	507	750	
0	0	0	0	0	501	750	
1	0	0	0	0	496	750	
2	0	0	0	0	492	750	
3	0	0	0	0	487	750	
4	0	0	0	0	483	750	
5	0	0	0	0	479	750	
6	0	0	0	0	472	750	
7	0	0	0	0	465	750	
8	0	0	0	0	458	750	
9	0	0	0	0	452	750	
10	0	0	0	0	447	750	
11	0	0	0	0	441	750	
12	0	0	0	0	437	750	
13	0	0	0	0	435	750	
14	0	0	0	0	435	750	
15	0	0	0	0	437	750	
0	0	0	0	0	439	750	
1	0	0	0	0	441	750	
2	0	0	0	0	444	750	
3	0	0	0	0	449	750	
4	0	0	0	0	453	750	
5	0	0	0	0	457	750	
6	0	0	0	0	462	750	
7	0	0	0	0	466	750	
8	0	0	0	0	471	750	
9	0	0	0	0	475	750	
10	0	0	0	0	478	750	
11	0	0	0	0	482	750	
12	0	0	0	0	486	750	
13	0	0	0	0	489	750	
14	0	0	0	0	492	750	
15	0	0	0	0	495	750	
0	0	0	0	0	497	750	
1	0	0	0	0	499	750	
2	0	0	0	0	500	750	
3	0	0	0	0	502	750	
4	0	0	0	0	502	750	
5	0	0	0	0	503	750	
6	0	0	0	0	504	750	
7	0	0	0	0	504	750	
8	0	0	0	0	506	750	
9	0	0	0	0	505	750	
10	0	0	0	0	505	750	
11	0	0	0	0	504	750	
12	0	0	0	0	503	750	
13	0	0	0	0	504	750	
14	0	0	0	0	504	750	
15	0	0	0	0	505	750	
0	0	0	0	0	506	750	
1	0	0	0	0	507	750	
2	0	0	0	0	507	750	
3	0	0	0	0	507	750	
4	0	0	0	0	507	750	
5	0	0	0	0	507	750	
6	0	0	0	0	508	750	
7	0	0	0	0	508	750	
8	0	0	0	0	508	750	
9	0	0	0	0	510	750	
10	0	0	0	0	510	750	
11	0	0	0	0	511	750	
12	0	0	0	0	512	750	
13	0	0	0	0	512	750	
14	0	0	0	0	513	750	
15	0	0	0	0	513	750	
0	0	0	0	0	515	750	
1	0	0	0	0	514	750	
2	0	0	0	0	512	749	
3	0	0	0	0	512	750	
4	0	0	0	0	511	750	
5	0	0	0	0	512	750	
6	0	0	0	0	511	750	
7	0	0	0	0	511	750	
8	0	0	0	0	511	750	
9	0	0	0	0	510	750	
10	0	0	0	0	511	750	
11	0	0	0	0	511	750	
12	0	0	0	0	511	750	
13	0	0	0	0	511	750	
14	0	0	0	0	510	750	
15	0	0	0	0	511	750	
0	0	0	0	0	511	750	
1	0	0	0	0	512	750	
2	0	0	0	0	513	750	
3	0	0	0	0	513	750	
4	0	0	0	0	513	750	
5	0	0	0	0	513	750	
6	0	0	0	0	513	750	
7	0	0	0	0	513	750	
8	0	0	0	0	512	750	
9	0	0	0	0	512	750	
10	0	0	0	0	512	750	
11	0	0	0	0	512	749	
12	0	0	0	0	511	750	
13	0	0	0	0	511	750	
14	0	0	0	0	512	750	
15	0	0	0	0	512	750	
0	0	0	0	0	512	750	
1	0	0	0	0	512	750	
2	0	0	0	0	510	750	
3	0	0	0	0	509	750	
4	0	0	0	0	508	750	
5	0	0	0	0	505	750	
6	0	0	0	0	504	750	
7	0	0	0	0	504	750	
8	0	0	0	0	504	750	
9	0	0	0	0	503	750	
10	0	0	0	0	503	749	
11	0	0	0	0	503	749	
12	0	0	0	0	503	749	
13	0	0	0	0	502	750	
14	0	0	0	0	502	750	
15	0	0	0	0	502	749	
0	0	0	0	0	502	749	
1	0	0	0	0	502	749	
2	0	0	0	0	502	750	
3	0	0	0	0	503	750	
4	0	0	0	0	503	749	
5	0	0	0	0	503	750	
6	0	0	0	0	503	750	
7	0	0	0	0	502	749	
8	0	0	0	0	503	750	
9	0	0	0	0	504	749	
10	0	0	0	0	504	750	
11	0	0	0	0	505	750	
12	0	0	0	0	506	749	
13	0	0	0	0	506	750	
14	0	0	0	0	506	749	
15	0	0	0	0	506	750	
0	0	0	0	0	505	749	
1	0	0	0	0	505	749	
2	0	0	0	0	505	749	
3	0	0	0	0	505	749	
4	0	0	0	0	505	750	
5	0	0	0	0	506	750	
6	0	0	0	0	508	749	
7	0	0	0	0	508	750	
8	0	0	0	0	508	749	
9	0	0	0	0	509	750	
10	0	0	0	0	508	750	
11	0	0	0	0	509	749	
12	0	0	0	0	508	749	
13	0	0	0	0	508	749	
14	0	0	0	0	507	750	
15	0	0	0	0	506	749	
0	0	0	0	0	505	749	
1	0	0	0	0	505	750	
2	0	0	0	0	504	749	
3	0	0	0	0	504	749	
4	0	0	0	0	504	749	
5	0	0	0	0	504	749	
6	0	0	0	0	505	749	
7	0	0	0	0	505	749	
8	0	0	0	0	505	750	
9	0	0	0	0	507	749	
10	0	0	0	0	509	750	
11	0	0	0	0	510	749	
12	0	0	0	0	511	749	
13	0	0	0	0	513	749	
14	0	0	0	0	513	749	
15	0	0	0	0	514	749	
0	0	0	0	0	515	749	
1	0	0	0	0	515	749	
2	0	0	0	0	516	749	
3	0	0	0	0	515	749	
4	0	0	0	0	518	749	
5	0	0	0	0	521	749	
6	0	0	0	0	522	749	
7	0	0	0	0	523	749	
8	0	0	0	0	524	749	
9	0	0	0	0	524	749	
10	0	0	0	0	526	749	
11	0	0	0	0	527	749	
12	0	0	0	0	527	749	
13	0	0	0	0	528	749	
14	0	0	0	0	528	749	
15	0	0	0	0	529	749	
0	0	0	0	0	528	749	
1	0	0	0	0	528	749	
2	0	0	0	0	528	749	
3	0	0	0	0	527	749	
4	0	0	0	0	527	749	
5	0	0	0	0	528	749	
6	0	0	0	0	529	749	
7	0	0	0	0	528	749	
8	0	0	0	0	528	749	
9	0	0	0	0	528	749	
10	0	0	0	0	528	749	
11	0	0	0	0	529	750	
12	0	0	0	0	529	749	
13	0	0	0	0	529	749	
14	0	0	0	0	531	749	
15	0	0	0	0	531	749	
0	0	0	0	0	531	749	
1	0	0	0	0	531	749	
2	0	0	0	0	533	749	
3	0	0	0	0	534	749	
4	0	0	0	0	533	749	
5	0	0	0	0	533	749	
6	0	0	0	0	532	749	
7	0	0	0	0	531	749	
8	0	0	0	0	531	749	
9	0	0	0	0	531	749	
10	0	0	0	0	532	749	
11	0	0	0	0	532	749	
12	0	0	0	0	531	749	
13	0	0	0	0	530	749	
14	0	0	0	0	529	749	
15	0	0	0	0	529	749	
0	0	0	0	0	529	749	
1	0	0	0	0	529	749	
2	0	0	0	0	527	749	
3	0	0	0	0	526	749	
4	0	0	0	0	526	748	
5	0	0	0	0	527	749	
6	0	0	0	0	527	749	
7	0	0	0	0	526	749	
8	0	0	0	0	525	748	
9	0	0	0	0	524	749	
10	0	0	0	0	524	749	
11	0	0	0	0	524	749	
12	0	0	0	0	526	749	
13	0	0	0	0	526	748	
14	0	0	0	0	526	749	
15	0	0	0	0	525	749	
0	0	0	0	0	525	748	
1	0	0	0	0	526	749	
2	0	0	0	0	527	748	
3	0	0	0	0	527	749	
4	0	0	0	0	527	749	
5	0	0	0	0	526	749	
6	0	0	0	0	524	749	
7	0	0	0	0	523	748	
8	0	0	0	0	522	749	
9	0	0	0	0	521	749	
10	0	0	0	0	521	748	
11	0	0	0	0	520	749	
12	0	0	0	0	519	748	
13	0	0	0	0	518	749	
14	0	0	0	0	517	749	
15	0	0	0	0	517	749	
0	0	0	0	0	516	749	
1	0	0	0	0	515	748	
2	0	0	0	0	516	749	
3	0	0	0	0	515	749	
4	0	0	0	0	514	749	
5	0	0	0	0	513	749	
6	0	0	0	0	512	748	
7	0	0	0	0	512	749	
8	0	0	0	0	512	748	
9	0	0	0	0	512	749	
10	0	0	0	0	512	748	
11	0	0	0	0	511	748	
12	0	0	0	0	511	749	
13	0	0	0	0	511	749	
14	0	0	0	0	510	749	
15	0	0	0	0	508	749	
0	0	0	0	0	508	749	
1	0	0	0	0	507	748	
2	0	0	0	0	506	748	
3	0	0	0	0	507	748	
4	0	0	0	0	508	749	
5	0	0	0	0	508	748	
6	0	0	0	0	508	748	
7	0	0	0	0	507	748	
8	0	0	0	0	507	748	
9	0	0	0	0	505	748	
10	0	0	0	0	505	748	
11	0	0	0	0	505	749	
12	0	0	0	0	504	748	
13	0	0	0	0	504	748	
14	0	0	0	0	504	748	
15	0	0	0	0	504	748	
0	0	0	0	0	504	748	
1	0	0	0	0	504	748	
2	0	0	0	0	504	748	
3	0	0	0	0	504	748	
4	0	0	0	0	502	748	
5	0	0	0	0	502	749	
6	0	0	0	0	502	748	
7	0	0	0	0	502	748	
8	0	0	0	0	502	748	
9	0	0	0	0	502	748	
10	0	0	0	0	503	749	
11	0	0	0	0	502	748	
12	0	0	0	0	501	748	
13	0	0	0	0	500	748	
14	0	0	0	0	500	748	
15	0	0	0	0	501	748	
0	0	0	0	0	501	748	
1	0	0	0	0	500	748	
2	0	0	0	0	499	748	
3	0	0	0	0	500	748	
4	0	0	0	0	501	748	
5	0	0	0	0	501	748	
6	0	0	0	0	502	748	
7	0	0	0	0	502	748	
8	0	0	0	0	503	748	
9	0	0	0	0	503	748	
10	0	0	0	0	503	748	
11	0	0	0	0	503	748	
12	0	0	0	0	504	748	
13	0	0	0	0	504	748	
14	0	0	0	0	504	748	
15	0	0	0	0	504	748	
0	0	0	0	0	504	748	
1	0	0	0	0	504	748	
2	0	0	0	0	504	748	
3	0	0	0	0	504	748	
4	0	0	0	0	503	748	
5	0	0	0	0	503	748	
6	0	0	0	0	502	748	
7	0	0	0	0	500	748	
8	0	0	0	0	500	748	
9	0	0	0	0	500	748	
10	0	0	0	0	501	748	
11	0	0	0	0	502	748	
12	0	0	0	0	503	748	
13	0	0	0	0	503	748	
14	0	0	0	0	503	748	
15	0	0	0	0	504	748	
0	0	0	0	0	505	748	
1	0	0	0	0	506	748	
2	0	0	0	0	508	748	
3	0	0	0	0	508	748	
4	0	0	0	0	509	748	
5	0	0	0	0	510	748	
6	0	0	0	0	511	748	
7	0	0	0	0	511	748	
8	0	0	0	0	511	748	
9	0	0	0	0	512	748	
10	0	0	0	0	512	748	
11	0	0	0	0	511	748	
12	0	0	0	0	510	748	
13	0	0	0	0	510	748	
14	0	0	0	0	511	748	
15	0	0	0	0	511	748	
0	0	0	0	0	512	748	
1	0	0	0	0	512	748	
2	0	0	0	0	511	748	
3	0	0	0	0	510	748	
4	0	0	0	0	508	748	
5	0	0	0	0	508	748	
6	0	0	0	0	510	748	
7	0	0	0	0	510	748	
8	0	0	0	0	510	748	
9	0	0	0	0	510	748	
10	0	0	0	0	510	748	
11	0	0	0	0	511	748	
12	0	0	0	0	510	748	
13	0	0	0	0	510	748	
14	0	0	0	0	510	748	
15	0	0	0	0	511	748	
0	0	0	0	0	512	748	
1	0	0	0	0	513	748	
2	0	0	0	0	513	748	
3	0	0	0	0	515	748	
4	0	0	0	0	516	748	
5	0	0	0	0	516	748	
6	0	0	0	0	517	748	
7	0	0	0	0	518	748	
8	0	0	0	0	519	748	
9	0	0	0	0	520	748	
10	0	0	0	0	521	748	
11	0	0	0	0	521	748	
12	0	0	0	0	520	748	
13	0	0	0	0	521	748	
14	0	0	0	0	522	748	
15	0	0	0	0	523	748	
0	0	0	0	0	522	748	
1	0	0	0	0	521	748	
2	0	0	0	0	521	748	
3	0	0	0	0	522	747	
4	0	0	0	0	523	748	
5	0	0	0	0	524	748	
6	0	0	0	0	525	748	
7	0	0	0	0	525	748	
8	0	0	0	0	525	748	
9	0	0	0	0	526	748	
10	0	0	0	0	524	748	
11	0	0	0	0	523	748	
12	0	0	0	0	522	747	
13	0	0	0	0	520	747	
14	0	0	0	0	520	748	
15	0	0	0	0	519	748	
0	0	0	0	0	519	748	
1	0	0	0	0	519	747	
2	0	0	0	0	519	747	
3	0	0	0	0	519	748	
4	0	0	0	0	519	748	
5	0	0	0	0	520	748	
6	0	0	0	0	521	747	
7	0	0	0	0	521	747	
8	0	0	0	0	522	748	
9	0	0	0	0	523	747	
10	0	0	0	0	522	748	
11	0	0	0	0	521	748	
12	0	0	0	0	519	747	
13	0	0	0	0	518	748	
14	0	0	0	0	518	748	
15	0	0	0	0	516	747	
0	0	0	0	0	516	747	
1	0	0	0	0	516	747	
2	0	0	0	0	517	747	
3	0	0	0	0	519	747	
4	0	0	0	0	519	747	
5	0	0	0	0	519	747	
6	0	0	0	0	520	747	
7	0	0	0	0	520	748	
8	0	0	0	0	520	747	
9	0	0	0	0	520	747	
10	0	0	0	0	521	747	
11	0	0	0	0	520	747	
12	0	0	0	0	521	748	
13	0	0	0	0	520	747	
14	0	0	0	0	520	747	
15	0	0	0	0	521	747	
0	0	0	0	0	521	747	
1	0	0	0	0	521	747	
2	0	0	0	0	521	747	
3	0	0	0	0	521	747	
4	0	0	0	0	522	747	
5	0	0	0	0	521	747	
6	0	0	0	0	520	747	
7	0	0	0	0	520	747	
8	0	0	0	0	521	747	
9	0	0	0	0	521	747	
10	0	0	0	0	521	747	
11	0	0	0	0	521	748	
12	0	0	0	0	521	747	
13	0	0	0	0	521	747	
14	0	0	0	0	519	747	
15	0	0	0	0	519	747	
0	0	0	0	0	519	747	
1	0	0	0	0	519	747	
2	0	0	0	0	520	747	
3	0	0	0	0	521	747	
4	0	0	0	0	520	747	
5	0	0	0	0	521	748	
6	0	0	0	0	521	747	
7	0	0	0	0	522	747	
8	0	0	0	0	521	747	
9	0	0	0	0	522	747	
10	0	0	0	0	524	747	
11	0	0	0	0	524	747	
12	0	0	0	0	524	747	
13	0	0	0	0	524	747	
14	0	0	0	0	522	747	
15	0	0	0	0	521	747	
0	0	0	0	0	520	747	
1	0	0	0	0	520	747	
2	0	0	0	0	520	747	
3	0	0	0	0	520	747	
4	0	0	0	0	520	747	
5	0	0	0	0	520	747	
6	0	0	0	0	520	747	
7	0	0	0	0	519	747	
8	0	0	0	0	518	747	
9	0	0	0	0	519	747	
10	0	0	0	0	519	747	
11	0	0	0	0	519	747	
12	0	0	0	0	519	747	
13	0	0	0	0	519	747	
14	0	0	0	0	521	747	
15	0	0	0	0	521	747	
0	0	0	0	0	522	747	
1	0	0	0	0	521	747	
2	0	0	0	0	521	747	
3	0	0	0	0	523	747	
4	0	0	0	0	524	747	
5	0	0	0	0	523	747	
6	0	0	0	0	523	747	
7	0	0	0	0	524	747	
8	0	0	0	0	523	747	
9	0	0	0	0	523	747	
10	0	0	0	0	524	747	
11	0	0	0	0	524	747	
12	0	0	0	0	525	747	
13	0	0	0	0	526	747	
14	0	0	0	0	526	747	
15	0	0	0	0	527	747	
0	0	0	0	0	526	747	
1	0	0	0	0	526	747	
2	0	0	0	0	526	747	
3	0	0	0	0	527	747	
4	0	0	0	0	526	747	
5	0	0	0	0	526	747	
6	0	0	0	0	526	747	
7	0	0	0	0	526	747	
8	0	0	0	0	525	747	
9	0	0	0	0	526	747	
10	0	0	0	0	527	747	
11	0	0	0	0	527	747	
12	0	0	0	0	527	747	
13	0	0	0	0	527	747	
14	0	0	0	0	527	747	
15	0	0	0	0	527	747	
0	0	0	0	0	524	746	
1	0	0	0	0	523	747	
2	0	0	0	0	522	747	
3	0	0	0	0	520	747	
4	0	0	0	0	519	747	
5	0	0	0	0	519	747	
6	0	0	0	0	518	747	
7	0	0	0	0	517	747	
8	0	0	0	0	518	747	
9	0	0	0	0	517	747	
10	0	0	0	0	516	747	
11	0	0	0	0	517	747	
12	0	0	0	0	518	747	
13	0	0	0	0	518	747	
14	0	0	0	0	519	747	
15	0	0	0	0	519	747	
0	0	0	0	0	519	747	
1	0	0	0	0	518	747	
2	0	0	0	0	517	747	
3	0	0	0	0	516	747	
4	0	0	0	0	517	746	
5	0	0	0	0	518	747	
6	0	0	0	0	519	747	
7	0	0	0	0	519	747	
8	0	0	0	0	520	747	
9	0	0	0	0	519	746	
10	0	0	0	0	519	747	
11	0	0	0	0	519	747	
12	0	0	0	0	519	747	
13	0	0	0	0	519	747	
14	0	0	0	0	519	747	
15	0	0	0	0	518	747	
0	0	0	0	0	518	747	
1	0	0	0	0	518	747	
2	0	0	0	0	518	747	
3	0	0	0	0	517	746	
4	0	0	0	0	517	747	
5	0	0	0	0	517	747	
6	0	0	0	0	518	746	
7	0	0	0	0	518	747	
8	0	0	0	0	517	746	
9	0	0	0	0	515	747	
10	0	0	0	0	514	747	
11	0	0	0	0	515	746	
12	0	0	0	0	514	746	
13	0	0	0	0	515	746	
14	0	0	0	0	516	747	
15	0	0	0	0	514	747	
0	0	0	0	0	514	746	
1	0	0	0	0	513	746	
2	0	0	0	0	513	746	
3	0	0	0	0	512	747	
4	0	0	0	0	512	746	
5	0	0	0	0	512	747	
6	0	0	0	0	512	747	
7	0	0	0	0	512	746	
8	0	0	0	0	511	747	
9	0	0	0	0	509	746	
10	0	0	0	0	508	746	
11	0	0	0	0	507	746	
12	0	0	0	0	507	746	
13	0	0	0	0	506	746	
14	0	0	0	0	506	746	
15	0	0	0	0	506	747	
0	0	0	0	0	505	746	
1	0	0	0	0	504	746	
2	0	0	0	0	504	746	
3	0	0	0	0	504	746	
4	0	0	0	0	505	746	
5	0	0	0	0	505	746	
6	0	0	0	0	504	746	
7	0	0	0	0	503	746	
8	0	0	0	0	503	746	
9	0	0	0	0	503	746	
10	0	0	0	0	503	746	
11	0	0	0	0	503	746	
12	0	0	0	0	503	746	
13	0	0	0	0	504	746	
14	0	0	0	0	505	746	
15	0	0	0	0	506	746	
0	0	0	0	0	507	746	
1	0	0	0	0	508	747	
2	0	0	0	0	508	746	
3	0	0	0	0	509	746	
4	0	0	0	0	509	746	
5	0	0	0	0	508	746	
6	0	0	0	0	509	746	
7	0	0	0	0	509	746	
8	0	0	0	0	509	746	
9	0	0	0	0	508	746	
10	0	0	0	0	508	746	
11	0	0	0	0	509	746	
12	0	0	0	0	509	746	
13	0	0	0	0	509	746	
14	0	0	0	0	510	746	
15	0	0	0	0	511	746	
0	0	0	0	0	511	746	
1	0	0	0	0	511	746	
2	0	0	0	0	511	746	
3	0	0	0	0	511	747	
4	0	0	0	0	512	746	
5	0	0	0	0	513	747	
6	0	0	0	0	513	746	
7	0	0	0	0	514	746	
8	0	0	0	0	513	746	
9	0	0	0	0	514	746	
10	0	0	0	0	515	746	
11	0	0	0	0	515	746	
12	0	0	0	0	516	746	
13	0	0	0	0	516	746	
14	0	0	0	0	515	746	
15	0	0	0	0	515	746	
0	0	0	0	0	515	746	
1	0	0	0	0	514	746	
2	0	0	0	0	515	746	
3	0	0	0	0	515	746	
4	0	0	0	0	516	746	
5	0	0	0	0	517	746	
6	0	0	0	0	519	746	
7	0	0	0	0	519	746	
8	0	0	0	0	517	746	
9	0	0	0	0	517	746	
10	0	0	0	0	518	746	
11	0	0	0	0	518	746	
12	0	0	0	0	518	746	
13	0	0	0	0	519	746	
14	0	0	0	0	519	746	
15	0	0	0	0	519	746	
0	0	0	0	0	519	746	
1	0	0	0	0	519	746	
2	0	0	0	0	519	746	
3	0	0	0	0	519	746	
4	0	0	0	0	519	746	
5	0	0	0	0	519	746	
6	0	0	0	0	520	746	
7	0	0	0	0	521	746	
8	0	0	0	0	521	746	
9	0	0	0	0	521	746	
10	0	0	0	0	521	746	
11	0	0	0	0	521	746	
12	0	0	0	0	521	746	
13	0	0	0	0	522	746	
14	0	0	0	0	522	746	
15	0	0	0	0	521	746	
0	0	0	0	0	521	746	
1	0	0	0	0	522	746	
2	0	0	0	0	523	746	
3	0	0	0	0	524	746	
4	0	0	0	0	525	746	
5	0	0	0	0	525	746	
6	0	0	0	0	525	745	
7	0	0	0	0	524	746	
8	0	0	0	0	524	746	
9	0	0	0	0	522	746	
10	0	0	0	0	521	746	
11	0	0	0	0	521	746	
12	0	0	0	0	521	746	
13	0	0	0	0	522	746	
14	0	0	0	0	523	746	
15	0	0	0	0	523	746	
0	0	0	0	0	524	745	
1	0	0	0	0	524	746	
2	0	0	0	0	524	746	
3	0	0	0	0	524	746	
4	0	0	0	0	524	746	
5	0	0	0	0	524	745	
6	0	0	0	0	525	745	
7	0	0	0	0	524	745	
8	0	0	0	0	524	746	
9	0	0	0	0	523	746	
10	0	0	0	0	523	745	
11	0	0	0	0	523	746	
12	0	0	0	0	523	746	
13	0	0	0	0	521	746	
14	0	0	0	0	520	745	
15	0	0	0	0	519	746	
0	0	0	0	0	520	746	
1	0	0	0	0	521	745	
2	0	0	0	0	521	746	
3	0	0	0	0	521	746	
4	0	0	0	0	521	745	
5	0	0	0	0	522	746	
6	0	0	0	0	521	746	
7	0	0	0	0	521	746	
8	0	0	0	0	521	745	
9	0	0	0	0	521	745	
10	0	0	0	0	521	746	
11	0	0	0	0	522	745	
12	0	0	0	0	523	746	
13	0	0	0	0	523	746	
14	0	0	0	0	524	745	
15	0	0	0	0	525	745	
0	0	0	0	0	524	745	
1	0	0	0	0	524	745	
2	0	0	0	0	523	745	
3	0	0	0	0	523	745	
4	0	0	0	0	523	746	
5	0	0	0	0	522	745	
6	0	0	0	0	522	746	
7	0	0	0	0	522	745	
8	0	0	0	0	522	745	
9	0	0	0	0	523	746	
10	0	0	0	0	524	745	
11	0	0	0	0	524	745	
12	0	0	0	0	524	745	
13	0	0	0	0	524	745	
14	0	0	0	0	525	745	
15	0	0	0	0	525	745	
0	0	0	0	0	525	745	
1	0	0	0	0	524	745	
2	0	0	0	0	523	745	
3	0	0	0	0	523	746	
4	0	0	0	0	522	745	
5	0	0	0	0	521	745	
6	0	0	0	0	521	745	
7	0	0	0	0	521	745	
8	0	0	0	0	521	746	
9	0	0	0	0	520	745	
10	0	0	0	0	520	745	
11	0	0	0	0	520	745	
12	0	0	0	0	521	745	
13	0	0	0	0	520	746	
14	0	0	0	0	519	745	
15	0	0	0	0	519	745	
0	0	0	0	0	518	745	
1	0	0	0	0	516	745	
2	0	0	0	0	515	746	
3	0	0	0	0	515	745	
4	0	0	0	0	515	745	
5	0	0	0	0	515	745	
6	0	0	0	0	515	745	
7	0	0	0	0	515	746	
8	0	0	0	0	514	745	
9	0	0	0	0	514	745	
10	0	0	0	0	514	745	
11	0	0	0	0	515	745	
12	0	0	0	0	515	745	
13	0	0	0	0	515	745	
14	0	0	0	0	516	745	
15	0	0	0	0	517	745	
0	0	0	0	0	518	745	
1	0	0	0	0	518	745	
2	0	0	0	0	518	745	
3	0	0	0	0	516	745	
4	0	0	0	0	516	745	
5	0	0	0	0	516	745	
6	0	0	0	0	517	745	
7	0	0	0	0	516	745	
8	0	0	0	0	516	745	
9	0	0	0	0	517	745	
10	0	0	0	0	516	745	
11	0	0	0	0	515	745	
12	0	0	0	0	514	745	
13	0	0	0	0	514	745	
14	0	0	0	0	514	745	
15	0	0	0	0	513	745	
0	0	0	0	0	513	745	
1	0	0	0	0	512	745	
2	0	0	0	0	512	745	
3	0	0	0	0	513	745	
4	0	0	0	0	513	745	
5	0	0	0	0	513	745	
6	0	0	0	0	512	745	
7	0	0	0	0	513	745	
8	0	0	0	0	512	745	
9	0	0	0	0	512	745	
10	0	0	0	0	512	745	
11	0	0	0	0	511	745	
12	0	0	0	0	510	745	
13	0	0	0	0	510	745	
14	0	0	0	0	507	745	
15	0	0	0	0	504	745	
0	0	0	0	0	502	745	
1	0	0	0	0	502	745	
2	0	0	0	0	501	745	
3	0	0	0	0	500	745	
4	0	0	0	0	498	745	
5	0	0	0	0	497	745	
6	0	0	0	0	495	745	
7	0	0	0	0	495	745	
8	0	0	0	0	494	745	
9	0	0	0	0	494	745	
10	0	0	0	0	494	745	
11	0	0	0	0	494	745	
12	0	0	0	0	493	745	
13	0	0	0	0	492	745	
14	0	0	0	0	492	745	
15	0	0	0	0	492	745	
0	0	0	0	0	493	745	
1	0	0	0	0	493	745	
2	0	0	0	0	492	745	
3	0	0	0	0	492	745	
4	0	0	0	0	491	745	
5	0	0	0	0	492	745	
6	0	0	0	0	493	745	
7	0	0	0	0	494	745	
8	0	0	0	0	495	745	
9	0	0	0	0	495	745	
10	0	0	0	0	495	745	
11	0	0	0	0	496	745	
12	0	0	0	0	495	745	
13	0	0	0	0	494	745	
14	0	0	0	0	495	745	
15	0	0	0	0	495	745	
0	0	0	0	0	495	745	
1	0	0	0	0	495	745	
2	0	0	0	0	495	745	
3	0	0	0	0	495	745	
4	0	0	0	0	496	745	
5	0	0	0	0	497	745	
6	0	0	0	0	497	745	
7	0	0	0	0	498	745	
8	0	0	0	0	498	745	
9	0	0	0	0	498	745	
10	0	0	0	0	498	745	
11	0	0	0	0	498	745	
12	0	0	0	0	499	745	
13	0	0	0	0	499	745	
14	0	0	0	0	499	745	
15	0	0	0	0	500	745	
0	0	0	0	0	500	745	
1	0	0	0	0	499	745	
2	0	0	0	0	497	745	
3	0	0	0	0	496	745	
4	0	0	0	0	496	745	
5	0	0	0	0	496	745	
6	0	0	0	0	498	745	
7	0	0	0	0	499	745	
8	0	0	0	0	500	745	
9	0	0	0	0	500	745	
10	0	0	0	0	500	744	
11	0	0	0	0	501	745	
12	0	0	0	0	500	745	
13	0	0	0	0	498	745	
14	0	0	0	0	497	745	
15	0	0	0	0	497	745	
0	0	0	0	0	498	745	
1	0	0	0	0	497	745	
2	0	0	0	0	497	745	
3	0	0	0	0	497	745	
4	0	0	0	0	498	744	
5	0	0	0	0	498	745	
6	0	0	0	0	497	745	
7	0	0	0	0	496	745	
8	0	0	0	0	497	745	
9	0	0	0	0	497	745	
10	0	0	0	0	497	745	
11	0	0	0	0	497	745	
12	0	0	0	0	497	745	
13	0	0	0	0	497	745	
14	0	0	0	0	497	744	
15	0	0	0	0	497	745	
0	0	0	0	0	496	745	
1	0	0	0	0	496	745	
2	0	0	0	0	496	745	
3	0	0	0	0	496	745	
4	0	0	0	0	496	745	
5	0	0	0	0	496	745	
6	0	0	0	0	496	745	
7	0	0	0	0	496	745	
8	0	0	0	0	496	744	
9	0	0	0	0	496	744	
10	0	0	0	0	497	745	
11	0	0	0	0	497	745	
12	0	0	0	0	498	745	
13	0	0	0	0	499	744	
14	0	0	0	0	499	745	
15	0	0	0	0	499	744	
0	0	0	0	0	499	744	
1	0	0	0	0	500	745	
2	0	0	0	0	500	744	
3	0	0	0	0	501	745	
4	0	0	0	0	502	745	
5	0	0	0	0	502	745	
6	0	0	0	0	502	745	
7	0	0	0	0	501	744	
8	0	0	0	0	500	745	
9	0	0	0	0	500	744	
10	0	0	0	0	500	744	
11	0	0	0	0	500	745	
12	0	0	0	0	501	744	
13	0	0	0	0	501	744	
14	0	0	0	0	502	744	
15	0	0	0	0	503	745	
0	0	0	0	0	502	745	
1	0	0	0	0	503	744	
2	0	0	0	0	504	744	
3	0	0	0	0	505	744	
4	0	0	0	0	506	744	
5	0	0	0	0	506	745	
6	0	0	0	0	506	744	
7	0	0	0	0	505	744	
8	0	0	0	0	504	744	
9	0	0	0	0	504	744	
10	0	0	0	0	504	745	
11	0	0	0	0	505	744	
12	0	0	0	0	506	744	
13	0	0	0	0	508	744	
14	0	0	0	0	510	745	
15	0	0	0	0	510	744	
0	0	0	0	0	511	744	
1	0	0	0	0	510	744	
2	0	0	0	0	512	744	
3	0	0	0	0	514	744	
4	0	0	0	0	514	744	
5	0	0	0	0	514	744	
6	0	0	0	0	515	744	
7	0	0	0	0	514	744	
8	0	0	0	0	515	744	
9	0	0	0	0	515	744	
10	0	0	0	0	514	744	
11	0	0	0	0	513	744	
12	0	0	0	0	512	744	
13	0	0	0	0	512	744	
14	0	0	0	0	513	744	
15	0	0	0	0	514	744	
0	0	0	0	0	515	744	
1	0	0	0	0	517	744	
2	0	0	0	0	519	744	
3	0	0	0	0	521	744	
4	0	0	0	0	524	744	
5	0	0	0	0	527	744	
6	0	0	0	0	530	744	
7	0	0	0	0	535	744	
8	0	0	0	0	540	744	
9	0	0	0	0	544	744	
10	0	0	0	0	549	745	
11	0	0	0	0	552	744	
12	0	0	0	0	556	744	
13	0	0	0	0	560	744	
14	0	0	0	0	561	744	
15	0	0	0	0	563	745	
0	0	0	0	0	564	744	
1	0	0	0	0	564	744	
2	0	0	0	0	562	744	
3	0	0	0	0	561	744	
4	0	0	0	0	560	744	
5	0	0	0	0	558	744	
6	0	0	0	0	553	745	
7	0	0	0	0	548	744	
8	0	0	0	0	544	744	
9	0	0	0	0	540	745	
10	0	0	0	0	536	744	
11	0	0	0	0	531	744	
12	0	0	0	0	526	744	
13	0	0	0	0	519	744	
14	0	0	0	0	513	745	
15	0	0	0	0	505	744	
0	0	0	0	0	498	745	
1	0	0	0	0	492	744	
2	0	0	0	0	487	744	
3	0	0	0	0	481	744	
4	0	0	0	0	475	744	
5	0	0	0	0	468	744	
6	0	0	0	0	460	744	
7	0	0	0	0	453	744	
8	0	0	0	0	446	745	
9	0	0	0	0	439	744	
10	0	0	0	0	433	744	
11	0	0	0	0	428	744	
12	0	0	0	0	424	744	
13	0	0	0	0	423	744	
14	0	0	0	0	425	744	
15	0	0	0	0	428	744	
0	0	0	0	0	432	744	
1	0	0	0	0	434	744	
2	0	0	0	0	436	744	
3	0	0	0	0	438	744	
4	0	0	0	0	441	744	
5	0	0	0	0	446	744	
6	0	0	0	0	449	744	
7	0	0	0	0	452	744	
8	0	0	0	0	457	744	
9	0	0	0	0	462	744	
10	0	0	0	0	466	744	
11	0	0	0	0	470	744	
12	0	0	0	0	474	744	
13	0	0	0	0	477	744	
14	0	0	0	0	480	744	
15	0	0	0	0	482	744	
0	0	0	0	0	485	744	
1	0	0	0	0	488	744	
2	0	0	0	0	491	744	
3	0	0	0	0	495	744	
4	0	0	0	0	498	744	
5	0	0	0	0	500	744	
6	0	0	0	0	502	744	
7	0	0	0	0	503	744	
8	0	0	0	0	503	744	
9	0	0	0	0	504	744	
10	0	0	0	0	504	744	
11	0	0	0	0	504	744	
12	0	0	0	0	504	744	
13	0	0	0	0	505	744	
14	0	0	0	0	507	744	
15	0	0	0	0	507	744	
0	0	0	0	0	508	744	
1	0	0	0	0	508	744	
2	0	0	0	0	510	744	
3	0	0	0	0	510	744	
4	0	0	0	0	511	744	
5	0	0	0	0	511	744	
6	0	0	0	0	511	744	
7	0	0	0	0	512	744	
8	0	0	0	0	513	744	
9	0	0	0	0	514	744	
10	0	0	0	0	514	744	
11	0	0	0	0	515	744	
12	0	0	0	0	516	744	
13	0	0	0	0	517	744	
14	0	0	0	0	517	744	
15	0	0	0	0	518	744	
0	0	0	0	0	519	744	
1	0	0	0	0	521	744	
2	0	0	0	0	521	744	
3	0	0	0	0	522	744	
4	0	0	0	0	523	744	
5	0	0	0	0	523	744	
6	0	0	0	0	523	744	
7	0	0	0	0	525	744	
8	0	0	0	0	526	743	
9	0	0	0	0	527	744	
10	0	0	0	0	526	744	
11	0	0	0	0	525	744	
12	0	0	0	0	525	744	
13	0	0	0	0	525	744	
14	0	0	0	0	525	744	
15	0	0	0	0	525	744	
0	0	0	0	0	524	744	
1	0	0	0	0	524	744	
2	0	0	0	0	523	744	
3	0	0	0	0	522	744	
4	0	0	0	0	521	744	
5	0	0	0	0	521	744	
6	0	0	0	0	520	744	
7	0	0	0	0	519	744	
8	0	0	0	0	520	744	
9	0	0	0	0	519	744	
10	0	0	0	0	519	744	
11	0	0	0	0	517	744	
12	0	0	0	0	516	744	
13	0	0	0	0	516	744	
14	0	0	0	0	515	744	
15	0	0	0	0	515	744	
0	0	0	0	0	514	743	
1	0	0	0	0	512	744	
2	0	0	0	0	513	744	
3	0	0	0	0	512	743	
4	0	0	0	0	512	744	
5	0	0	0	0	512	744	
6	0	0	0	0	511	743	
7	0	0	0	0	510	743	
8	0	0	0	0	511	744	
9	0	0	0	0	511	744	
10	0	0	0	0	512	744	
11	0	0	0	0	512	743	
12	0	0	0	0	512	744	
13	0	0	0	0	512	744	
14	0	0	0	0	512	744	
15	0	0	0	0	513	744	
0	0	0	0	0	512	743	
1	0	0	0	0	512	744	
2	0	0	0	0	512	744	
3	0	0	0	0	512	744	
4	0	0	0	0	511	744	
5	0	0	0	0	510	743	
6	0	0	0	0	510	744	
7	0	0	0	0	512	744	
8	0	0	0	0	513	744	
9	0	0	0	0	514	743	
10	0	0	0	0	514	743	
11	0	0	0	0	515	744	
12	0	0	0	0	515	744	
13	0	0	0	0	514	744	
14	0	0	0	0	514	744	
15	0	0	0	0	514	743	
0	0	0	0	0	514	744	
1	0	0	0	0	514	743	
2	0	0	0	0	515	743	
3	0	0	0	0	516	744	
4	0	0	0	0	517	743	
5	0	0	0	0	518	744	
6	0	0	0	0	517	743	
7	0	0	0	0	517	744	
8	0	0	0	0	516	743	
9	0	0	0	0	514	743	
10	0	0	0	0	514	744	
11	0	0	0	0	513	744	
12	0	0	0	0	514	743	
13	0	0	0	0	514	743	
14	0	0	0	0	515	743	
15	0	0	0	0	515	744	
0	0	0	0	0	514	743	
1	0	0	0	0	514	744	
2	0	0	0	0	515	744	
3	0	0	0	0	516	743	
4	0	0	0	0	518	744	
5	0	0	0	0	517	743	
6	0	0	0	0	515	743	
7	0	0	0	0	512	743	
8	0	0	0	0	510	743	
9	0	0	0	0	510	744	
10	0	0	0	0	511	743	
11	0	0	0	0	512	744	
12	0	0	0	0	512	743	
13	0	0	0	0	513	743	
14	0	0	0	0	515	743	
15	0	0	0	0	516	743	
0	0	0	0	0	517	743	
1	0	0	0	0	518	743	
2	0	0	0	0	519	743	
3	0	0	0	0	520	744	
4	0	0	0	0	520	743	
5	0	0	0	0	522	744	
6	0	0	0	0	524	743	
7	0	0	0	0	524	743	
8	0	0	0	0	525	743	
9	0	0	0	0	526	744	
10	0	0	0	0	527	744	
11	0	0	0	0	528	743	
12	0	0	0	0	528	743	
13	0	0	0	0	529	744	
14	0	0	0	0	528	743	
15	0	0	0	0	528	743	
0	0	0	0	0	528	743	
1	0	0	0	0	530	743	
2	0	0	0	0	531	744	
3	0	0	0	0	532	743	
4	0	0	0	0	534	743	
5	0	0	0	0	535	743	
6	0	0	0	0	535	743	
7	0	0	0	0	537	743	
8	0	0	0	0	537	743	
9	0	0	0	0	537	743	
10	0	0	0	0	536	744	
11	0	0	0	0	537	743	
12	0	0	0	0	537	743	
13	0	0	0	0	537	743	
14	0	0	0	0	537	743	
15	0	0	0	0	536	743	
0	0	0	0	0	536	743	
1	0	0	0	0	535	743	
2	0	0	0	0	534	743	
3	0	0	0	0	533	743	
4	0	0	0	0	534	743	
5	0	0	0	0	535	743	
6	0	0	0	0	537	744	
7	0	0	0	0	537	743	
8	0	0	0	0	537	743	
9	0	0	0	0	538	743	
10	0	0	0	0	537	743	
11	0	0	0	0	537	744	
12	0	0	0	0	537	743	
13	0	0	0	0	537	743	
14	0	0	0	0	537	744	
15	0	0	0	0	537	743	
0	0	0	0	0	537	743	
1	0	0	0	0	538	743	
2	0	0	0	0	538	743	
3	0	0	0	0	537	743	
4	0	0	0	0	536	743	
5	0	0	0	0	536	743	
6	0	0	0	0	536	743	
7	0	0	0	0	536	743	
8	0	0	0	0	536	743	
9	0	0	0	0	535	743	
10	0	0	0	0	532	743	
11	0	0	0	0	531	743	
12	0	0	0	0	531	743	
13	0	0	0	0	529	743	
14	0	0	0	0	528	743	
15	0	0	0	0	528	743	
0	0	0	0	0	527	743	
1	0	0	0	0	527	743	
2	0	0	0	0	528	743	
3	0	0	0	0	529	743	
4	0	0	0	0	529	743	
5	0	0	0	0	529	743	
6	0	0	0	0	529	743	
7	0	0	0	0	527	743	
8	0	0	0	0	527	743	
9	0	0	0	0	526	743	
10	0	0	0	0	525	743	
11	0	0	0	0	524	743	
12	0	0	0	0	523	743	
13	0	0	0	0	523	743	
14	0	0	0	0	521	743	
15	0	0	0	0	521	743	
0	0	0	0	0	520	743	
1	0	0	0	0	519	743	
2	0	0	0	0	518	743	
3	0	0	0	0	517	743	
4	0	0	0	0	516	743	
5	0	0	0	0	515	743	
6	0	0	0	0	515	743	
7	0	0	0	0	515	743	
8	0	0	0	0	515	743	
9	0	0	0	0	516	743	
10	0	0	0	0	515	743	
11	0	0	0	0	515	743	
12	0	0	0	0	514	743	
13	0	0	0	0	514	743	
14	0	0	0	0	515	743	
15	0	0	0	0	515	743	
0	0	0	0	0	515	743	
1	0	0	0	0	515	743	
2	0	0	0	0	516	743	
3	0	0	0	0	514	743	
4	0	0	0	0	513	743	
5	0	0	0	0	513	743	
6	0	0	0	0	512	743	
7	0	0	0	0	512	743	
8	0	0	0	0	511	743	
9	0	0	0	0	511	743	
10	0	0	0	0	511	743	
11	0	0	0	0	511	743	
12	0	0	0	0	511	743	
13	0	0	0	0	511	743	
14	0	0	0	0	511	743	
15	0	0	0	0	511	743	
0	0	0	0	0	511	743	
1	0	0	0	0	511	743	
2	0	0	0	0	511	743	
3	0	0	0	0	511	743	
4	0	0	0	0	510	743	
5	0	0	0	0	510	743	
6	0	0	0	0	510	743	
7	0	0	0	0	510	743	
8	0	0	0	0	509	743	
9	0	0	0	0	508	743	
10	0	0	0	0	507	743	
11	0	0	0	0	506	743	
12	0	0	0	0	504	743	
13	0	0	0	0	504	743	
14	0	0	0	0	504	743	
15	0	0	0	0	506	743	
0	0	0	0	0	506	743	
1	0	0	0	0	506	743	
2	0	0	0	0	505	743	
3	0	0	0	0	505	743	
4	0	0	0	0	504	743	
5	0	0	0	0	505	743	
6	0	0	0	0	505	743	
7	0	0	0	0	505	743	
8	0	0	0	0	505	743	
9	0	0	0	0	505	743	
10	0	0	0	0	504	743	
11	0	0	0	0	503	743	
12	0	0	0	0	503	743	
13	0	0	0	0	503	743	
14	0	0	0	0	503	743	
15	0	0	0	0	503	743	
0	0	0	0	0	504	743	
1	0	0	0	0	505	743	
2	0	0	0	0	505	743	
3	0	0	0	0	504	743	
4	0	0	0	0	504	743	
5	0	0	0	0	504	743	
6	0	0	0	0	504	743	
7	0	0	0	0	503	743	
8	0	0	0	0	503	743	
9	0	0	0	0	503	743	
10	0	0	0	0	503	743	
11	0	0	0	0	503	743	
12	0	0	0	0	502	743	
13	0	0	0	0	503	743	
14	0	0	0	0	503	743	
15	0	0	0	0	504	743	
0	0	0	0	0	503	743	
1	0	0	0	0	504	743	
2	0	0	0	0	505	743	
3	0	0	0	0	507	743	
4	0	0	0	0	507	743	
5	0	0	0	0	507	743	
6	0	0	0	0	507	743	
7	0	0	0	0	507	743	
8	0	0	0	0	508	743	
9	0	0	0	0	508	743	
10	0	0	0	0	509	743	
11	0	0	0	0	510	743	
12	0	0	0	0	510	743	
13	0	0	0	0	511	743	
14	0	0	0	0	511	743	
15	0	0	0	0	512	743	
0	0	0	0	0	511	743	
1	0	0	0	0	511	743	
2	0	0	0	0	511	743	
3	0	0	0	0	512	743	
4	0	0	0	0	513	743	
5	0	0	0	0	513	743	
6	0	0	0	0	513	743	
7	0	0	0	0	513	743	
8	0	0	0	0	513	743	
9	0	0	0	0	513	743	
10	0	0	0	0	514	743	
11	0	0	0	0	514	743	
12	0	0	0	0	514	743	
13	0	0	0	0	514	743	
14	0	0	0	0	515	743	
15	0	0	0	0	516	743	
0	0	0	0	0	516	743	
1	0	0	0	0	517	743	
2	0	0	0	0	518	743	
3	0	0	0	0	519	743	
4	0	0	0	0	520	743	
5	0	0	0	0	521	743	
6	0	0	0	0	521	743	
7	0	0	0	0	521	743	
8	0	0	0	0	520	743	
9	0	0	0	0	519	743	
10	0	0	0	0	519	743	
11	0	0	0	0	517	743	
12	0	0	0	0	517	743	
13	0	0	0	0	518	743	
14	0	0	0	0	518	743	
15	0	0	0	0	518	743	
0	0	0	0	0	518	743	
1	0	0	0	0	518	743	
2	0	0	0	0	519	743	
3	0	0	0	0	519	743	
4	0	0	0	0	519	743	
5	0	0	0	0	519	743	
6	0	0	0	0	518	743	
7	0	0	0	0	518	743	
8	0	0	0	0	517	743	
9	0	0	0	0	516	743	
10	0	0	0	0	516	743	
11	0	0	0	0	516	743	
12	0	0	0	0	516	743	
13	0	0	0	0	515	743	
14	0	0	0	0	514	743	
15	0	0	0	0	515	743	
0	0	0	0	0	515	743	
1	0	0	0	0	515	743	
2	0	0	0	0	515	743	
3	0	0	0	0	515	743	
4	0	0	0	0	518	743	
5	0	0	0	0	518	743	
6	0	0	0	0	518	743	
7	0	0	0	0	519	743	
8	0	0	0	0	519	743	
9	0	0	0	0	520	743	
10	0	0	0	0	520	743	
11	0	0	0	0	520	743	
12	0	0	0	0	520	743	
13	0	0	0	0	520	743	
14	0	0	0	0	519	743	
15	0	0	0	0	518	743	
0	0	0	0	0	518	743	
1	0	0	0	0	516	743	
2	0	0	0	0	516	743	
3	0	0	0	0	516	743	
4	0	0	0	0	516	743	
5	0	0	0	0	516	743	
6	0	0	0	0	515	743	
7	0	0	0	0	515	743	
8	0	0	0	0	513	743	
9	0	0	0	0	512	743	
10	0	0	0	0	512	743	
11	0	0	0	0	511	743	
12	0	0	0	0	512	743	
13	0	0	0	0	512	743	
14	0	0	0	0	511	743	
15	0	0	0	0	511	743	
0	0	0	0	0	510	743	
1	0	0	0	0	508	743	
2	0	0	0	0	509	743	
3	0	0	0	0	508	743	
4	0	0	0	0	506	742	
5	0	0	0	0	506	743	
6	0	0	0	0	506	743	
7	0	0	0	0	506	743	
8	0	0	0	0	505	743	
9	0	0	0	0	504	742	
10	0	0	0	0	504	743	
11	0	0	0	0	503	743	
12	0	0	0	0	503	743	
13	0	0	0	0	504	743	
14	0	0	0	0	504	743	
15	0	0	0	0	505	743	
0	0	0	0	0	506	743	
1	0	0	0	0	507	743	
2	0	0	0	0	507	743	
3	0	0	0	0	507	743	
4	0	0	0	0	506	743	
5	0	0	0	0	505	743	
6	0	0	0	0	505	743	
7	0	0	0	0	504	743	
8	0	0	0	0	504	743	
9	0	0	0	0	504	743	
10	0	0	0	0	505	742	
11	0	0	0	0	505	743	
12	0	0	0	0	504	743	
13	0	0	0	0	504	743	
14	0	0	0	0	504	743	
15	0	0	0	0	503	742	
0	0	0	0	0	503	743	
1	0	0	0	0	503	743	
2	0	0	0	0	504	743	
3	0	0	0	0	504	743	
4	0	0	0	0	504	743	
5	0	0	0	0	504	743	
6	0	0	0	0	504	743	
7	0	0	0	0	504	743	
8	0	0	0	0	504	742	
9	0	0	0	0	504	742	
10	0	0	0	0	506	743	
11	0	0	0	0	507	743	
12	0	0	0	0	509	743	
13	0	0	0	0	508	743	
14	0	0	0	0	508	742	
15	0	0	0	0	509	743	
0	0	0	0	0	509	742	
1	0	0	0	0	510	743	
2	0	0	0	0	509	743	
3	0	0	0	0	510	742	
4	0	0	0	0	511	743	
5	0	0	0	0	512	742	
6	0	0	0	0	512	743	
7	0	0	0	0	512	743	
8	0	0	0	0	512	742	
9	0	0	0	0	513	743	
10	0	0	0	0	512	742	
11	0	0	0	0	513	742	
12	0	0	0	0	514	742	
13	0	0	0	0	514	743	
14	0	0	0	0	513	742	
15	0	0	0	0	514	743	
0	0	0	0	0	515	743	
1	0	0	0	0	515	743	
2	0	0	0	0	516	742	
3	0	0	0	0	516	743	
4	0	0	0	0	515	743	
5	0	0	0	0	515	742	
6	0	0	0	0	515	742	
7	0	0	0	0	515	742	
8	0	0	0	0	516	743	
9	0	0	0	0	515	742	
10	0	0	0	0	512	742	
11	0	0	0	0	513	743	
12	0	0	0	0	513	742	
13	0	0	0	0	513	743	
14	0	0	0	0	513	742	
15	0	0	0	0	512	742	
0	0	0	0	0	512	743	
1	0	0	0	0	512	742	
2	0	0	0	0	511	742	
3	0	0	0	0	509	742	
4	0	0	0	0	508	743	
5	0	0	0	0	508	743	
6	0	0	0	0	508	742	
7	0	0	0	0	508	743	
8	0	0	0	0	506	742	
9	0	0	0	0	505	743	
10	0	0	0	0	505	742	
11	0	0	0	0	505	742	
12	0	0	0	0	505	743	
13	0	0	0	0	506	742	
14	0	0	0	0	505	742	
15	0	0	0	0	505	742	
0	0	0	0	0	504	742	
1	0	0	0	0	503	743	
2	0	0	0	0	502	742	
3	0	0	0	0	501	742	
4	0	0	0	0	500	743	
5	0	0	0	0	500	742	
6	0	0	0	0	501	743	
7	0	0	0	0	501	742	
8	0	0	0	0	501	742	
9	0	0	0	0	501	742	
10	0	0	0	0	500	742	
11	0	0	0	0	501	743	
12	0	0	0	0	501	742	
13	0	0	0	0	501	742	
14	0	0	0	0	500	742	
15	0	0	0	0	499	742	
0	0	0	0	0	499	742	
1	0	0	0	0	499	742	
2	0	0	0	0	499	742	
3	0	0	0	0	499	742	
4	0	0	0	0	497	742	
5	0	0	0	0	498	742	
6	0	0	0	0	498	742	
7	0	0	0	0	498	742	
8	0	0	0	0	499	742	
9	0	0	0	0	500	742	
10	0	0	0	0	501	742	
11	0	0	0	0	501	742	
12	0	0	0	0	500	742	
13	0	0	0	0	499	742	
14	0	0	0	0	499	742	
15	0	0	0	0	501	742	
0	0	0	0	0	500	742	
1	0	0	0	0	500	742	
2	0	0	0	0	500	742	
3	0	0	0	0	499	742	
4	0	0	0	0	499	742	
5	0	0	0	0	501	742	
6	0	0	0	0	503	742	
7	0	0	0	0	503	742	
8	0	0	0	0	503	742	
9	0	0	0	0	503	743	
10	0	0	0	0	503	742	
11	0	0	0	0	503	742	
12	0	0	0	0	503	742	
13	0	0	0	0	503	742	
14	0	0	0	0	503	742	
15	0	0	0	0	504	742	
0	0	0	0	0	504	742	
1	0	0	0	0	504	742	
2	0	0	0	0	504	742	
3	0	0	0	0	505	742	
4	0	0	0	0	505	742	
5	0	0	0	0	505	742	
6	0	0	0	0	506	742	
7	0	0	0	0	508	742	
8	0	0	0	0	508	742	
9	0	0	0	0	508	742	
10	0	0	0	0	508	742	
11	0	0	0	0	509	742	
12	0	0	0	0	510	742	
13	0	0	0	0	511	742	
14	0	0	0	0	512	742	
15	0	0	0	0	513	742	
0	0	0	0	0	514	742	
1	0	0	0	0	514	742	
2	0	0	0	0	514	742	
3	0	0	0	0	514	742	
4	0	0	0	0	513	742	
5	0	0	0	0	513	742	
6	0	0	0	0	513	742	
7	0	0	0	0	514	742	
8	0	0	0	0	513	742	
9	0	0	0	0	514	742	
10	0	0	0	0	514	742	
11	0	0	0	0	515	742	
12	0	0	0	0	514	742	
13	0	0	0	0	513	742	
14	0	0	0	0	513	742	
15	0	0	0	0	513	742	
0	0	0	0	0	513	742	
1	0	0	0	0	513	742	
2	0	0	0	0	514	742	
3	0	0	0	0	513	742	
4	0	0	0	0	514	742	
5	0	0	0	0	515	742	
6	0	0	0	0	515	741	
7	0	0	0	0	516	742	
8	0	0	0	0	515	742	
9	0	0	0	0	515	742	
10	0	0	0	0	515	742	
11	0	0	0	0	515	742	
12	0	0	0	0	516	742	
13	0	0	0	0	517	742	
14	0	0	0	0	519	742	
15	0	0	0	0	519	742	
0	0	0	0	0	519	742	
1	0	0	0	0	518	742	
2	0	0	0	0	518	742	
3	0	0	0	0	517	742	
4	0	0	0	0	516	742	
5	0	0	0	0	516	742	
6	0	0	0	0	517	742	
7	0	0	0	0	518	742	
8	0	0	0	0	519	742	
9	0	0	0	0	519	742	
10	0	0	0	0	518	742	
11	0	0	0	0	518	742	
12	0	0	0	0	518	742	
13	0	0	0	0	518	742	
14	0	0	0	0	518	741	
15	0	0	0	0	519	742	
0	0	0	0	0	519	742	
1	0	0	0	0	518	742	
2	0	0	0	0	518	742	
3	0	0	0	0	518	742	
4	0	0	0	0	517	742	
5	0	0	0	0	517	742	
6	0	0	0	0	517	742	
7	0	0	0	0	517	742	
8	0	0	0	0	517	742	
9	0	0	0	0	517	742	
10	0	0	0	0	515	742	
11	0	0	0	0	515	742	
12	0	0	0	0	515	742	
13	0	0	0	0	515	742	
14	0	0	0	0	515	742	
15	0	0	0	0	513	742	
0	0	0	0	0	511	742	
1	0	0	0	0	511	742	
2	0	0	0	0	510	741	
3	0	0	0	0	510	742	
4	0	0	0	0	509	742	
5	0	0	0	0	508	742	
6	0	0	0	0	508	742	
7	0	0	0	0	508	742	
8	0	0	0	0	508	742	
9	0	0	0	0	509	742	
10	0	0	0	0	509	742	
11	0	0	0	0	507	742	
12	0	0	0	0	506	741	
13	0	0	0	0	505	742	
14	0	0	0	0	505	742	
15	0	0	0	0	505	742	
0	0	0	0	0	506	742	
1	0	0	0	0	507	741	
2	0	0	0	0	507	742	
3	0	0	0	0	507	742	
4	0	0	0	0	507	742	
5	0	0	0	0	507	741	
6	0	0	0	0	507	741	
7	0	0	0	0	508	742	
8	0	0	0	0	508	742	
9	0	0	0	0	507	741	
10	0	0	0	0	506	742	
11	0	0	0	0	504	741	
12	0	0	0	0	505	742	
13	0	0	0	0	505	742	
14	0	0	0	0	506	742	
15	0	0	0	0	507	742	
0	0	0	0	0	507	741	
1	0	0	0	0	508	742	
2	0	0	0	0	509	741	
3	0	0	0	0	509	742	
4	0	0	0	0	508	742	
5	0	0	0	0	507	741	
6	0	0	0	0	505	741	
7	0	0	0	0	505	742	
8	0	0	0	0	506	742	
9	0	0	0	0	506	742	
10	0	0	0	0	505	741	
11	0	0	0	0	506	742	
12	0	0	0	0	506	742	
13	0	0	0	0	507	742	
14	0	0	0	0	506	742	
15	0	0	0	0	505	741	
0	0	0	0	0	504	742	
1	0	0	0	0	503	741	
2	0	0	0	0	503	742	
3	0	0	0	0	503	741	
4	0	0	0	0	502	741	
5	0	0	0	0	504	741	
6	0	0	0	0	505	742	
7	0	0	0	0	507	742	
8	0	0	0	0	508	741	
9	0	0	0	0	508	741	
10	0	0	0	0	508	741	
11	0	0	0	0	508	741	
12	0	0	0	0	509	742	
13	0	0	0	0	508	742	
14	0	0	0	0	508	741	
15	0	0	0	0	508	741	
0	0	0	0	0	507	742	
1	0	0	0	0	507	741	
2	0	0	0	0	508	741	
3	0	0	0	0	508	741	
4	0	0	0	0	509	742	
5	0	0	0	0	509	741	
6	0	0	0	0	509	741	
7	0	0	0	0	510	741	
8	0	0	0	0	508	741	
9	0	0	0	0	508	742	
10	0	0	0	0	508	741	
11	0	0	0	0	507	741	
12	0	0	0	0	506	741	
13	0	0	0	0	504	741	
14	0	0	0	0	504	741	
15	0	0	0	0	504	741	
0	0	0	0	0	504	741	
1	0	0	0	0	504	742	
2	0	0	0	0	505	741	
3	0	0	0	0	506	741	
4	0	0	0	0	506	741	
5	0	0	0	0	506	741	
6	0	0	0	0	507	741	
7	0	0	0	0	507	741	
8	0	0	0	0	507	741	
9	0	0	0	0	507	741	
10	0	0	0	0	508	741	
11	0	0	0	0	509	741	
12	0	0	0	0	511	741	
13	0	0	0	0	511	741	
14	0	0	0	0	511	741	
15	0	0	0	0	511	741	
0	0	0	0	0	512	741	
1	0	0	0	0	513	741	
2	0	0	0	0	514	741	
3	0	0	0	0	515	741	
4	0	0	0	0	516	741	
5	0	0	0	0	517	741	
6	0	0	0	0	518	741	
7	0	0	0	0	518	741	
8	0	0	0	0	518	741	
9	0	0	0	0	516	741	
10	0	0	0	0	517	741	
11	0	0	0	0	517	741	
12	0	0	0	0	518	741	
13	0	0	0	0	518	741	
14	0	0	0	0	519	741	
15	0	0	0	0	519	741	
0	0	0	0	0	519	741	
1	0	0	0	0	520	741	
2	0	0	0	0	519	741	
3	0	0	0	0	519	741	
4	0	0	0	0	519	741	
5	0	0	0	0	518	741	
6	0	0	0	0	518	741	
7	0	0	0	0	517	741	
8	0	0	0	0	517	741	
9	0	0	0	0	515	741	
10	0	0	0	0	513	741	
11	0	0	0	0	512	741	
12	0	0	0	0	510	741	
13	0	0	0	0	510	741	
14	0	0	0	0	508	741	
15	0	0	0	0	505	740	
0	0	0	0	0	503	741	
1	0	0	0	0	500	741	
2	0	0	0	0	497	741	
3	0	0	0	0	496	741	
4	0	0	0	0	493	741	
5	0	0	0	0	491	740	
6	0	0	0	0	489	741	
7	0	0	0	0	489	741	
8	0	0	0	0	490	741	
9	0	0	0	0	491	740	
10	0	0	0	0	492	741	
11	0	0	0	0	493	741	
12	0	0	0	0	493	741	
13	0	0	0	0	493	741	
14	0	0	0	0	493	741	
15	0	0	0	0	492	741	
0	0	0	0	0	492	741	
1	0	0	0	0	491	741	
2	0	0	0	0	491	741	
3	0	0	0	0	491	741	
4	0	0	0	0	491	740	
5	0	0	0	0	491	741	
6	0	0	0	0	491	741	
7	0	0	0	0	491	741	
8	0	0	0	0	492	740	
9	0	0	0	0	492	740	
10	0	0	0	0	492	741	
11	0	0	0	0	491	741	
12	0	0	0	0	492	741	
13	0	0	0	0	494	741	
14	0	0	0	0	494	741	
15	0	0	0	0	495	741	
0	0	0	0	0	496	741	
1	0	0	0	0	496	741	
2	0	0	0	0	496	740	
3	0	0	0	0	497	741	
4	0	0	0	0	496	741	
5	0	0	0	0	495	740	
6	0	0	0	0	496	741	
7	0	0	0	0	496	740	
8	0	0	0	0	497	741	
9	0	0	0	0	498	741	
10	0	0	0	0	498	740	
11	0	0	0	0	499	741	
12	0	0	0	0	499	740	
13	0	0	0	0	501	741	
14	0	0	0	0	501	740	
15	0	0	0	0	500	741	
0	0	0	0	0	501	740	
1	0	0	0	0	502	740	
2	0	0	0	0	502	741	
3	0	0	0	0	501	741	
4	0	0	0	0	500	741	
5	0	0	0	0	501	741	
6	0	0	0	0	501	740	
7	0	0	0	0	500	741	
8	0	0	0	0	500	740	
9	0	0	0	0	500	741	
10	0	0	0	0	500	741	
11	0	0	0	0	500	740	
12	0	0	0	0	501	740	
13	0	0	0	0	502	740	
14	0	0	0	0	503	740	
15	0	0	0	0	504	741	
0	0	0	0	0	504	740	
1	0	0	0	0	504	740	
2	0	0	0	0	503	740	
3	0	0	0	0	503	740	
4	0	0	0	0	504	740	
5	0	0	0	0	503	740	
6	0	0	0	0	504	740	
7	0	0	0	0	503	740	
8	0	0	0	0	503	740	
9	0	0	0	0	502	740	
10	0	0	0	0	502	740	
11	0	0	0	0	502	741	
12	0	0	0	0	502	740	
13	0	0	0	0	503	740	
14	0	0	0	0	503	741	
15	0	0	0	0	503	740	
0	0	0	0	0	504	741	
1	0	0	0	0	504	740	
2	0	0	0	0	503	740	
3	0	0	0	0	502	740	
4	0	0	0	0	500	740	
5	0	0	0	0	500	741	
6	0	0	0	0	499	740	
7	0	0	0	0	499	740	
8	0	0	0	0	499	740	
9	0	0	0	0	499	740	
10	0	0	0	0	499	740	
11	0	0	0	0	499	740	
12	0	0	0	0	500	740	
13	0	0	0	0	501	740	
14	0	0	0	0	502	740	
15	0	0	0	0	503	740	
0	0	0	0	0	503	740	
1	0	0	0	0	503	740	
2	0	0	0	0	503	740	
3	0	0	0	0	502	740	
4	0	0	0	0	504	741	
5	0	0	0	0	504	740	
6	0	0	0	0	504	740	
7	0	0	0	0	504	740	
8	0	0	0	0	503	740	
9	0	0	0	0	502	740	
10	0	0	0	0	501	740	
11	0	0	0	0	500	740	
12	0	0	0	0	501	740	
13	0	0	0	0	502	740	
14	0	0	0	0	502	740	
15	0	0	0	0	502	740	
0	0	0	0	0	502	740	
1	0	0	0	0	503	740	
2	0	0	0	0	504	740	
3	0	0	0	0	503	740	
4	0	0	0	0	503	740	
5	0	0	0	0	502	740	
6	0	0	0	0	503	740	
7	0	0	0	0	503	740	
8	0	0	0	0	504	740	
9	0	0	0	0	504	740	
10	0	0	0	0	505	740	
11	0	0	0	0	506	740	
12	0	0	0	0	507	740	
13	0	0	0	0	510	740	
14	0	0	0	0	512	740	
15	0	0	0	0	514	740	
0	0	0	0	0	515	740	
1	0	0	0	0	515	739	
2	0	0	0	0	514	740	
3	0	0	0	0	512	740	
4	0	0	0	0	511	740	
5	0	0	0	0	510	740	
6	0	0	0	0	512	740	
7	0	0	0	0	512	740	
8	0	0	0	0	513	740	
9	0	0	0	0	514	740	
10	0	0	0	0	516	740	
11	0	0	0	0	518	740	
12	0	0	0	0	521	740	
13	0	0	0	0	525	740	
14	0	0	0	0	529	740	
15	0	0	0	0	532	740	
0	0	0	0	0	535	740	
1	0	0	0	0	539	740	
2	0	0	0	0	542	740	
3	0	0	0	0	546	740	
4	0	0	0	0	551	740	
5	0	0	0	0	555	740	
6	0	0	0	0	560	740	
7	0	0	0	0	563	740	
8	0	0	0	0	566	740	
9	0	0	0	0	568	740	
10	0	0	0	0	569	740	
11	0	0	0	0	569	740	
12	0	0	0	0	568	740	
13	0	0	0	0	567	740	
14	0	0	0	0	564	740	
15	0	0	0	0	562	739	
0	0	0	0	0	559	740	
1	0	0	0	0	553	740	
2	0	0	0	0	548	740	
3	0	0	0	0	543	740	
4	0	0	0	0	538	740	
5	0	0	0	0	534	740	
6	0	0	0	0	528	740	
7	0	0	0	0	522	740	
8	0	0	0	0	515	740	
9	0	0	0	0	508	740	
10	0	0	0	0	502	740	
11	0	0	0	0	496	740	
12	0	0	0	0	491	740	
13	0	0	0	0	485	740	
14	0	0	0	0	480	740	
15	0	0	0	0	475	740	
0	0	0	0	0	467	740	
1	0	0	0	0	459	740	
2	0	0	0	0	451	740	
3	0	0	0	0	443	739	
4	0	0	0	0	435	740	
5	0	0	0	0	430	740	
6	0	0	0	0	425	740	
7	0	0	0	0	422	740	
8	0	0	0	0	423	740	
9	0	0	0	0	425	740	
10	0	0	0	0	428	740	
11	0	0	0	0	431	740	
12	0	0	0	0	436	740	
13	0	0	0	0	440	740	
14	0	0	0	0	446	740	
15	0	0	0	0	449	740	
0	0	0	0	0	454	740	
1	0	0	0	0	458	740	
2	0	0	0	0	461	740	
3	0	0	0	0	465	740	
4	0	0	0	0	470	740	
5	0	0	0	0	473	740	
6	0	0	0	0	476	740	
7	0	0	0	0	479	739	
8	0	0	0	0	483	740	
9	0	0	0	0	486	740	
10	0	0	0	0	489	740	
11	0	0	0	0	491	740	
12	0	0	0	0	494	739	
13	0	0	0	0	496	740	
14	0	0	0	0	499	740	
15	0	0	0	0	502	740	
0	0	0	0	0	504	739	
1	0	0	0	0	504	740	
2	0	0	0	0	505	739	
3	0	0	0	0	506	740	
4	0	0	0	0	507	740	
5	0	0	0	0	507	739	
6	0	0	0	0	507	739	
7	0	0	0	0	507	739	
8	0	0	0	0	507	740	
9	0	0	0	0	506	740	
10	0	0	0	0	506	739	
11	0	0	0	0	506	739	
12	0	0	0	0	508	740	
13	0	0	0	0	507	740	
14	0	0	0	0	508	740	
15	0	0	0	0	510	740	
0	0	0	0	0	510	739	
1	0	0	0	0	511	740	
2	0	0	0	0	512	739	
3	0	0	0	0	512	739	
4	0	0	0	0	513	740	
5	0	0	0	0	514	739	
6	0	0	0	0	516	740	
7	0	0	0	0	516	739	
8	0	0	0	0	516	739	
9	0	0	0	0	517	740	
10	0	0	0	0	516	739	
11	0	0	0	0	516	740	
12	0	0	0	0	517	739	
13	0	0	0	0	517	740	
14	0	0	0	0	517	739	
15	0	0	0	0	518	739	
0	0	0	0	0	519	740	
1	0	0	0	0	521	739	
2	0	0	0	0	523	739	
3	0	0	0	0	524	740	
4	0	0	0	0	523	739	
5	0	0	0	0	523	740	
6	0	0	0	0	522	739	
7	0	0	0	0	523	740	
8	0	0	0	0	524	739	
9	0	0	0	0	523	739	
10	0	0	0	0	522	739	
11	0	0	0	0	522	739	
12	0	0	0	0	521	740	
13	0	0	0	0	521	739	
14	0	0	0	0	521	739	
15	0	0	0	0	522	739	
0	0	0	0	0	522	739	
1	0	0	0	0	522	739	
2	0	0	0	0	522	739	
3	0	0	0	0	523	739	
4	0	0	0	0	524	739	
5	0	0	0	0	524	739	
6	0	0	0	0	523	739	
7	0	0	0	0	523	739	
8	0	0	0	0	522	739	
9	0	0	0	0	520	739	
10	0	0	0	0	519	739	
11	0	0	0	0	520	739	
12	0	0	0	0	519	739	
13	0	0	0	0	519	739	
14	0	0	0	0	519	739	
15	0	0	0	0	518	739	
0	0	0	0	0	518	739	
1	0	0	0	0	517	739	
2	0	0	0	0	516	739	
3	0	0	0	0	517	739	
4	0	0	0	0	517	739	
5	0	0	0	0	518	739	
6	0	0	0	0	519	740	
7	0	0	0	0	519	739	
8	0	0	0	0	518	739	
9	0	0	0	0	518	739	
10	0	0	0	0	518	739	
11	0	0	0	0	518	739	
12	0	0	0	0	519	739	
13	0	0	0	0	519	739	
14	0	0	0	0	520	739	
15	0	0	0	0	520	739	
0	0	0	0	0	522	739	
1	0	0	0	0	521	739	
2	0	0	0	0	521	739	
3	0	0	0	0	520	739	
4	0	0	0	0	520	739	
5	0	0	0	0	520	739	
6	0	0	0	0	520	739	
7	0	0	0	0	520	739	
8	0	0	0	0	520	739	
9	0	0	0	0	519	739	
10	0	0	0	0	519	739	
11	0	0	0	0	519	739	
12	0	0	0	0	519	739	
13	0	0	0	0	519	739	
14	0	0	0	0	519	739	
15	0	0	0	0	519	739	
0	0	0	0	0	520	739	
1	0	0	0	0	522	739	
2	0	0	0	0	523	739	
3	0	0	0	0	524	739	
4	0	0	0	0	524	739	
5	0	0	0	0	522	739	
6	0	0	0	0	521	739	
7	0	0	0	0	521	739	
8	0	0	0	0	522	739	
9	0	0	0	0	522	739	
10	0	0	0	0	523	739	
11	0	0	0	0	522	739	
12	0	0	0	0	521	739	
13	0	0	0	0	522	739	
14	0	0	0	0	523	739	
15	0	0	0	0	523	739	
0	0	0	0	0	523	739	
1	0	0	0	0	525	739	
2	0	0	0	0	525	739	
3	0	0	0	0	526	739	
4	0	0	0	0	526	739	
5	0	0	0	0	526	739	
6	0	0	0	0	527	739	
7	0	0	0	0	526	739	
8	0	0	0	0	526	739	
9	0	0	0	0	526	739	
10	0	0	0	0	527	739	
11	0	0	0	0	528	739	
12	0	0	0	0	529	739	
13	0	0	0	0	529	739	
14	0	0	0	0	529	739	
15	0	0	0	0	529	739	
0	0	0	0	0	530	739	
1	0	0	0	0	531	739	
2	0	0	0	0	532	739	
3	0	0	0	0	532	739	
4	0	0	0	0	534	739	
5	0	0	0	0	533	739	
6	0	0	0	0	533	739	
7	0	0	0	0	533	739	
8	0	0	0	0	533	739	
9	0	0	0	0	535	739	
10	0	0	0	0	536	739	
11	0	0	0	0	537	739	
12	0	0	0	0	538	739	
13	0	0	0	0	538	739	
14	0	0	0	0	538	739	
15	0	0	0	0	538	739	
0	0	0	0	0	537	739	
1	0	0	0	0	537	739	
2	0	0	0	0	536	738	
3	0	0	0	0	536	739	
4	0	0	0	0	536	739	
5	0	0	0	0	536	739	
6	0	0	0	0	537	739	
7	0	0	0	0	537	739	
8	0	0	0	0	536	739	
9	0	0	0	0	536	739	
10	0	0	0	0	535	739	
11	0	0	0	0	535	739	
12	0	0	0	0	535	739	
13	0	0	0	0	536	739	
14	0	0	0	0	536	739	
15	0	0	0	0	536	739	
0	0	0	0	0	536	739	
1	0	0	0	0	536	738	
2	0	0	0	0	537	739	
3	0	0	0	0	537	739	
4	0	0	0	0	537	739	
5	0	0	0	0	537	739	
6	0	0	0	0	537	739	
7	0	0	0	0	537	739	
8	0	0	0	0	538	739	
9	0	0	0	0	537	739	
10	0	0	0	0	538	739	
11	0	0	0	0	537	738	
12	0	0	0	0	538	739	
13	0	0	0	0	539	739	
14	0	0	0	0	539	739	
15	0	0	0	0	540	739	
0	0	0	0	0	539	739	
1	0	0	0	0	540	739	
2	0	0	0	0	538	739	
3	0	0	0	0	537	739	
4	0	0	0	0	538	739	
5	0	0	0	0	539	739	
6	0	0	0	0	539	739	
7	0	0	0	0	537	739	
8	0	0	0	0	536	739	
9	0	0	0	0	536	739	
10	0	0	0	0	536	739	
11	0	0	0	0	536	739	
12	0	0	0	0	533	738	
13	0	0	0	0	532	739	
14	0	0	0	0	531	739	
15	0	0	0	0	531	739	
0	0	0	0	0	531	739	
1	0	0	0	0	531	739	
2	0	0	0	0	529	739	
3	0	0	0	0	528	739	
4	0	0	0	0	528	738	
5	0	0	0	0	527	738	
6	0	0	0	0	527	738	
7	0	0	0	0	526	739	
8	0	0	0	0	524	739	
9	0	0	0	0	523	738	
10	0	0	0	0	522	739	
11	0	0	0	0	520	738	
12	0	0	0	0	519	739	
13	0	0	0	0	518	738	
14	0	0	0	0	516	738	
15	0	0	0	0	517	739	
0	0	0	0	0	517	739	
1	0	0	0	0	516	739	
2	0	0	0	0	517	739	
3	0	0	0	0	516	738	
4	0	0	0	0	516	738	
5	0	0	0	0	514	738	
6	0	0	0	0	514	739	
7	0	0	0	0	514	739	
8	0	0	0	0	512	738	
9	0	0	0	0	512	738	
10	0	0	0	0	512	739	
11	0	0	0	0	512	738	
12	0	0	0	0	512	738	
13	0	0	0	0	512	738	
14	0	0	0	0	512	739	
15	0	0	0	0	513	738	
0	0	0	0	0	512	738	
1	0	0	0	0	513	738	
2	0	0	0	0	512	738	
3	0	0	0	0	513	739	
4	0	0	0	0	513	739	
5	0	0	0	0	512	738	
6	0	0	0	0	512	738	
7	0	0	0	0	512	739	
8	0	0	0	0	513	738	
9	0	0	0	0	514	738	
10	0	0	0	0	514	738	
11	0	0	0	0	514	739	
12	0	0	0	0	514	738	
13	0	0	0	0	513	739	
14	0	0	0	0	514	738	
15	0	0	0	0	514	738	
0	0	0	0	0	514	738	
1	0	0	0	0	515	738	
2	0	0	0	0	516	738	
3	0	0	0	0	516	738	
4	0	0	0	0	515	739	
5	0	0	0	0	515	738	
6	0	0	0	0	514	738	
7	0	0	0	0	513	739	
8	0	0	0	0	513	738	
9	0	0	0	0	513	738	
10	0	0	0	0	513	738	
11	0	0	0	0	513	738	
12	0	0	0	0	513	739	
13	0	0	0	0	512	738	
14	0	0	0	0	512	738	
15	0	0	0	0	512	738	
0	0	0	0	0	511	738	
1	0	0	0	0	511	738	
2	0	0	0	0	511	738	
3	0	0	0	0	512	738	
4	0	0	0	0	511	738	
5	0	0	0	0	510	738	
6	0	0	0	0	510	738	
7	0	0	0	0	509	738	
8	0	0	0	0	510	738	
9	0	0	0	0	509	738	
10	0	0	0	0	509	738	
11	0	0	0	0	508	739	
12	0	0	0	0	507	738	
13	0	0	0	0	506	738	
14	0	0	0	0	505	738	
15	0	0	0	0	506	738	
0	0	0	0	0	508	738	
1	0	0	0	0	509	738	
2	0	0	0	0	510	738	
3	0	0	0	0	511	738	
4	0	0	0	0	510	737	
5	0	0	0	0	510	738	
6	0	0	0	0	510	738	
7	0	0	0	0	512	738	
8	0	0	0	0	513	738	
9	0	0	0	0	513	738	
10	0	0	0	0	513	738	
11	0	0	0	0	513	738	
12	0	0	0	0	513	738	
13	0	0	0	0	514	738	
14	0	0	0	0	513	738	
15	0	0	0	0	513	738	
0	0	0	0	0	513	738	
1	0	0	0	0	514	738	
2	0	0	0	0	515	738	
3	0	0	0	0	516	738	
4	0	0	0	0	516	738	
5	0	0	0	0	516	738	
6	0	0	0	0	518	738	
7	0	0	0	0	518	738	
8	0	0	0	0	518	737	
9	0	0	0	0	517	738	
10	0	0	0	0	516	738	
11	0	0	0	0	515	738	
12	0	0	0	0	516	738	
13	0	0	0	0	517	738	
14	0	0	0	0	517	738	
15	0	0	0	0	516	738	
0	0	0	0	0	517	738	
1	0	0	0	0	518	738	
2	0	0	0	0	518	737	
3	0	0	0	0	518	738	
4	0	0	0	0	518	738	
5	0	0	0	0	517	738	
6	0	0	0	0	516	738	
7	0	0	0	0	515	737	
8	0	0	0	0	515	738	
9	0	0	0	0	513	737	
10	0	0	0	0	514	738	
11	0	0	0	0	514	737	
12	0	0	0	0	515	737	
13	0	0	0	0	515	738	
14	0	0	0	0	515	738	
15	0	0	0	0	514	738	
0	0	0	0	0	515	738	
1	0	0	0	0	515	737	
2	0	0	0	0	516	738	
3	0	0	0	0	517	738	
4	0	0	0	0	517	738	
5	0	0	0	0	518	737	
6	0	0	0	0	516	737	
7	0	0	0	0	515	738	
8	0	0	0	0	515	738	
9	0	0	0	0	515	738	
10	0	0	0	0	516	738	
11	0	0	0	0	517	737	
12	0	0	0	0	516	738	
13	0	0	0	0	516	737	
14	0	0	0	0	516	737	
15	0	0	0	0	516	737	
0	0	0	0	0	517	737	
1	0	0	0	0	518	738	
2	0	0	0	0	517	737	
3	0	0	0	0	518	737	
4	0	0	0	0	518	737	
5	0	0	0	0	517	737	
6	0	0	0	0	517	738	
7	0	0	0	0	517	737	
8	0	0	0	0	517	737	
9	0	0	0	0	517	737	
10	0	0	0	0	516	737	
11	0	0	0	0	516	738	
12	0	0	0	0	516	737	
13	0	0	0	0	516	738	
14	0	0	0	0	517	738	
15	0	0	0	0	516	737	
0	0	0	0	0	516	737	
1	0	0	0	0	515	737	
2	0	0	0	0	515	738	
3	0	0	0	0	515	737	
4	0	0	0	0	514	737	
5	0	0	0	0	515	738	
6	0	0	0	0	515	737	
7	0	0	0	0	515	737	
8	0	0	0	0	515	737	
9	0	0	0	0	515	737	
10	0	0	0	0	516	738	
11	0	0	0	0	516	737	
12	0	0	0	0	517	737	
13	0	0	0	0	517	737	
14	0	0	0	0	517	737	
15	0	0	0	0	517	738	
0	0	0	0	0	515	737	
1	0	0	0	0	514	737	
2	0	0	0	0	514	737	
3	0	0	0	0	513	737	
4	0	0	0	0	512	737	
5	0	0	0	0	512	737	
6	0	0	0	0	513	737	
7	0	0	0	0	513	737	
8	0	0	0	0	512	737	
9	0	0	0	0	511	737	
10	0	0	0	0	511	737	
11	0	0	0	0	511	737	
12	0	0	0	0	512	737	
13	0	0	0	0	511	737	
14	0	0	0	0	511	737	
15	0	0	0	0	510	737	
0	0	0	0	0	511	737	
1	0	0	0	0	512	737	
2	0	0	0	0	512	737	
3	0	0	0	0	512	737	
4	0	0	0	0	511	737	
5	0	0	0	0	511	737	
6	0	0	0	0	511	737	
7	0	0	0	0	512	737	
8	0	0	0	0	512	737	
9	0	0	0	0	512	737	
10	0	0	0	0	512	737	
11	0	0	0	0	512	737	
12	0	0	0	0	512	737	
13	0	0	0	0	512	737	
14	0	0	0	0	512	737	
15	0	0	0	0	511	737	
0	0	0	0	0	511	737	
1	0	0	0	0	511	737	
2	0	0	0	0	511	737	
3	0	0	0	0	510	737	
4	0	0	0	0	509	737	
5	0	0	0	0	508	737	
6	0	0	0	0	508	737	
7	0	0	0	0	508	737	
8	0	0	0	0	508	737	
9	0	0	0	0	508	737	
10	0	0	0	0	508	737	
11	0	0	0	0	508	737	
12	0	0	0	0	509	737	
13	0	0	0	0	509	737	
14	0	0	0	0	509	737	
15	0	0	0	0	509	737	
0	0	0	0	0	509	737	
1	0	0	0	0	508	737	
2	0	0	0	0	508	737	
3	0	0	0	0	508	737	
4	0	0	0	0	508	737	
5	0	0	0	0	507	737	
6	0	0	0	0	508	737	
7	0	0	0	0	509	737	
8	0	0	0	0	510	737	
9	0	0	0	0	511	737	
10	0	0	0	0	512	737	
11	0	0	0	0	512	737	
12	0	0	0	0	513	737	
13	0	0	0	0	512	737	
14	0	0	0	0	511	737	
15	0	0	0	0	511	737	
0	0	0	0	0	512	737	
1	0	0	0	0	514	737	
2	0	0	0	0	515	737	
3	0	0	0	0	518	737	
4	0	0	0	0	519	737	
5	0	0	0	0	520	737	
6	0	0	0	0	519	737	
7	0	0	0	0	521	737	
8	0	0	0	0	522	736	
9	0	0	0	0	523	737	
10	0	0	0	0	525	737	
11	0	0	0	0	526	737	
12	0	0	0	0	526	737	
13	0	0	0	0	526	737	
14	0	0	0	0	526	737	
15	0	0	0	0	527	737	
0	0	0	0	0	528	737	
1	0	0	0	0	529	737	
2	0	0	0	0	529	737	
3	0	0	0	0	528	737	
4	0	0	0	0	529	737	
5	0	0	0	0	529	737	
6	0	0	0	0	529	737	
7	0	0	0	0	529	737	
8	0	0	0	0	529	737	
9	0	0	0	0	529	737	
10	0	0	0	0	529	737	
11	0	0	0	0	529	737	
12	0	0	0	0	531	737	
13	0	0	0	0	532	736	
14	0	0	0	0	533	737	
15	0	0	0	0	532	737	
0	0	0	0	0	532	737	
1	0	0	0	0	531	737	
2	0	0	0	0	531	737	
3	0	0	0	0	531	736	
4	0	0	0	0	531	737	
5	0	0	0	0	531	737	
6	0	0	0	0	530	737	
7	0	0	0	0	528	736	
8	0	0	0	0	527	737	
9	0	0	0	0	526	737	
10	0	0	0	0	526	737	
11	0	0	0	0	525	737	
12	0	0	0	0	524	736	
13	0	0	0	0	523	737	
14	0	0	0	0	521	736	
15	0	0	0	0	521	737	
0	0	0	0	0	521	737	
1	0	0	0	0	521	736	
2	0	0	0	0	521	737	
3	0	0	0	0	520	736	
4	0	0	0	0	519	737	
5	0	0	0	0	518	736	
6	0	0	0	0	517	737	
7	0	0	0	0	518	737	
8	0	0	0	0	517	737	
9	0	0	0	0	516	736	
10	0	0	0	0	516	736	
11	0	0	0	0	517	736	
12	0	0	0	0	517	736	
13	0	0	0	0	517	736	
14	0	0	0	0	516	737	
15	0	0	0	0	515	736	
0	0	0	0	0	515	736	
1	0	0	0	0	516	736	
2	0	0	0	0	516	737	
3	0	0	0	0	517	737	
4	0	0	0	0	517	736	
5	0	0	0	0	517	737	
6	0	0	0	0	517	736	
7	0	0	0	0	515	736	
8	0	0	0	0	515	737	
9	0	0	0	0	514	736	
10	0	0	0	0	513	736	
11	0	0	0	0	513	737	
12	0	0	0	0	513	736	
13	0	0	0	0	513	736	
14	0	0	0	0	513	737	
15	0	0	0	0	513	736	
0	0	0	0	0	514	737	
1	0	0	0	0	514	737	
2	0	0	0	0	514	736	
3	0	0	0	0	514	736	
4	0	0	0	0	514	736	
5	0	0	0	0	514	737	
6	0	0	0	0	514	736	
7	0	0	0	0	514	736	
8	0	0	0	0	514	736	
9	0	0	0	0	513	736	
10	0	0	0	0	513	737	
11	0	0	0	0	512	736	
12	0	0	0	0	511	736	
13	0	0	0	0	511	736	
14	0	0	0	0	511	736	
15	0	0	0	0	511	736	
0	0	0	0	0	511	736	
1	0	0	0	0	512	736	
2	0	0	0	0	512	736	
3	0	0	0	0	510	736	
4	0	0	0	0	510	736	
5	0	0	0	0	510	736	
6	0	0	0	0	510	736	
7	0	0	0	0	510	736	
8	0	0	0	0	509	736	
9	0	0	0	0	509	736	
10	0	0	0	0	508	736	
11	0	0	0	0	508	736	
12	0	0	0	0	508	736	
13	0	0	0	0	508	736	
14	0	0	0	0	508	736	
15	0	0	0	0	506	736	
0	0	0	0	0	506	736	
1	0	0	0	0	506	736	
2	0	0	0	0	507	736	
3	0	0	0	0	508	736	
4	0	0	0	0	510	736	
5	0	0	0	0	510	736	
6	0	0	0	0	510	736	
7	0	0	0	0	509	736	
8	0	0	0	0	509	737	
9	0	0	0	0	508	736	
10	0	0	0	0	508	736	
11	0	0	0	0	508	736	
12	0	0	0	0	508	736	
13	0	0	0	0	508	736	
14	0	0	0	0	508	736	
15	0	0	0	0	509	736	
0	0	0	0	0	510	736	
1	0	0	0	0	510	736	
2	0	0	0	0	512	736	
3	0	0	0	0	512	736	
4	0	0	0	0	512	736	
5	0	0	0	0	512	736	
6	0	0	0	0	512	736	
7	0	0	0	0	513	736	
8	0	0	0	0	512	736	
9	0	0	0	0	513	736	
10	0	0	0	0	513	736	
11	0	0	0	0	515	736	
12	0	0	0	0	517	736	
13	0	0	0	0	519	736	
14	0	0	0	0	520	736	
15	0	0	0	0	520	736	
0	0	0	0	0	520	736	
1	0	0	0	0	519	736	
2	0	0	0	0	519	736	
3	0	0	0	0	519	736	
4	0	0	0	0	519	736	
5	0	0	0	0	518	736	
6	0	0	0	0	519	736	
7	0	0	0	0	519	736	
8	0	0	0	0	520	736	
9	0	0	0	0	520	736	
10	0	0	0	0	519	736	
11	0	0	0	0	520	736	
12	0	0	0	0	520	736	
13	0	0	0	0	519	736	
14	0	0	0	0	519	736	
15	0	0	0	0	520	736	
0	0	0	0	0	520	736	
1	0	0	0	0	520	736	
2	0	0	0	0	519	736	
3	0	0	0	0	519	736	
4	0	0	0	0	518	736	
5	0	0	0	0	518	736	
6	0	0	0	0	518	736	
7	0	0	0	0	516	736	
8	0	0	0	0	515	736	
9	0	0	0	0	515	736	
10	0	0	0	0	516	736	
11	0	0	0	0	515	736	
12	0	0	0	0	516	736	
13	0	0	0	0	515	736	
14	0	0	0	0	514	736	
15	0	0	0	0	514	736	
0	0	0	0	0	513	736	
1	0	0	0	0	512	736	
2	0	0	0	0	511	736	
3	0	0	0	0	509	736	
4	0	0	0	0	508	736	
5	0	0	0	0	508	736	
6	0	0	0	0	508	736	
7	0	0	0	0	507	736	
8	0	0	0	0	506	736	
9	0	0	0	0	506	736	
10	0	0	0	0	504	736	
11	0	0	0	0	503	736	
12	0	0	0	0	504	736	
13	0	0	0	0	504	736	
14	0	0	0	0	505	736	
15	0	0	0	0	506	736	
0	0	0	0	0	505	736	
1	0	0	0	0	504	736	
2	0	0	0	0	504	736	
3	0	0	0	0	504	736	
4	0	0	0	0	504	736	
5	0	0	0	0	505	736	
6	0	0	0	0	505	736	
7	0	0	0	0	505	736	
8	0	0	0	0	505	736	
9	0	0	0	0	504	736	
10	0	0	0	0	504	736	
11	0	0	0	0	503	736	
12	0	0	0	0	503	736	
13	0	0	0	0	504	736	
14	0	0	0	0	504	736	
15	0	0	0	0	505	736	
0	0	0	0	0	505	736	
1	0	0	0	0	506	736	
2	0	0	0	0	507	736	
3	0	0	0	0	507	736	
4	0	0	0	0	507	736	
5	0	0	0	0	508	736	
6	0	0	0	0	508	736	
7	0	0	0	0	507	736	
8	0	0	0	0	507	736	
9	0	0	0	0	508	736	
10	0	0	0	0	509	736	
11	0	0	0	0	510	736	
12	0	0	0	0	509	736	
13	0	0	0	0	510	736	
14	0	0	0	0	511	736	
15	0	0	0	0	511	736	
0	0	0	0	0	510	736	
1	0	0	0	0	511	736	
2	0	0	0	0	512	736	
3	0	0	0	0	513	736	
4	0	0	0	0	515	736	
5	0	0	0	0	515	736	
6	0	0	0	0	515	736	
7	0	0	0	0	515	736	
8	0	0	0	0	515	736	
9	0	0	0	0	515	736	
10	0	0	0	0	515	736	
11	0	0	0	0	516	736	
12	0	0	0	0	516	736	
13	0	0	0	0	515	736	
14	0	0	0	0	515	736	
15	0	0	0	0	516	736	
0	0	0	0	0	519	736	
1	0	0	0	0	519	736	
2	0	0	0	0	519	736	
3	0	0	0	0	519	736	
4	0	0	0	0	518	736	
5	0	0	0	0	516	736	
6	0	0	0	0	515	736	
7	0	0	0	0	515	736	
8	0	0	0	0	515	736	
9	0	0	0	0	514	736	
10	0	0	0	0	514	736	
11	0	0	0	0	513	736	
12	0	0	0	0	512	736	
13	0	0	0	0	512	736	
14	0	0	0	0	512	736	
15	0	0	0	0	512	736	
0	0	0	0	0	511	736	
1	0	0	0	0	511	736	
2	0	0	0	0	510	736	
3	0	0	0	0	510	736	
4	0	0	0	0	510	736	
5	0	0	0	0	511	736	
6	0	0	0	0	511	736	
7	0	0	0	0	512	736	
8	0	0	0	0	512	736	
9	0	0	0	0	513	736	
10	0	0	0	0	513	736	
11	0	0	0	0	512	736	
12	0	0	0	0	512	736	
13	0	0	0	0	511	736	
14	0	0	0	0	511	736	
15	0	0	0	0	509	736	
0	0	0	0	0	508	736	
1	0	0	0	0	508	736	
2	0	0	0	0	508	736	
3	0	0	0	0	507	736	
4	0	0	0	0	505	736	
5	0	0	0	0	503	736	
6	0	0	0	0	502	736	
7	0	0	0	0	501	736	
8	0	0	0	0	502	736	
9	0	0	0	0	502	736	
10	0	0	0	0	503	736	
11	0	0	0	0	502	736	
12	0	0	0	0	502	736	
13	0	0	0	0	502	736	
14	0	0	0	0	502	736	
15	0	0	0	0	500	736	
0	0	0	0	0	499	736	
1	0	0	0	0	498	735	
2	0	0	0	0	497	736	
3	0	0	0	0	496	735	
4	0	0	0	0	495	736	
5	0	0	0	0	494	736	
6	0	0	0	0	494	736	
7	0	0	0	0	493	736	
8	0	0	0	0	491	736	
9	0	0	0	0	491	736	
10	0	0	0	0	489	736	
11	0	0	0	0	488	735	
12	0	0	0	0	487	736	
13	0	0	0	0	487	736	
14	0	0	0	0	486	736	
15	0	0	0	0	487	736	
0	0	0	0	0	486	736	
1	0	0	0	0	486	736	
2	0	0	0	0	486	736	
3	0	0	0	0	486	736	
4	0	0	0	0	486	736	
5	0	0	0	0	485	736	
6	0	0	0	0	485	736	
7	0	0	0	0	485	736	
8	0	0	0	0	486	736	
9	0	0	0	0	486	736	
10	0	0	0	0	486	735	
11	0	0	0	0	486	736	
12	0	0	0	0	486	736	
13	0	0	0	0	486	736	
14	0	0	0	0	487	736	
15	0	0	0	0	486	736	
0	0	0	0	0	485	736	
1	0	0	0	0	484	736	
2	0	0	0	0	485	736	
3	0	0	0	0	485	736	
4	0	0	0	0	484	736	
5	0	0	0	0	484	736	
6	0	0	0	0	484	736	
7	0	0	0	0	483	736	
8	0	0	0	0	482	736	
9	0	0	0	0	482	735	
10	0	0	0	0	483	736	
11	0	0	0	0	483	736	
12	0	0	0	0	482	736	
13	0	0	0	0	482	736	
14	0	0	0	0	482	736	
15	0	0	0	0	481	736	
0	0	0	0	0	481	736	
1	0	0	0	0	482	736	
2	0	0	0	0	483	736	
3	0	0	0	0	483	735	
4	0	0	0	0	484	736	
5	0	0	0	0	485	735	
6	0	0	0	0	486	736	
7	0	0	0	0	485	736	
8	0	0	0	0	484	735	
9	0	0	0	0	485	736	
10	0	0	0	0	486	736	
11	0	0	0	0	487	736	
12	0	0	0	0	487	736	
13	0	0	0	0	488	735	
14	0	0	0	0	488	736	
15	0	0	0	0	489	736	
0	0	0	0	0	491	735	
1	0	0	0	0	492	736	
2	0	0	0	0	492	735	
3	0	0	0	0	494	736	
4	0	0	0	0	494	736	
5	0	0	0	0	495	736	
6	0	0	0	0	496	736	
7	0	0	0	0	498	736	
8	0	0	0	0	499	736	
9	0	0	0	0	500	735	
10	0	0	0	0	501	735	
11	0	0	0	0	501	736	
12	0	0	0	0	502	735	
13	0	0	0	0	503	736	
14	0	0	0	0	504	736	
15	0	0	0	0	504	736	
0	0	0	0	0	506	735	
1	0	0	0	0	507	735	
2	0	0	0	0	508	736	
3	0	0	0	0	509	735	
4	0	0	0	0	511	736	
5	0	0	0	0	511	735	
6	0	0	0	0	512	735	
7	0	0	0	0	512	735	
8	0	0	0	0	513	735	
9	0	0	0	0	513	736	
10	0	0	0	0	514	735	
11	0	0	0	0	514	735	
12	0	0	0	0	515	735	
13	0	0	0	0	517	735	
14	0	0	0	0	519	736	
15	0	0	0	0	519	735	
0	0	0	0	0	519	735	
1	0	0	0	0	520	736	
2	0	0	0	0	521	735	
3	0	0	0	0	521	735	
4	0	0	0	0	522	736	
5	0	0	0	0	521	735	
6	0	0	0	0	521	736	
7	0	0	0	0	520	736	
8	0	0	0	0	520	735	
9	0	0	0	0	519	736	
10	0	0	0	0	519	735	
11	0	0	0	0	518	736	
12	0	0	0	0	516	735	
13	0	0	0	0	515	735	
14	0	0	0	0	516	736	
15	0	0	0	0	516	735	
0	0	0	0	0	518	735	
1	0	0	0	0	518	735	
2	0	0	0	0	518	735	
3	0	0	0	0	518	736	
4	0	0	0	0	516	735	
5	0	0	0	0	517	736	
6	0	0	0	0	518	735	
7	0	0	0	0	518	736	
8	0	0	0	0	519	735	
9	0	0	0	0	519	735	
10	0	0	0	0	521	736	
11	0	0	0	0	521	735	
12	0	0	0	0	521	735	
13	0	0	0	0	521	735	
14	0	0	0	0	522	735	
15	0	0	0	0	522	735	
0	0	0	0	0	522	735	
1	0	0	0	0	522	735	
2	0	0	0	0	522	735	
3	0	0	0	0	522	735	
4	0	0	0	0	523	735	
5	0	0	0	0	524	736	
6	0	0	0	0	526	736	
7	0	0	0	0	527	735	
8	0	0	0	0	528	735	
9	0	0	0	0	528	735	
10	0	0	0	0	529	735	
11	0	0	0	0	528	735	
12	0	0	0	0	528	735	
13	0	0	0	0	528	735	
14	0	0	0	0	528	735	
15	0	0	0	0	528	736	
0	0	0	0	0	527	736	
1	0	0	0	0	528	736	
2	0	0	0	0	528	735	
3	0	0	0	0	531	736	
4	0	0	0	0	533	735	
5	0	0	0	0	536	735	
6	0	0	0	0	538	735	
7	0	0	0	0	541	735	
8	0	0	0	0	545	736	
9	0	0	0	0	550	735	
10	0	0	0	0	553	735	
11	0	0	0	0	557	735	
12	0	0	0	0	561	735	
13	0	0	0	0	565	735	
14	0	0	0	0	568	735	
15	0	0	0	0	572	735	
0	0	0	0	0	575	735	
1	0	0	0	0	577	735	
2	0	0	0	0	578	735	
3	0	0	0	0	578	735	
4	0	0	0	0	576	735	
5	0	0	0	0	574	735	
6	0	0	0	0	572	735	
7	0	0	0	0	569	736	
8	0	0	0	0	565	735	
9	0	0	0	0	559	735	
10	0	0	0	0	553	735	
11	0	0	0	0	546	735	
12	0	0	0	0	540	736	
13	0	0	0	0	534	735	
14	0	0	0	0	527	735	
15	0	0	0	0	522	736	
0	0	0	0	0	515	735	
1	0	0	0	0	508	735	
2	0	0	0	0	502	735	
3	0	0	0	0	497	735	
4	0	0	0	0	492	735	
5	0	0	0	0	487	735	
6	0	0	0	0	483	736	
7	0	0	0	0	479	735	
8	0	0	0	0	473	735	
9	0	0	0	0	466	735	
10	0	0	0	0	460	735	
11	0	0	0	0	455	736	
12	0	0	0	0	447	735	
13	0	0	0	0	441	735	
14	0	0	0	0	437	735	
15	0	0	0	0	434	735	
0	0	0	0	0	435	736	
1	0	0	0	0	437	735	
2	0	0	0	0	440	735	
3	0	0	0	0	443	735	
4	0	0	0	0	446	735	
5	0	0	0	0	450	735	
6	0	0	0	0	455	735	
7	0	0	0	0	460	735	
8	0	0	0	0	465	735	
9	0	0	0	0	469	735	
10	0	0	0	0	474	735	
11	0	0	0	0	479	735	
12	0	0	0	0	483	735	
13	0	0	0	0	487	735	
14	0	0	0	0	491	735	
15	0	0	0	0	495	736	
0	0	0	0	0	497	735	
1	0	0	0	0	501	735	
2	0	0	0	0	505	735	
3	0	0	0	0	509	735	
4	0	0	0	0	512	735	
5	0	0	0	0	515	735	
6	0	0	0	0	517	735	
7	0	0	0	0	519	735	
8	0	0	0	0	519	735	
9	0	0	0	0	520	736	
10	0	0	0	0	521	735	
11	0	0	0	0	524	735	
12	0	0	0	0	526	735	
13	0	0	0	0	527	735	
14	0	0	0	0	526	735	
15	0	0	0	0	526	735	
0	0	0	0	0	527	735	
1	0	0	0	0	528	735	
2	0	0	0	0	529	735	
3	0	0	0	0	529	735	
4	0	0	0	0	529	735	
5	0	0	0	0	528	735	
6	0	0	0	0	528	735	
7	0	0	0	0	528	735	
8	0	0	0	0	529	735	
9	0	0	0	0	529	735	
10	0	0	0	0	531	735	
11	0	0	0	0	532	735	
12	0	0	0	0	532	735	
13	0	0	0	0	534	735	
14	0	0	0	0	534	735	
15	0	0	0	0	535	735	
0	0	0	0	0	536	735	
1	0	0	0	0	535	735	
2	0	0	0	0	535	735	
3	0	0	0	0	535	735	
4	0	0	0	0	534	735	
5	0	0	0	0	532	735	
6	0	0	0	0	531	735	
7	0	0	0	0	531	735	
8	0	0	0	0	531	735	
9	0	0	0	0	531	735	
10	0	0	0	0	531	735	
11	0	0	0	0	531	735	
12	0	0	0	0	530	736	
13	0	0	0	0	529	735	
14	0	0	0	0	529	735	
15	0	0	0	0	528	735	
0	0	0	0	0	527	735	
1	0	0	0	0	527	735	
2	0	0	0	0	526	735	
3	0	0	0	0	527	735	
4	0	0	0	0	527	735	
5	0	0	0	0	527	735	
6	0	0	0	0	527	735	
7	0	0	0	0	527	735	
8	0	0	0	0	527	735	
9	0	0	0	0	526	735	
10	0	0	0	0	525	735	
11	0	0	0	0	526	735	
12	0	0	0	0	525	735	
13	0	0	0	0	524	735	
14	0	0	0	0	524	735	
15	0	0	0	0	524	735	
0	0	0	0	0	524	735	
1	0	0	0	0	524	735	
2	0	0	0	0	524	735	
3	0	0	0	0	523	735	
4	0	0	0	0	521	735	
5	0	0	0	0	520	735	
6	0	0	0	0	520	735	
7	0	0	0	0	521	735	
8	0	0	0	0	521	735	
9	0	0	0	0	521	735	
10	0	0	0	0	521	735	
11	0	0	0	0	520	735	
12	0	0	0	0	519	735	
13	0	0	0	0	518	735	
14	0	0	0	0	517	735	
15	0	0	0	0	516	735	
0	0	0	0	0	516	735	
1	0	0	0	0	516	735	
2	0	0	0	0	516	735	
3	0	0	0	0	515	735	
4	0	0	0	0	516	735	
5	0	0	0	0	516	735	
6	0	0	0	0	516	735	
7	0	0	0	0	516	735	
8	0	0	0	0	515	735	
9	0	0	0	0	516	735	
10	0	0	0	0	515	735	
11	0	0	0	0	515	735	
12	0	0	0	0	514	735	
13	0	0	0	0	513	735	
14	0	0	0	0	514	735	
15	0	0	0	0	514	735	
0	0	0	0	0	514	735	
1	0	0	0	0	514	735	
2	0	0	0	0	515	735	
3	0	0	0	0	515	735	
4	0	0	0	0	515	735	
5	0	0	0	0	514	735	
6	0	0	0	0	512	735	
7	0	0	0	0	510	735	
8	0	0	0	0	510	735	
9	0	0	0	0	509	735	
10	0	0	0	0	509	735	
11	0	0	0	0	509	735	
12	0	0	0	0	509	735	
13	0	0	0	0	511	735	
14	0	0	0	0	511	735	
15	0	0	0	0	511	735	
0	0	0	0	0	510	735	
1	0	0	0	0	509	735	
2	0	0	0	0	508	735	
3	0	0	0	0	508	735	
4	0	0	0	0	507	735	
5	0	0	0	0	507	735	
6	0	0	0	0	506	735	
7	0	0	0	0	506	735	
8	0	0	0	0	506	735	
9	0	0	0	0	507	735	
10	0	0	0	0	506	735	
11	0	0	0	0	506	735	
12	0	0	0	0	507	735	
13	0	0	0	0	507	735	
14	0	0	0	0	506	735	
15	0	0	0	0	506	735	
0	0	0	0	0	506	735	
1	0	0	0	0	507	735	
2	0	0	0	0	508	735	
3	0	0	0	0	510	735	
4	0	0	0	0	511	735	
5	0	0	0	0	511	735	
6	0	0	0	0	512	735	
7	0	0	0	0	512	735	
8	0	0	0	0	513	735	
9	0	0	0	0	513	735	
10	0	0	0	0	514	735	
11	0	0	0	0	516	735	
12	0	0	0	0	517	735	
13	0	0	0	0	518	735	
14	0	0	0	0	519	735	
15	0	0	0	0	520	735	
0	0	0	0	0	523	735	
1	0	0	0	0	524	735	
2	0	0	0	0	525	735	
3	0	0	0	0	525	735	
4	0	0	0	0	526	735	
5	0	0	0	0	525	735	
6	0	0	0	0	525	735	
7	0	0	0	0	526	735	
8	0	0	0	0	528	735	
9	0	0	0	0	529	735	
10	0	0	0	0	531	735	
11	0	0	0	0	531	735	
12	0	0	0	0	531	735	
13	0	0	0	0	531	735	
14	0	0	0	0	531	735	
15	0	0	0	0	531	735	
0	0	0	0	0	531	735	
1	0	0	0	0	531	735	
2	0	0	0	0	531	735	
3	0	0	0	0	530	735	
4	0	0	0	0	530	735	
5	0	0	0	0	529	735	
6	0	0	0	0	529	735	
7	0	0	0	0	529	735	
8	0	0	0	0	529	735	
9	0	0	0	0	530	735	
10	0	0	0	0	532	735	
11	0	0	0	0	532	735	
12	0	0	0	0	533	735	
13	0	0	0	0	532	735	
14	0	0	0	0	533	735	
15	0	0	0	0	533	735	
0	0	0	0	0	532	735	
1	0	0	0	0	532	735	
2	0	0	0	0	533	735	
3	0	0	0	0	533	735	
4	0	0	0	0	532	735	
5	0	0	0	0	532	735	
6	0	0	0	0	533	735	
7	0	0	0	0	533	735	
8	0	0	0	0	533	735	
9	0	0	0	0	532	735	
10	0	0	0	0	531	735	
11	0	0	0	0	530	735	
12	0	0	0	0	529	735	
13	0	0	0	0	529	735	
14	0	0	0	0	530	735	
15	0	0	0	0	529	735	
0	0	0	0	0	529	735	
1	0	0	0	0	528	735	
2	0	0	0	0	527	735	
3	0	0	0	0	526	735	
4	0	0	0	0	526	735	
5	0	0	0	0	526	735	
6	0	0	0	0	526	735	
7	0	0	0	0	526	735	
8	0	0	0	0	525	735	
9	0	0	0	0	526	735	
10	0	0	0	0	525	735	
11	0	0	0	0	524	735	
12	0	0	0	0	524	735	
13	0	0	0	0	524	735	
14	0	0	0	0	523	735	
15	0	0	0	0	521	735	
0	0	0	0	0	519	735	
1	0	0	0	0	519	735	
2	0	0	0	0	518	735	
3	0	0	0	0	519	735	
4	0	0	0	0	519	735	
5	0	0	0	0	517	735	
6	0	0	0	0	515	735	
7	0	0	0	0	513	735	
8	0	0	0	0	512	735	
9	0	0	0	0	511	735	
10	0	0	0	0	511	734	
11	0	0	0	0	510	735	
12	0	0	0	0	509	735	
13	0	0	0	0	508	735	
14	0	0	0	0	507	735	
15	0	0	0	0	506	735	
0	0	0	0	0	507	735	
1	0	0	0	0	507	735	
2	0	0	0	0	506	735	
3	0	0	0	0	506	735	
4	0	0	0	0	506	735	
5	0	0	0	0	506	735	
6	0	0	0	0	505	735	
7	0	0	0	0	505	735	
8	0	0	0	0	507	735	
9	0	0	0	0	506	735	
10	0	0	0	0	506	735	
11	0	0	0	0	505	735	
12	0	0	0	0	505	735	
13	0	0	0	0	505	735	
14	0	0	0	0	505	735	
15	0	0	0	0	507	735	
0	0	0	0	0	507	735	
1	0	0	0	0	507	735	
2	0	0	0	0	507	735	
3	0	0	0	0	507	735	
4	0	0	0	0	506	735	
5	0	0	0	0	505	735	
6	0	0	0	0	505	735	
7	0	0	0	0	505	735	
8	0	0	0	0	504	735	
9	0	0	0	0	503	735	
10	0	0	0	0	502	735	
11	0	0	0	0	502	735	
12	0	0	0	0	501	735	
13	0	0	0	0	500	735	
14	0	0	0	0	502	735	
15	0	0	0	0	503	735	
0	0	0	0	0	505	735	
1	0	0	0	0	506	735	
2	0	0	0	0	505	735	
3	0	0	0	0	504	735	
4	0	0	0	0	503	735	
5	0	0	0	0	503	735	
6	0	0	0	0	503	735	
7	0	0	0	0	503	735	
8	0	0	0	0	502	735	
9	0	0	0	0	502	735	
10	0	0	0	0	503	735	
11	0	0	0	0	503	735	
12	0	0	0	0	503	735	
13	0	0	0	0	502	735	
14	0	0	0	0	502	735	
15	0	0	0	0	500	735	
0	0	0	0	0	500	735	
1	0	0	0	0	499	735	
2	0	0	0	0	498	735	
3	0	0	0	0	497	735	
4	0	0	0	0	497	735	
5	0	0	0	0	496	735	
6	0	0	0	0	496	735	
7	0	0	0	0	496	735	
8	0	0	0	0	496	735	
9	0	0	0	0	496	735	
10	0	0	0	0	497	735	
11	0	0	0	0	497	735	
12	0	0	0	0	498	735	
13	0	0	0	0	499	735	
14	0	0	0	0	499	735	
15	0	0	0	0	499	735	
0	0	0	0	0	498	735	
1	0	0	0	0	498	735	
2	0	0	0	0	498	735	
3	0	0	0	0	499	735	
4	0	0	0	0	499	735	
5	0	0	0	0	499	735	
6	0	0	0	0	500	735	
7	0	0	0	0	501	735	
8	0	0	0	0	502	735	
9	0	0	0	0	501	735	
10	0	0	0	0	502	735	
11	0	0	0	0	503	735	
12	0	0	0	0	503	735	
13	0	0	0	0	504	735	
14	0	0	0	0	504	735	
15	0	0	0	0	504	734	
0	0	0	0	0	504	735	
1	0	0	0	0	504	735	
2	0	0	0	0	504	735	
3	0	0	0	0	505	735	
4	0	0	0	0	505	734	
5	0	0	0	0	505	735	
6	0	0	0	0	504	735	
7	0	0	0	0	504	735	
8	0	0	0	0	503	735	
9	0	0	0	0	503	734	
10	0	0	0	0	504	735	
11	0	0	0	0	504	735	
12	0	0	0	0	505	735	
13	0	0	0	0	505	735	
14	0	0	0	0	506	735	
15	0	0	0	0	505	735	
0	0	0	0	0	504	734	
1	0	0	0	0	504	735	
2	0	0	0	0	504	735	
3	0	0	0	0	503	734	
4	0	0	0	0	503	735	
5	0	0	0	0	503	735	
6	0	0	0	0	504	735	
7	0	0	0	0	506	735	
8	0	0	0	0	506	735	
9	0	0	0	0	506	735	
10	0	0	0	0	507	735	
11	0	0	0	0	507	735	
12	0	0	0	0	507	735	
13	0	0	0	0	507	735	
14	0	0	0	0	508	735	
15	0	0	0	0	508	735	
0	0	0	0	0	508	735	
1	0	0	0	0	510	735	
2	0	0	0	0	511	735	
3	0	0	0	0	512	735	
4	0	0	0	0	513	734	
5	0	0	0	0	513	734	
6	0	0	0	0	514	735	
7	0	0	0	0	516	735	
8	0	0	0	0	518	735	
9	0	0	0	0	518	734	
10	0	0	0	0	517	735	
11	0	0	0	0	517	734	
12	0	0	0	0	516	734	
13	0	0	0	0	516	734	
14	0	0	0	0	516	735	
15	0	0	0	0	517	734	
0	0	0	0	0	519	735	
1	0	0	0	0	520	734	
2	0	0	0	0	521	735	
3	0	0	0	0	521	735	
4	0	0	0	0	521	735	
5	0	0	0	0	522	735	
6	0	0	0	0	522	735	
7	0	0	0	0	523	735	
8	0	0	0	0	522	735	
9	0	0	0	0	522	735	
10	0	0	0	0	521	735	
11	0	0	0	0	520	734	
12	0	0	0	0	520	735	
13	0	0	0	0	519	735	
14	0	0	0	0	519	734	
15	0	0	0	0	520	735	
0	0	0	0	0	521	735	
1	0	0	0	0	522	735	
2	0	0	0	0	523	735	
3	0	0	0	0	523	735	
4	0	0	0	0	523	735	
5	0	0	0	0	522	735	
6	0	0	0	0	522	735	
7	0	0	0	0	520	735	
8	0	0	0	0	521	735	
9	0	0	0	0	522	735	
10	0	0	0	0	523	735	
11	0	0	0	0	524	734	
12	0	0	0	0	522	735	
13	0	0	0	0	520	735	
14	0	0	0	0	520	735	
15	0	0	0	0	519	734	
0	0	0	0	0	519	735	
1	0	0	0	0	517	735	
2	0	0	0	0	517	735	
3	0	0	0	0	516	735	
4	0	0	0	0	513	734	
5	0	0	0	0	510	735	
6	0	0	0	0	508	735	
7	0	0	0	0	507	735	
8	0	0	0	0	505	735	
9	0	0	0	0	504	735	
10	0	0	0	0	504	735	
11	0	0	0	0	504	735	
12	0	0	0	0	504	734	
13	0	0	0	0	503	735	
14	0	0	0	0	503	734	
15	0	0	0	0	504	735	
0	0	0	0	0	504	734	
1	0	0	0	0	503	735	
2	0	0	0	0	503	735	
3	0	0	0	0	504	734	
4	0	0	0	0	504	735	
5	0	0	0	0	503	735	
6	0	0	0	0	504	735	
7	0	0	0	0	503	735	
8	0	0	0	0	502	734	
9	0	0	0	0	503	735	
10	0	0	0	0	502	734	
11	0	0	0	0	502	735	
12	0	0	0	0	501	735	
13	0	0	0	0	502	734	
14	0	0	0	0	502	734	
15	0	0	0	0	500	735	
0	0	0	0	0	499	734	
1	0	0	0	0	499	735	
2	0	0	0	0	499	734	
3	0	0	0	0	499	735	
4	0	0	0	0	499	735	
5	0	0	0	0	497	734	
6	0	0	0	0	498	734	
7	0	0	0	0	497	734	
8	0	0	0	0	497	735	
9	0	0	0	0	495	735	
10	0	0	0	0	494	735	
11	0	0	0	0	493	735	
12	0	0	0	0	493	734	
13	0	0	0	0	495	735	
14	0	0	0	0	496	735	
15	0	0	0	0	496	735	
0	0	0	0	0	498	734	
1	0	0	0	0	497	734	
2	0	0	0	0	497	735	
3	0	0	0	0	498	735	
4	0	0	0	0	499	735	
5	0	0	0	0	501	735	
6	0	0	0	0	502	734	
7	0	0	0	0	503	734	
8	0	0	0	0	504	735	
9	0	0	0	0	505	735	
10	0	0	0	0	506	734	
11	0	0	0	0	507	734	
12	0	0	0	0	508	735	
13	0	0	0	0	508	735	
14	0	0	0	0	507	735	
15	0	0	0	0	507	734	
0	0	0	0	0	505	734	
1	0	0	0	0	506	735	
2	0	0	0	0	506	734	
3	0	0	0	0	506	734	
4	0	0	0	0	506	734	
5	0	0	0	0	506	734	
6	0	0	0	0	507	735	
7	0	0	0	0	506	734	
8	0	0	0	0	505	735	
9	0	0	0	0	505	735	
10	0	0	0	0	505	734	
11	0	0	0	0	506	735	
12	0	0	0	0	506	735	
13	0	0	0	0	506	735	
14	0	0	0	0	507	734	
15	0	0	0	0	505	734	
0	0	0	0	0	505	734	
1	0	0	0	0	505	735	
2	0	0	0	0	505	735	
3	0	0	0	0	504	734	
4	0	0	0	0	504	734	
5	0	0	0	0	503	735	
6	0	0	0	0	504	734	
7	0	0	0	0	504	735	
8	0	0	0	0	505	734	
9	0	0	0	0	505	734	
10	0	0	0	0	504	735	
11	0	0	0	0	502	735	
12	0	0	0	0	502	735	
13	0	0	0	0	501	735	
14	0	0	0	0	500	734	
15	0	0	0	0	500	735	
0	0	0	0	0	500	734	
1	0	0	0	0	500	735	
2	0	0	0	0	500	734	
3	0	0	0	0	500	734	
4	0	0	0	0	500	735	
5	0	0	0	0	501	735	
6	0	0	0	0	501	735	
7	0	0	0	0	501	734	
8	0	0	0	0	501	734	
9	0	0	0	0	500	735	
10	0	0	0	0	501	734	
11	0	0	0	0	502	735	
12	0	0	0	0	502	734	
13	0	0	0	0	500	734	
14	0	0	0	0	501	735	
15	0	0	0	0	500	734	
0	0	0	0	0	501	734	
1	0	0	0	0	501	734	
2	0	0	0	0	500	734	
3	0	0	0	0	501	735	
4	0	0	0	0	500	734	
5	0	0	0	0	500	735	
6	0	0	0	0	500	734	
7	0	0	0	0	500	734	
8	0	0	0	0	500	735	
9	0	0	0	0	501	734	
10	0	0	0	0	501	735	
11	0	0	0	0	501	735	
12	0	0	0	0	501	734	
13	0	0	0	0	502	734	
14	0	0	0	0	504	735	
15	0	0	0	0	506	734	
0	0	0	0	0	507	734	
1	0	0	0	0	509	734	
2	0	0	0	0	510	735	
3	0	0	0	0	510	734	
4	0	0	0	0	511	735	
5	0	0	0	0	512	735	
6	0	0	0	0	513	734	
7	0	0	0	0	514	735	
8	0	0	0	0	512	735	
9	0	0	0	0	512	734	
10	0	0	0	0	513	734	
11	0	0	0	0	515	734	
12	0	0	0	0	518	734	
13	0	0	0	0	519	734	
14	0	0	0	0	519	735	
15	0	0	0	0	520	734	
0	0	0	0	0	519	734	
1	0	0	0	0	519	735	
2	0	0	0	0	520	734	
3	0	0	0	0	521	734	
4	0	0	0	0	522	734	
5	0	0	0	0	522	734	
6	0	0	0	0	521	735	
7	0	0	0	0	520	734	
8	0	0	0	0	521	735	
9	0	0	0	0	521	735	
10	0	0	0	0	519	734	
11	0	0	0	0	519	735	
12	0	0	0	0	519	734	
13	0	0	0	0	518	734	
14	0	0	0	0	518	735	
15	0	0	0	0	518	734	
0	0	0	0	0	518	735	
1	0	0	0	0	518	734	
2	0	0	0	0	517	734	
3	0	0	0	0	517	735	
4	0	0	0	0	518	734	
5	0	0	0	0	517	735	
6	0	0	0	0	517	734	
7	0	0	0	0	516	734	
8	0	0	0	0	515	734	
9	0	0	0	0	514	734	
10	0	0	0	0	514	735	
11	0	0	0	0	514	734	
12	0	0	0	0	514	735	
13	0	0	0	0	514	734	
14	0	0	0	0	513	734	
15	0	0	0	0	513	734	
0	0	0	0	0	514	734	
1	0	0	0	0	514	734	
2	0	0	0	0	514	734	
3	0	0	0	0	514	734	
4	0	0	0	0	514	734	
5	0	0	0	0	514	734	
6	0	0	0	0	515	734	
7	0	0	0	0	516	734	
8	0	0	0	0	518	734	
9	0	0	0	0	519	734	
10	0	0	0	0	519	734	
11	0	0	0	0	521	734	
12	0	0	0	0	521	734	
13	0	0	0	0	521	734	
14	0	0	0	0	523	735	
15	0	0	0	0	523	735	
0	0	0	0	0	523	734	
1	0	0	0	0	522	734	
2	0	0	0	0	522	734	
3	0	0	0	0	523	734	
4	0	0	0	0	523	734	
5	0	0	0	0	523	734	
6	0	0	0	0	524	734	
7	0	0	0	0	523	734	
8	0	0	0	0	522	735	
9	0	0	0	0	521	734	
10	0	0	0	0	521	734	
11	0	0	0	0	523	734	
12	0	0	0	0	524	734	
13	0	0	0	0	526	734	
14	0	0	0	0	525	734	
15	0	0	0	0	524	734	
0	0	0	0	0	524	734	
1	0	0	0	0	524	734	
2	0	0	0	0	523	734	
3	0	0	0	0	521	734	
4	0	0	0	0	522	734	
5	0	0	0	0	523	734	
6	0	0	0	0	523	734	
7	0	0	0	0	523	735	
8	0	0	0	0	522	734	
9	0	0	0	0	522	734	
10	0	0	0	0	522	734	
11	0	0	0	0	521	734	
12	0	0	0	0	522	734	
13	0	0	0	0	523	734	
14	0	0	0	0	523	734	
15	0	0	0	0	523	734	
0	0	0	0	0	524	734	
1	0	0	0	0	525	734	
2	0	0	0	0	524	734	
3	0	0	0	0	523	734	
4	0	0	0	0	521	734	
5	0	0	0	0	521	734	
6	0	0	0	0	522	735	
7	0	0	0	0	522	734	
8	0	0	0	0	522	734	
9	0	0	0	0	521	734	
10	0	0	0	0	520	734	
11	0	0	0	0	520	735	
12	0	0	0	0	519	734	
13	0	0	0	0	519	734	
14	0	0	0	0	520	734	
15	0	0	0	0	520	734	
0	0	0	0	0	521	734	
1	0	0	0	0	519	734	
2	0	0	0	0	520	734	
3	0	0	0	0	522	734	
4	0	0	0	0	521	734	
5	0	0	0	0	519	734	
6	0	0	0	0	518	734	
7	0	0	0	0	518	734	
8	0	0	0	0	517	734	
9	0	0	0	0	516	734	
10	0	0	0	0	515	735	
11	0	0	0	0	515	734	
12	0	0	0	0	514	734	
13	0	0	0	0	513	734	
14	0	0	0	0	513	734	
15	0	0	0	0	514	734	
0	0	0	0	0	514	734	
1	0	0	0	0	515	734	
2	0	0	0	0	515	734	
3	0	0	0	0	516	734	
4	0	0	0	0	516	734	
5	0	0	0	0	515	734	
6	0	0	0	0	515	734	
7	0	0	0	0	515	734	
8	0	0	0	0	513	734	
9	0	0	0	0	513	734	
10	0	0	0	0	511	734	
11	0	0	0	0	511	734	
12	0	0	0	0	512	734	
13	0	0	0	0	512	734	
14	0	0	0	0	513	734	
15	0	0	0	0	514	734	
0	0	0	0	0	515	734	
1	0	0	0	0	517	734	
2	0	0	0	0	519	734	
3	0	0	0	0	520	734	
4	0	0	0	0	522	734	
5	0	0	0	0	523	734	
6	0	0	0	0	524	734	
7	0	0	0	0	525	734	
8	0	0	0	0	525	734	
9	0	0	0	0	525	734	
10	0	0	0	0	525	734	
11	0	0	0	0	525	734	
12	0	0	0	0	525	734	
13	0	0	0	0	527	734	
14	0	0	0	0	527	734	
15	0	0	0	0	528	734	
0	0	0	0	0	529	734	
1	0	0	0	0	529	734	
2	0	0	0	0	530	734	
3	0	0	0	0	530	734	
4	0	0	0	0	530	734	
5	0	0	0	0	531	734	
6	0	0	0	0	531	734	
7	0	0	0	0	531	734	
8	0	0	0	0	531	734	
9	0	0	0	0	531	734	
10	0	0	0	0	532	734	
11	0	0	0	0	532	734	
12	0	0	0	0	532	734	
13	0	0	0	0	532	734	
14	0	0	0	0	533	734	
15	0	0	0	0	535	734	
0	0	0	0	0	536	734	
1	0	0	0	0	536	734	
2	0	0	0	0	537	734	
3	0	0	0	0	537	734	
4	0	0	0	0	537	734	
5	0	0	0	0	538	734	
6	0	0	0	0	539	734	
7	0	0	0	0	539	734	
8	0	0	0	0	539	734	
9	0	0	0	0	539	734	
10	0	0	0	0	540	734	
11	0	0	0	0	541	734	
12	0	0	0	0	541	734	
13	0	0	0	0	542	734	
14	0	0	0	0	542	734	
15	0	0	0	0	542	734	
0	0	0	0	0	541	734	
1	0	0	0	0	540	734	
2	0	0	0	0	539	734	
3	0	0	0	0	538	734	
4	0	0	0	0	538	734	
5	0	0	0	0	539	734	
6	0	0	0	0	538	734	
7	0	0	0	0	537	734	
8	0	0	0	0	536	734	
9	0	0	0	0	535	734	
10	0	0	0	0	535	734	
11	0	0	0	0	533	734	
12	0	0	0	0	532	734	
13	0	0	0	0	531	734	
14	0	0	0	0	530	734	
15	0	0	0	0	528	734	
0	0	0	0	0	527	734	
1	0	0	0	0	527	734	
2	0	0	0	0	527	734	
3	0	0	0	0	525	734	
4	0	0	0	0	524	734	
5	0	0	0	0	523	734	
6	0	0	0	0	522	734	
7	0	0	0	0	522	734	
8	0	0	0	0	521	734	
9	0	0	0	0	522	734	
10	0	0	0	0	521	734	
11	0	0	0	0	520	734	
12	0	0	0	0	518	734	
13	0	0	0	0	515	734	
14	0	0	0	0	513	734	
15	0	0	0	0	512	734	
0	0	0	0	0	512	734	
1	0	0	0	0	511	734	
2	0	0	0	0	511	734	
3	0	0	0	0	511	733	
4	0	0	0	0	512	734	
5	0	0	0	0	512	734	
6	0	0	0	0	512	734	
7	0	0	0	0	512	734	
8	0	0	0	0	514	734	
9	0	0	0	0	514	734	
10	0	0	0	0	514	734	
11	0	0	0	0	513	734	
12	0	0	0	0	512	734	
13	0	0	0	0	512	734	
14	0	0	0	0	512	734	
15	0	0	0	0	512	734	
0	0	0	0	0	512	734	
1	0	0	0	0	512	734	
2	0	0	0	0	512	734	
3	0	0	0	0	512	734	
4	0	0	0	0	511	734	
5	0	0	0	0	512	734	
6	0	0	0	0	512	734	
7	0	0	0	0	512	734	
8	0	0	0	0	513	734	
9	0	0	0	0	514	734	
10	0	0	0	0	513	734	
11	0	0	0	0	512	733	
12	0	0	0	0	512	734	
13	0	0	0	0	510	734	
14	0	0	0	0	511	734	
15	0	0	0	0	511	734	
0	0	0	0	0	512	733	
1	0	0	0	0	513	734	
2	0	0	0	0	514	734	
3	0	0	0	0	515	734	
4	0	0	0	0	513	734	
5	0	0	0	0	513	734	
6	0	0	0	0	512	734	
7	0	0	0	0	512	734	
8	0	0	0	0	512	734	
9	0	0	0	0	512	734	
10	0	0	0	0	512	734	
11	0	0	0	0	512	734	
12	0	0	0	0	512	734	
13	0	0	0	0	513	734	
14	0	0	0	0	513	734	
15	0	0	0	0	513	734	
0	0	0	0	0	512	734	
1	0	0	0	0	513	734	
2	0	0	0	0	513	734	
3	0	0	0	0	513	734	
4	0	0	0	0	514	734	
5	0	0	0	0	514	734	
6	0	0	0	0	514	734	
7	0	0	0	0	514	734	
8	0	0	0	0	515	734	
9	0	0	0	0	515	734	
10	0	0	0	0	516	734	
11	0	0	0	0	518	734	
12	0	0	0	0	519	734	
13	0	0	0	0	519	734	
14	0	0	0	0	519	734	
15	0	0	0	0	519	734	
0	0	0	0	0	519	734	
1	0	0	0	0	521	734	
2	0	0	0	0	522	734	
3	0	0	0	0	522	734	
4	0	0	0	0	522	734	
5	0	0	0	0	521	734	
6	0	0	0	0	521	734	
7	0	0	0	0	520	734	
8	0	0	0	0	520	733	
9	0	0	0	0	519	734	
10	0	0	0	0	518	734	
11	0	0	0	0	519	734	
12	0	0	0	0	519	734	
13	0	0	0	0	519	734	
14	0	0	0	0	519	734	
15	0	0	0	0	519	734	
0	0	0	0	0	520	734	
1	0	0	0	0	521	734	
2	0	0	0	0	521	733	
3	0	0	0	0	522	734	
4	0	0	0	0	521	734	
5	0	0	0	0	519	734	
6	0	0	0	0	518	734	
7	0	0	0	0	517	734	
8	0	0	0	0	517	734	
9	0	0	0	0	516	733	
10	0	0	0	0	516	734	
11	0	0	0	0	516	733	
12	0	0	0	0	515	733	
13	0	0	0	0	516	734	
14	0	0	0	0	516	734	
15	0	0	0	0	516	734	
0	0	0	0	0	517	734	
1	0	0	0	0	517	733	
2	0	0	0	0	516	734	
3	0	0	0	0	515	734	
4	0	0	0	0	515	734	
5	0	0	0	0	514	734	
6	0	0	0	0	514	733	
7	0	0	0	0	515	734	
8	0	0	0	0	515	734	
9	0	0	0	0	515	734	
10	0	0	0	0	516	733	
11	0	0	0	0	515	733	
12	0	0	0	0	516	734	
13	0	0	0	0	515	734	
14	0	0	0	0	516	734	
15	0	0	0	0	517	733	
0	0	0	0	0	518	733	
1	0	0	0	0	518	733	
2	0	0	0	0	518	734	
3	0	0	0	0	518	734	
4	0	0	0	0	518	734	
5	0	0	0	0	518	733	
6	0	0	0	0	519	734	
7	0	0	0	0	520	734	
8	0	0	0	0	523	734	
9	0	0	0	0	524	734	
10	0	0	0	0	524	734	
11	0	0	0	0	525	734	
12	0	0	0	0	525	734	
13	0	0	0	0	525	734	
14	0	0	0	0	524	734	
15	0	0	0	0	524	733	
0	0	0	0	0	524	734	
1	0	0	0	0	523	733	
2	0	0	0	0	523	734	
3	0	0	0	0	524	734	
4	0	0	0	0	525	733	
5	0	0	0	0	526	734	
6	0	0	0	0	527	733	
7	0	0	0	0	529	733	
8	0	0	0	0	532	734	
9	0	0	0	0	534	733	
10	0	0	0	0	539	734	
11	0	0	0	0	542	733	
12	0	0	0	0	547	734	
13	0	0	0	0	552	734	
14	0	0	0	0	556	733	
15	0	0	0	0	560	734	
0	0	0	0	0	563	734	
1	0	0	0	0	565	734	
2	0	0	0	0	566	734	
3	0	0	0	0	567	733	
4	0	0	0	0	567	734	
5	0	0	0	0	566	733	
6	0	0	0	0	563	734	
7	0	0	0	0	560	733	
8	0	0	0	0	557	733	
9	0	0	0	0	555	734	
10	0	0	0	0	551	734	
11	0	0	0	0	548	734	
12	0	0	0	0	545	734	
13	0	0	0	0	542	733	
14	0	0	0	0	538	734	
15	0	0	0	0	534	734	
0	0	0	0	0	529	734	
1	0	0	0	0	522	733	
2	0	0	0	0	515	733	
3	0	0	0	0	510	734	
4	0	0	0	0	503	734	
5	0	0	0	0	498	734	
6	0	0	0	0	493	734	
7	0	0	0	0	488	733	
8	0	0	0	0	484	734	
9	0	0	0	0	478	733	
10	0	0	0	0	472	734	
11	0	0	0	0	465	734	
12	0	0	0	0	459	733	
13	0	0	0	0	452	734	
14	0	0	0	0	446	733	
15	0	0	0	0	441	734	
0	0	0	0	0	437	733	
1	0	0	0	0	436	733	
2	0	0	0	0	438	734	
3	0	0	0	0	440	734	
4	0	0	0	0	444	734	
5	0	0	0	0	448	733	
6	0	0	0	0	453	733	
7	0	0	0	0	457	734	
8	0	0	0	0	460	733	
9	0	0	0	0	464	734	
10	0	0	0	0	467	734	
11	0	0	0	0	471	733	
12	0	0	0	0	475	734	
13	0	0	0	0	479	733	
14	0	0	0	0	483	733	
15	0	0	0	0	487	733	
0	0	0	0	0	490	733	
1	0	0	0	0	494	734	
2	0	0	0	0	496	734	
3	0	0	0	0	500	734	
4	0	0	0	0	504	733	
5	0	0	0	0	507	733	
6	0	0	0	0	509	734	
7	0	0	0	0	511	734	
8	0	0	0	0	514	733	
9	0	0	0	0	515	733	
10	0	0	0	0	516	733	
11	0	0	0	0	519	734	
12	0	0	0	0	521	733	
13	0	0	0	0	521	733	
14	0	0	0	0	520	733	
15	0	0	0	0	520	733	
0	0	0	0	0	519	734	
1	0	0	0	0	520	733	
2	0	0	0	0	521	734	
3	0	0	0	0	521	734	
4	0	0	0	0	520	733	
5	0	0	0	0	522	734	
6	0	0	0	0	523	733	
7	0	0	0	0	524	733	
8	0	0	0	0	524	733	
9	0	0	0	0	525	733	
10	0	0	0	0	526	734	
11	0	0	0	0	527	733	
12	0	0	0	0	528	734	
13	0	0	0	0	528	734	
14	0	0	0	0	527	733	
15	0	0	0	0	527	734	
0	0	0	0	0	527	733	
1	0	0	0	0	527	733	
2	0	0	0	0	526	733	
3	0	0	0	0	526	733	
4	0	0	0	0	527	733	
5	0	0	0	0	528	733	
6	0	0	0	0	527	734	
7	0	0	0	0	526	734	
8	0	0	0	0	525	733	
9	0	0	0	0	525	733	
10	0	0	0	0	526	733	
11	0	0	0	0	526	733	
12	0	0	0	0	527	734	
13	0	0	0	0	527	733	
14	0	0	0	0	528	733	
15	0	0	0	0	528	733	
0	0	0	0	0	529	733	
1	0	0	0	0	530	733	
2	0	0	0	0	530	733	
3	0	0	0	0	530	734	
4	0	0	0	0	530	733	
5	0	0	0	0	529	733	
6	0	0	0	0	529	733	
7	0	0	0	0	528	733	
8	0	0	0	0	527	734	
9	0	0	0	0	527	733	
10	0	0	0	0	528	733	
11	0	0	0	0	528	733	
12	0	0	0	0	528	733	
13	0	0	0	0	529	733	
14	0	0	0	0	530	733	
15	0	0	0	0	530	733	
0	0	0	0	0	529	733	
1	0	0	0	0	529	733	
2	0	0	0	0	529	733	
3	0	0	0	0	530	733	
4	0	0	0	0	530	733	
5	0	0	0	0	528	733	
6	0	0	0	0	527	733	
7	0	0	0	0	527	733	
8	0	0	0	0	526	733	
9	0	0	0	0	526	733	
10	0	0	0	0	527	733	
11	0	0	0	0	526	733	
12	0	0	0	0	526	733	
13	0	0	0	0	526	733	
14	0	0	0	0	526	733	
15	0	0	0	0	526	734	
0	0	0	0	0	526	733	
1	0	0	0	0	526	733	
2	0	0	0	0	526	733	
3	0	0	0	0	525	733	
4	0	0	0	0	524	733	
5	0	0	0	0	524	733	
6	0	0	0	0	524	734	
7	0	0	0	0	523	733	
8	0	0	0	0	524	733	
9	0	0	0	0	524	733	
10	0	0	0	0	525	733	
11	0	0	0	0	525	734	
12	0	0	0	0	525	733	
13	0	0	0	0	525	733	
14	0	0	0	0	526	733	
15	0	0	0	0	526	733	
0	0	0	0	0	526	733	
1	0	0	0	0	526	733	
2	0	0	0	0	527	733	
3	0	0	0	0	528	733	
4	0	0	0	0	528	733	
5	0	0	0	0	527	734	
6	0	0	0	0	527	733	
7	0	0	0	0	526	733	
8	0	0	0	0	527	733	
9	0	0	0	0	526	733	
10	0	0	0	0	526	733	
11	0	0	0	0	526	733	
12	0	0	0	0	527	733	
13	0	0	0	0	525	733	
14	0	0	0	0	525	733	
15	0	0	0	0	524	733	
0	0	0	0	0	524	733	
1	0	0	0	0	523	733	
2	0	0	0	0	522	733	
3	0	0	0	0	521	733	
4	0	0	0	0	522	733	
5	0	0	0	0	521	733	
6	0	0	0	0	521	733	
7	0	0	0	0	520	733	
8	0	0	0	0	519	733	
9	0	0	0	0	519	733	
10	0	0	0	0	518	733	
11	0	0	0	0	518	733	
12	0	0	0	0	517	733	
13	0	0	0	0	516	733	
14	0	0	0	0	516	733	
15	0	0	0	0	516	733	
0	0	0	0	0	516	733	
1	0	0	0	0	518	733	
2	0	0	0	0	519	733	
3	0	0	0	0	519	733	
4	0	0	0	0	519	733	
5	0	0	0	0	518	733	
6	0	0	0	0	517	733	
7	0	0	0	0	515	733	
8	0	0	0	0	516	734	
9	0	0	0	0	517	733	
10	0	0	0	0	518	733	
11	0	0	0	0	518	733	
12	0	0	0	0	519	733	
13	0	0	0	0	521	734	
14	0	0	0	0	521	733	
15	0	0	0	0	521	733	
0	0	0	0	0	521	733	
1	0	0	0	0	521	733	
2	0	0	0	0	522	733	
3	0	0	0	0	522	733	
4	0	0	0	0	521	733	
5	0	0	0	0	520	733	
6	0	0	0	0	520	733	
7	0	0	0	0	522	733	
8	0	0	0	0	523	733	
9	0	0	0	0	523	733	
10	0	0	0	0	523	733	
11	0	0	0	0	522	733	
12	0	0	0	0	522	733	
13	0	0	0	0	523	733	
14	0	0	0	0	524	733	
15	0	0	0	0	524	733	
0	0	0	0	0	524	733	
1	0	0	0	0	525	733	
2	0	0	0	0	525	733	
3	0	0	0	0	526	733	
4	0	0	0	0	527	733	
5	0	0	0	0	527	733	
6	0	0	0	0	528	733	
7	0	0	0	0	528	733	
8	0	0	0	0	528	733	
9	0	0	0	0	528	733	
10	0	0	0	0	530	733	
11	0	0	0	0	529	733	
12	0	0	0	0	529	733	
13	0	0	0	0	530	733	
14	0	0	0	0	530	733	
15	0	0	0	0	529	733	
0	0	0	0	0	529	733	
1	0	0	0	0	528	733	
2	0	0	0	0	527	733	
3	0	0	0	0	527	733	
4	0	0	0	0	526	732	
5	0	0	0	0	526	733	
6	0	0	0	0	525	733	
7	0	0	0	0	524	733	
8	0	0	0	0	525	733	
9	0	0	0	0	525	733	
10	0	0	0	0	526	733	
11	0	0	0	0	525	733	
12	0	0	0	0	524	733	
13	0	0	0	0	524	733	
14	0	0	0	0	524	733	
15	0	0	0	0	523	733	
0	0	0	0	0	522	733	
1	0	0	0	0	521	733	
2	0	0	0	0	521	733	
3	0	0	0	0	521	733	
4	0	0	0	0	521	733	
5	0	0	0	0	519	733	
6	0	0	0	0	517	733	
7	0	0	0	0	515	733	
8	0	0	0	0	515	733	
9	0	0	0	0	513	733	
10	0	0	0	0	511	733	
11	0	0	0	0	510	733	
12	0	0	0	0	510	733	
13	0	0	0	0	510	733	
14	0	0	0	0	509	733	
15	0	0	0	0	508	733	
0	0	0	0	0	507	733	
1	0	0	0	0	505	733	
2	0	0	0	0	504	732	
3	0	0	0	0	504	733	
4	0	0	0	0	504	733	
5	0	0	0	0	503	733	
6	0	0	0	0	504	733	
7	0	0	0	0	504	733	
8	0	0	0	0	503	733	
9	0	0	0	0	503	732	
10	0	0	0	0	503	733	
11	0	0	0	0	503	733	
12	0	0	0	0	502	733	
13	0	0	0	0	500	733	
14	0	0	0	0	499	733	
15	0	0	0	0	499	733	
0	0	0	0	0	499	733	
1	0	0	0	0	499	733	
2	0	0	0	0	499	733	
3	0	0	0	0	499	733	
4	0	0	0	0	499	733	
5	0	0	0	0	498	733	
6	0	0	0	0	499	732	
7	0	0	0	0	499	733	
8	0	0	0	0	499	733	
9	0	0	0	0	500	733	
10	0	0	0	0	500	733	
11	0	0	0	0	499	732	
12	0	0	0	0	498	733	
13	0	0	0	0	497	733	
14	0	0	0	0	497	733	
15	0	0	0	0	497	733	
0	0	0	0	0	496	733	
1	0	0	0	0	497	733	
2	0	0	0	0	497	733	
3	0	0	0	0	498	733	
4	0	0	0	0	499	733	
5	0	0	0	0	498	732	
6	0	0	0	0	497	733	
7	0	0	0	0	496	733	
8	0	0	0	0	497	733	
9	0	0	0	0	498	733	
10	0	0	0	0	499	732	
11	0	0	0	0	499	733	
12	0	0	0	0	499	733	
13	0	0	0	0	499	733	
14	0	0	0	0	500	733	
15	0	0	0	0	500	733	
0	0	0	0	0	500	732	
1	0	0	0	0	500	733	
2	0	0	0	0	500	733	
3	0	0	0	0	500	733	
4	0	0	0	0	500	732	
5	0	0	0	0	500	733	
6	0	0	0	0	500	733	
7	0	0	0	0	499	733	
8	0	0	0	0	498	733	
9	0	0	0	0	497	733	
10	0	0	0	0	497	733	
11	0	0	0	0	495	732	
12	0	0	0	0	496	733	
13	0	0	0	0	496	733	
14	0	0	0	0	495	732	
15	0	0	0	0	494	733	
0	0	0	0	0	492	733	
1	0	0	0	0	491	733	
2	0	0	0	0	491	732	
3	0	0	0	0	491	733	
4	0	0	0	0	491	733	
5	0	0	0	0	491	733	
6	0	0	0	0	491	733	
7	0	0	0	0	492	733	
8	0	0	0	0	491	732	
9	0	0	0	0	490	733	
10	0	0	0	0	490	732	
11	0	0	0	0	492	733	
12	0	0	0	0	494	732	
13	0	0	0	0	494	732	
14	0	0	0	0	495	733	
15	0	0	0	0	495	733	
0	0	0	0	0	494	733	
1	0	0	0	0	494	733	
2	0	0	0	0	494	732	
3	0	0	0	0	495	733	
4	0	0	0	0	494	732	
5	0	0	0	0	494	732	
6	0	0	0	0	495	733	
7	0	0	0	0	495	732	
8	0	0	0	0	494	733	
9	0	0	0	0	493	733	
10	0	0	0	0	493	733	
11	0	0	0	0	493	732	
12	0	0	0	0	493	732	
13	0	0	0	0	494	733	
14	0	0	0	0	494	732	
15	0	0	0	0	494	732	
0	0	0	0	0	494	733	
1	0	0	0	0	494	732	
2	0	0	0	0	495	733	
3	0	0	0	0	494	732	
4	0	0	0	0	495	733	
5	0	0	0	0	494	732	
6	0	0	0	0	495	732	
7	0	0	0	0	495	733	
8	0	0	0	0	494	732	
9	0	0	0	0	493	732	
10	0	0	0	0	493	733	
11	0	0	0	0	493	732	
12	0	0	0	0	494	733	
13	0	0	0	0	495	733	
14	0	0	0	0	496	733	
15	0	0	0	0	497	732	
0	0	0	0	0	497	732	
1	0	0	0	0	497	733	
2	0	0	0	0	496	732	
3	0	0	0	0	496	732	
4	0	0	0	0	496	732	
5	0	0	0	0	496	732	
6	0	0	0	0	495	733	
7	0	0	0	0	495	732	
8	0	0	0	0	495	732	
9	0	0	0	0	494	732	
10	0	0	0	0	494	732	
11	0	0	0	0	494	733	
12	0	0	0	0	494	732	
13	0	0	0	0	494	732	
14	0	0	0	0	494	732	
15	0	0	0	0	493	732	
0	0	0	0	0	492	733	
1	0	0	0	0	491	732	
2	0	0	0	0	491	732	
3	0	0	0	0	492	732	
4	0	0	0	0	493	732	
5	0	0	0	0	493	732	
6	0	0	0	0	495	732	
7	0	0	0	0	496	732	
8	0	0	0	0	497	732	
9	0	0	0	0	497	732	
10	0	0	0	0	497	732	
11	0	0	0	0	497	732	
12	0	0	0	0	498	732	
13	0	0	0	0	498	732	
14	0	0	0	0	497	732	
15	0	0	0	0	498	732	
0	0	0	0	0	497	732	
1	0	0	0	0	496	732	
2	0	0	0	0	495	732	
3	0	0	0	0	494	732	
4	0	0	0	0	493	733	
5	0	0	0	0	493	732	
6	0	0	0	0	493	732	
7	0	0	0	0	494	732	
8	0	0	0	0	494	732	
9	0	0	0	0	495	732	
10	0	0	0	0	497	732	
11	0	0	0	0	497	732	
12	0	0	0	0	497	732	
13	0	0	0	0	498	732	
14	0	0	0	0	498	732	
15	0	0	0	0	497	732	
0	0	0	0	0	497	732	
1	0	0	0	0	498	732	
2	0	0	0	0	499	732	
3	0	0	0	0	500	732	
4	0	0	0	0	501	732	
5	0	0	0	0	501	732	
6	0	0	0	0	502	732	
7	0	0	0	0	502	732	
8	0	0	0	0	501	732	
9	0	0	0	0	500	732	
10	0	0	0	0	500	732	
11	0	0	0	0	500	732	
12	0	0	0	0	501	732	
13	0	0	0	0	501	732	
14	0	0	0	0	499	732	
15	0	0	0	0	498	732	
0	0	0	0	0	499	732	
1	0	0	0	0	498	732	
2	0	0	0	0	498	732	
3	0	0	0	0	499	732	
4	0	0	0	0	499	732	
5	0	0	0	0	499	732	
6	0	0	0	0	498	732	
7	0	0	0	0	497	732	
8	0	0	0	0	497	732	
9	0	0	0	0	496	732	
10	0	0	0	0	496	732	
11	0	0	0	0	498	732	
12	0	0	0	0	499	732	
13	0	0	0	0	499	732	
14	0	0	0	0	499	732	
15	0	0	0	0	500	732	
0	0	0	0	0	500	732	
1	0	0	0	0	500	732	
2	0	0	0	0	500	732	
3	0	0	0	0	500	732	
4	0	0	0	0	501	732	
5	0	0	0	0	500	732	
6	0	0	0	0	499	732	
7	0	0	0	0	499	732	
8	0	0	0	0	500	732	
9	0	0	0	0	499	732	
10	0	0	0	0	497	732	
11	0	0	0	0	496	732	
12	0	0	0	0	497	732	
13	0	0	0	0	497	732	
14	0	0	0	0	497	732	
15	0	0	0	0	498	732	
0	0	0	0	0	499	732	
1	0	0	0	0	499	732	
2	0	0	0	0	498	732	
3	0	0	0	0	497	732	
4	0	0	0	0	496	732	
5	0	0	0	0	496	732	
6	0	0	0	0	496	732	
7	0	0	0	0	496	732	
8	0	0	0	0	496	732	
9	0	0	0	0	495	732	
10	0	0	0	0	496	732	
11	0	0	0	0	497	732	
12	0	0	0	0	497	732	
13	0	0	0	0	497	732	
14	0	0	0	0	498	732	
15	0	0	0	0	499	732	
0	0	0	0	0	499	732	
1	0	0	0	0	500	732	
2	0	0	0	0	502	732	
3	0	0	0	0	502	732	
4	0	0	0	0	502	732	
5	0	0	0	0	502	732	
6	0	0	0	0	502	732	
7	0	0	0	0	501	732	
8	0	0	0	0	501	732	
9	0	0	0	0	501	732	
10	0	0	0	0	502	732	
11	0	0	0	0	502	732	
12	0	0	0	0	503	732	
13	0	0	0	0	504	732	
14	0	0	0	0	504	732	
15	0	0	0	0	504	732	
0	0	0	0	0	504	732	
1	0	0	0	0	504	732	
2	0	0	0	0	504	732	
3	0	0	0	0	504	732	
4	0	0	0	0	504	732	
5	0	0	0	0	504	732	
6	0	0	0	0	505	732	
7	0	0	0	0	505	732	
8	0	0	0	0	505	732	
9	0	0	0	0	507	732	
10	0	0	0	0	507	732	
11	0	0	0	0	508	732	
12	0	0	0	0	508	732	
13	0	0	0	0	508	732	
14	0	0	0	0	508	732	
15	0	0	0	0	507	732	
0	0	0	0	0	506	732	
1	0	0	0	0	505	732	
2	0	0	0	0	507	732	
3	0	0	0	0	508	732	
4	0	0	0	0	508	732	
5	0	0	0	0	507	732	
6	0	0	0	0	506	732	
7	0	0	0	0	506	732	
8	0	0	0	0	505	732	
9	0	0	0	0	504	732	
10	0	0	0	0	504	732	
11	0	0	0	0	504	732	
12	0	0	0	0	505	732	
13	0	0	0	0	504	732	
14	0	0	0	0	505	732	
15	0	0	0	0	504	732	
0	0	0	0	0	504	732	
1	0	0	0	0	503	732	
2	0	0	0	0	501	732	
3	0	0	0	0	502	732	
4	0	0	0	0	501	732	
5	0	0	0	0	501	732	
6	0	0	0	0	502	732	
7	0	0	0	0	501	732	
8	0	0	0	0	500	732	
9	0	0	0	0	500	732	
10	0	0	0	0	500	732	
11	0	0	0	0	500	732	
12	0	0	0	0	500	732	
13	0	0	0	0	499	732	
14	0	0	0	0	499	732	
15	0	0	0	0	498	732	
0	0	0	0	0	497	732	
1	0	0	0	0	497	732	
2	0	0	0	0	496	732	
3	0	0	0	0	497	732	
4	0	0	0	0	497	732	
5	0	0	0	0	498	732	
6	0	0	0	0	499	732	
7	0	0	0	0	499	732	
8	0	0	0	0	501	732	
9	0	0	0	0	501	732	
10	0	0	0	0	501	732	
11	0	0	0	0	500	732	
12	0	0	0	0	501	732	
13	0	0	0	0	501	732	
14	0	0	0	0	503	732	
15	0	0	0	0	503	732	
0	0	0	0	0	502	732	
1	0	0	0	0	502	732	
2	0	0	0	0	503	732	
3	0	0	0	0	503	732	
4	0	0	0	0	504	732	
5	0	0	0	0	504	732	
6	0	0	0	0	504	732	
7	0	0	0	0	503	732	
8	0	0	0	0	504	732	
9	0	0	0	0	504	732	
10	0	0	0	0	505	732	
11	0	0	0	0	505	732	
12	0	0	0	0	505	732	
13	0	0	0	0	506	732	
14	0	0	0	0	507	732	
15	0	0	0	0	507	732	
0	0	0	0	0	507	732	
1	0	0	0	0	507	732	
2	0	0	0	0	507	732	
3	0	0	0	0	507	732	
4	0	0	0	0	506	732	
5	0	0	0	0	507	732	
6	0	0	0	0	506	732	
7	0	0	0	0	506	732	
8	0	0	0	0	507	732	
9	0	0	0	0	506	732	
10	0	0	0	0	505	732	
11	0	0	0	0	505	732	
12	0	0	0	0	505	732	
13	0	0	0	0	504	732	
14	0	0	0	0	502	732	
15	0	0	0	0	502	732	
0	0	0	0	0	502	732	
1	0	0	0	0	501	731	
2	0	0	0	0	502	732	
3	0	0	0	0	503	732	
4	0	0	0	0	503	732	
5	0	0	0	0	504	732	
6	0	0	0	0	503	731	
7	0	0	0	0	504	732	
8	0	0	0	0	505	732	
9	0	0	0	0	507	732	
10	0	0	0	0	507	732	
11	0	0	0	0	505	732	
12	0	0	0	0	505	732	
13	0	0	0	0	505	732	
14	0	0	0	0	506	732	
15	0	0	0	0	506	732	
0	0	0	0	0	506	731	
1	0	0	0	0	506	732	
2	0	0	0	0	505	732	
3	0	0	0	0	505	732	
4	0	0	0	0	507	732	
5	0	0	0	0	506	731	
6	0	0	0	0	506	732	
7	0	0	0	0	505	732	
8	0	0	0	0	505	732	
9	0	0	0	0	506	732	
10	0	0	0	0	508	731	
11	0	0	0	0	509	732	
12	0	0	0	0	509	732	
13	0	0	0	0	509	732	
14	0	0	0	0	510	732	
15	0	0	0	0	509	732	
0	0	0	0	0	510	732	
1	0	0	0	0	510	731	
2	0	0	0	0	511	732	
3	0	0	0	0	511	732	
4	0	0	0	0	510	731	
5	0	0	0	0	510	732	
6	0	0	0	0	509	732	
7	0	0	0	0	509	732	
8	0	0	0	0	510	731	
9	0	0	0	0	510	732	
10	0	0	0	0	511	732	
11	0	0	0	0	511	731	
12	0	0	0	0	511	732	
13	0	0	0	0	511	732	
14	0	0	0	0	511	731	
15	0	0	0	0	511	732	
0	0	0	0	0	512	731	
1	0	0	0	0	513	732	
2	0	0	0	0	515	731	
3	0	0	0	0	515	731	
4	0	0	0	0	516	732	
5	0	0	0	0	516	732	
6	0	0	0	0	515	731	
7	0	0	0	0	514	731	
8	0	0	0	0	513	731	
9	0	0	0	0	512	732	
10	0	0	0	0	511	731	
11	0	0	0	0	510	732	
12	0	0	0	0	510	731	
13	0	0	0	0	510	731	
14	0	0	0	0	510	732	
15	0	0	0	0	510	731	
0	0	0	0	0	509	731	
1	0	0	0	0	508	731	
2	0	0	0	0	508	731	
3	0	0	0	0	508	732	
4	0	0	0	0	507	732	
5	0	0	0	0	507	731	
6	0	0	0	0	506	731	
7	0	0	0	0	504	731	
8	0	0	0	0	503	732	
9	0	0	0	0	502	731	
10	0	0	0	0	501	731	
11	0	0	0	0	501	731	
12	0	0	0	0	500	731	
13	0	0	0	0	500	732	
14	0	0	0	0	500	731	
15	0	0	0	0	499	731	
0	0	0	0	0	499	731	
1	0	0	0	0	501	731	
2	0	0	0	0	502	732	
3	0	0	0	0	502	731	
4	0	0	0	0	503	731	
5	0	0	0	0	504	731	
6	0	0	0	0	505	731	
7	0	0	0	0	506	732	
8	0	0	0	0	505	731	
9	0	0	0	0	504	731	
10	0	0	0	0	504	731	
11	0	0	0	0	503	731	
12	0	0	0	0	502	732	
13	0	0	0	0	501	731	
14	0	0	0	0	499	731	
15	0	0	0	0	499	731	
0	0	0	0	0	499	731	
1	0	0	0	0	499	732	
2	0	0	0	0	499	731	
3	0	0	0	0	498	731	
4	0	0	0	0	497	731	
5	0	0	0	0	497	731	
6	0	0	0	0	497	731	
7	0	0	0	0	497	731	
8	0	0	0	0	499	731	
9	0	0	0	0	498	731	
10	0	0	0	0	498	731	
11	0	0	0	0	499	732	
12	0	0	0	0	499	732	
13	0	0	0	0	499	731	
14	0	0	0	0	499	731	
15	0	0	0	0	500	731	
0	0	0	0	0	501	731	
1	0	0	0	0	501	731	
2	0	0	0	0	502	731	
3	0	0	0	0	502	731	
4	0	0	0	0	502	731	
5	0	0	0	0	502	732	
6	0	0	0	0	502	731	
7	0	0	0	0	503	731	
8	0	0	0	0	504	731	
9	0	0	0	0	505	731	
10	0	0	0	0	508	732	
11	0	0	0	0	510	731	
12	0	0	0	0	511	731	
13	0	0	0	0	511	731	
14	0	0	0	0	512	731	
15	0	0	0	0	512	732	
0	0	0	0	0	513	731	
1	0	0	0	0	513	731	
2	0	0	0	0	514	731	
3	0	0	0	0	514	731	
4	0	0	0	0	515	732	
5	0	0	0	0	516	731	
6	0	0	0	0	517	731	
7	0	0	0	0	518	731	
8	0	0	0	0	517	731	
9	0	0	0	0	515	731	
10	0	0	0	0	513	731	
11	0	0	0	0	512	731	
12	0	0	0	0	512	731	
13	0	0	0	0	511	731	
14	0	0	0	0	512	731	
15	0	0	0	0	513	731	
0	0	0	0	0	514	731	
1	0	0	0	0	515	731	
2	0	0	0	0	514	731	
3	0	0	0	0	513	731	
4	0	0	0	0	513	731	
5	0	0	0	0	512	731	
6	0	0	0	0	511	731	
7	0	0	0	0	511	731	
8	0	0	0	0	510	731	
9	0	0	0	0	510	731	
10	0	0	0	0	509	731	
11	0	0	0	0	508	731	
12	0	0	0	0	507	731	
13	0	0	0	0	504	731	
14	0	0	0	0	501	731	
15	0	0	0	0	499	731	
0	0	0	0	0	497	731	
1	0	0	0	0	496	731	
2	0	0	0	0	496	731	
3	0	0	0	0	496	731	
4	0	0	0	0	497	731	
5	0	0	0	0	497	731	
6	0	0	0	0	497	731	
7	0	0	0	0	499	731	
8	0	0	0	0	500	731	
9	0	0	0	0	500	731	
10	0	0	0	0	499	731	
11	0	0	0	0	499	731	
12	0	0	0	0	497	731	
13	0	0	0	0	496	731	
14	0	0	0	0	496	731	
15	0	0	0	0	497	731	
0	0	0	0	0	496	731	
1	0	0	0	0	496	731	
2	0	0	0	0	495	731	
3	0	0	0	0	494	731	
4	0	0	0	0	493	731	
5	0	0	0	0	493	731	
6	0	0	0	0	495	731	
7	0	0	0	0	496	731	
8	0	0	0	0	496	731	
9	0	0	0	0	496	731	
10	0	0	0	0	496	731	
11	0	0	0	0	497	731	
12	0	0	0	0	499	731	
13	0	0	0	0	498	731	
14	0	0	0	0	497	731	
15	0	0	0	0	497	731	
0	0	0	0	0	496	731	
1	0	0	0	0	496	731	
2	0	0	0	0	496	731	
3	0	0	0	0	496	731	
4	0	0	0	0	496	730	
5	0	0	0	0	496	731	
6	0	0	0	0	496	731	
7	0	0	0	0	496	731	
8	0	0	0	0	496	731	
9	0	0	0	0	496	731	
10	0	0	0	0	496	731	
11	0	0	0	0	497	731	
12	0	0	0	0	498	731	
13	0	0	0	0	498	731	
14	0	0	0	0	498	731	
15	0	0	0	0	500	731	
0	0	0	0	0	501	731	
1	0	0	0	0	501	731	
2	0	0	0	0	500	731	
3	0	0	0	0	499	731	
4	0	0	0	0	497	731	
5	0	0	0	0	496	731	
6	0	0	0	0	495	731	
7	0	0	0	0	495	731	
8	0	0	0	0	494	731	
9	0	0	0	0	495	731	
10	0	0	0	0	494	731	
11	0	0	0	0	494	731	
12	0	0	0	0	495	731	
13	0	0	0	0	495	730	
14	0	0	0	0	496	731	
15	0	0	0	0	497	731	
0	0	0	0	0	497	731	
1	0	0	0	0	497	731	
2	0	0	0	0	497	730	
3	0	0	0	0	499	731	
4	0	0	0	0	501	731	
5	0	0	0	0	501	731	
6	0	0	0	0	502	731	
7	0	0	0	0	502	731	
8	0	0	0	0	502	731	
9	0	0	0	0	502	730	
10	0	0	0	0	500	731	
11	0	0	0	0	499	731	
12	0	0	0	0	497	730	
13	0	0	0	0	496	731	
14	0	0	0	0	498	731	
15	0	0	0	0	500	730	
0	0	0	0	0	502	730	
1	0	0	0	0	504	730	
2	0	0	0	0	506	731	
3	0	0	0	0	506	731	
4	0	0	0	0	505	731	
5	0	0	0	0	504	731	
6	0	0	0	0	504	730	
7	0	0	0	0	503	731	
8	0	0	0	0	503	731	
9	0	0	0	0	502	731	
10	0	0	0	0	501	731	
11	0	0	0	0	502	730	
12	0	0	0	0	503	731	
13	0	0	0	0	502	730	
14	0	0	0	0	502	731	
15	0	0	0	0	502	731	
0	0	0	0	0	503	730	
1	0	0	0	0	503	731	
2	0	0	0	0	501	730	
3	0	0	0	0	500	730	
4	0	0	0	0	500	731	
5	0	0	0	0	500	730	
6	0	0	0	0	497	730	
7	0	0	0	0	496	730	
8	0	0	0	0	495	731	
9	0	0	0	0	495	731	
10	0	0	0	0	496	730	
11	0	0	0	0	498	730	
12	0	0	0	0	498	730	
13	0	0	0	0	498	731	
14	0	0	0	0	496	731	
15	0	0	0	0	495	730	
0	0	0	0	0	495	731	
1	0	0	0	0	494	731	
2	0	0	0	0	495	731	
3	0	0	0	0	494	731	
4	0	0	0	0	494	730	
5	0	0	0	0	494	731	
6	0	0	0	0	495	731	
7	0	0	0	0	497	730	
8	0	0	0	0	498	731	
9	0	0	0	0	499	730	
10	0	0	0	0	500	731	
11	0	0	0	0	501	731	
12	0	0	0	0	503	730	
13	0	0	0	0	504	730	
14	0	0	0	0	504	730	
15	0	0	0	0	501	730	
0	0	0	0	0	499	730	
1	0	0	0	0	499	730	
2	0	0	0	0	496	731	
3	0	0	0	0	493	730	
4	0	0	0	0	491	730	
5	0	0	0	0	490	731	
6	0	0	0	0	492	731	
7	0	0	0	0	492	731	
8	0	0	0	0	494	730	
9	0	0	0	0	496	730	
10	0	0	0	0	496	730	
11	0	0	0	0	497	730	
12	0	0	0	0	498	730	
13	0	0	0	0	499	730	
14	0	0	0	0	501	730	
15	0	0	0	0	505	730	
0	0	0	0	0	510	730	
1	0	0	0	0	515	730	
2	0	0	0	0	519	730	
3	0	0	0	0	524	730	
4	0	0	0	0	528	730	
5	0	0	0	0	531	730	
6	0	0	0	0	533	730	
7	0	0	0	0	536	730	
8	0	0	0	0	540	731	
9	0	0	0	0	541	730	
10	0	0	0	0	540	730	
11	0	0	0	0	542	730	
12	0	0	0	0	542	730	
13	0	0	0	0	542	731	
14	0	0	0	0	541	730	
15	0	0	0	0	539	730	
0	0	0	0	0	535	730	
1	0	0	0	0	530	730	
2	0	0	0	0	526	731	
3	0	0	0	0	523	730	
4	0	0	0	0	520	731	
5	0	0	0	0	516	730	
6	0	0	0	0	511	730	
7	0	0	0	0	504	730	
8	0	0	0	0	497	730	
9	0	0	0	0	490	730	
10	0	0	0	0	482	731	
11	0	0	0	0	475	730	
12	0	0	0	0	469	730	
13	0	0	0	0	463	730	
14	0	0	0	0	459	731	
15	0	0	0	0	451	730	
0	0	0	0	0	445	730	
1	0	0	0	0	441	731	
2	0	0	0	0	433	730	
3	0	0	0	0	424	730	
4	0	0	0	0	420	730	
5	0	0	0	0	418	730	
6	0	0	0	0	420	731	
7	0	0	0	0	420	730	
8	0	0	0	0	423	730	
9	0	0	0	0	427	730	
10	0	0	0	0	430	730	
11	0	0	0	0	433	731	
12	0	0	0	0	436	730	
13	0	0	0	0	442	730	
14	0	0	0	0	448	730	
15	0	0	0	0	454	730	
0	0	0	0	0	459	730	
1	0	0	0	0	462	730	
2	0	0	0	0	464	730	
3	0	0	0	0	468	730	
4	0	0	0	0	472	730	
5	0	0	0	0	475	730	
6	0	0	0	0	478	730	
7	0	0	0	0	480	730	
8	0	0	0	0	483	730	
9	0	0	0	0	485	730	
10	0	0	0	0	486	731	
11	0	0	0	0	488	730	
12	0	0	0	0	492	730	
13	0	0	0	0	492	730	
14	0	0	0	0	493	730	
15	0	0	0	0	494	730	
0	0	0	0	0	494	730	
1	0	0	0	0	494	730	
2	0	0	0	0	493	730	
3	0	0	0	0	492	730	
4	0	0	0	0	491	730	
5	0	0	0	0	491	730	
6	0	0	0	0	491	730	
7	0	0	0	0	490	730	
8	0	0	0	0	488	730	
9	0	0	0	0	490	730	
10	0	0	0	0	491	730	
11	0	0	0	0	491	730	
12	0	0	0	0	492	730	
13	0	0	0	0	493	730	
14	0	0	0	0	494	730	
15	0	0	0	0	495	730	
0	0	0	0	0	496	730	
1	0	0	0	0	497	730	
2	0	0	0	0	496	730	
3	0	0	0	0	494	730	
4	0	0	0	0	493	730	
5	0	0	0	0	493	730	
6	0	0	0	0	491	730	
7	0	0	0	0	489	729	
8	0	0	0	0	488	730	
9	0	0	0	0	489	730	
10	0	0	0	0	490	730	
11	0	0	0	0	494	730	
12	0	0	0	0	494	729	
13	0	0	0	0	493	730	
14	0	0	0	0	492	730	
15	0	0	0	0	493	730	
0	0	0	0	0	496	730	
1	0	0	0	0	497	729	
2	0	0	0	0	498	730	
3	0	0	0	0	500	730	
4	0	0	0	0	500	730	
5	0	0	0	0	500	730	
6	0	0	0	0	500	729	
7	0	0	0	0	499	730	
8	0	0	0	0	500	730	
9	0	0	0	0	501	730	
10	0	0	0	0	499	730	
11	0	0	0	0	497	729	
12	0	0	0	0	496	730	
13	0	0	0	0	496	730	
14	0	0	0	0	496	730	
15	0	0	0	0	497	730	
0	0	0	0	0	497	730	
1	0	0	0	0	496	730	
2	0	0	0	0	495	730	
3	0	0	0	0	496	730	
4	0	0	0	0	496	730	
5	0	0	0	0	496	729	
6	0	0	0	0	496	730	
7	0	0	0	0	496	730	
8	0	0	0	0	496	730	
9	0	0	0	0	495	730	
10	0	0	0	0	494	729	
11	0	0	0	0	494	730	
12	0	0	0	0	494	730	
13	0	0	0	0	495	729	
14	0	0	0	0	495	730	
15	0	0	0	0	492	729	
0	0	0	0	0	492	730	
1	0	0	0	0	490	730	
2	0	0	0	0	489	730	
3	0	0	0	0	488	730	
4	0	0	0	0	487	729	
5	0	0	0	0	487	730	
6	0	0	0	0	489	730	
7	0	0	0	0	491	730	
8	0	0	0	0	491	730	
9	0	0	0	0	489	729	
10	0	0	0	0	489	730	
11	0	0	0	0	488	730	
12	0	0	0	0	488	730	
13	0	0	0	0	488	729	
14	0	0	0	0	488	729	
15	0	0	0	0	489	730	
0	0	0	0	0	490	730	
1	0	0	0	0	490	730	
2	0	0	0	0	489	730	
3	0	0	0	0	488	729	
4	0	0	0	0	487	730	
5	0	0	0	0	486	729	
6	0	0	0	0	486	730	
7	0	0	0	0	486	730	
8	0	0	0	0	486	729	
9	0	0	0	0	486	730	
10	0	0	0	0	484	730	
11	0	0	0	0	484	729	
12	0	0	0	0	484	729	
13	0	0	0	0	483	729	
14	0	0	0	0	484	729	
15	0	0	0	0	485	729	
0	0	0	0	0	484	729	
1	0	0	0	0	486	729	
2	0	0	0	0	487	729	
3	0	0	0	0	488	730	
4	0	0	0	0	487	729	
5	0	0	0	0	488	729	
6	0	0	0	0	489	729	
7	0	0	0	0	490	729	
8	0	0	0	0	491	730	
9	0	0	0	0	490	729	
10	0	0	0	0	491	729	
11	0	0	0	0	492	729	
12	0	0	0	0	492	729	
13	0	0	0	0	492	729	
14	0	0	0	0	493	730	
15	0	0	0	0	494	729	
0	0	0	0	0	494	729	
1	0	0	0	0	492	729	
2	0	0	0	0	491	730	
3	0	0	0	0	491	729	
4	0	0	0	0	492	729	
5	0	0	0	0	493	729	
6	0	0	0	0	493	729	
7	0	0	0	0	493	730	
8	0	0	0	0	494	729	
9	0	0	0	0	493	729	
10	0	0	0	0	493	729	
11	0	0	0	0	493	729	
12	0	0	0	0	494	729	
13	0	0	0	0	495	729	
14	0	0	0	0	494	729	
15	0	0	0	0	493	729	
0	0	0	0	0	494	729	
1	0	0	0	0	496	729	
2	0	0	0	0	496	729	
3	0	0	0	0	496	729	
4	0	0	0	0	497	729	
5	0	0	0	0	497	729	
6	0	0	0	0	497	729	
7	0	0	0	0	495	729	
8	0	0	0	0	494	729	
9	0	0	0	0	495	729	
10	0	0	0	0	495	729	
11	0	0	0	0	495	729	
12	0	0	0	0	494	729	
13	0	0	0	0	495	729	
14	0	0	0	0	496	729	
15	0	0	0	0	495	729	
0	0	0	0	0	495	729	
1	0	0	0	0	497	729	
2	0	0	0	0	499	729	
3	0	0	0	0	501	729	
4	0	0	0	0	502	729	
5	0	0	0	0	503	729	
6	0	0	0	0	504	729	
7	0	0	0	0	505	729	
8	0	0	0	0	505	729	
9	0	0	0	0	505	729	
10	0	0	0	0	505	729	
11	0	0	0	0	506	729	
12	0	0	0	0	507	729	
13	0	0	0	0	508	729	
14	0	0	0	0	508	729	
15	0	0	0	0	509	729	
0	0	0	0	0	511	729	
1	0	0	0	0	511	729	
2	0	0	0	0	510	729	
3	0	0	0	0	509	729	
4	0	0	0	0	510	729	
5	0	0	0	0	510	729	
6	0	0	0	0	509	729	
7	0	0	0	0	509	729	
8	0	0	0	0	509	729	
9	0	0	0	0	511	729	
10	0	0	0	0	512	729	
11	0	0	0	0	514	729	
12	0	0	0	0	514	729	
13	0	0	0	0	512	729	
14	0	0	0	0	513	729	
15	0	0	0	0	514	729	
0	0	0	0	0	513	729	
1	0	0	0	0	513	729	
2	0	0	0	0	513	728	
3	0	0	0	0	514	729	
4	0	0	0	0	514	729	
5	0	0	0	0	515	729	
6	0	0	0	0	515	729	
7	0	0	0	0	514	729	
8	0	0	0	0	513	729	
9	0	0	0	0	512	729	
10	0	0	0	0	509	729	
11	0	0	0	0	508	729	
12	0	0	0	0	510	729	
13	0	0	0	0	511	729	
14	0	0	0	0	510	729	
15	0	0	0	0	509	729	
0	0	0	0	0	508	729	
1	0	0	0	0	508	729	
2	0	0	0	0	507	729	
3	0	0	0	0	506	729	
4	0	0	0	0	507	729	
5	0	0	0	0	507	729	
6	0	0	0	0	507	728	
7	0	0	0	0	507	729	
8	0	0	0	0	507	729	
9	0	0	0	0	507	729	
10	0	0	0	0	507	729	
11	0	0	0	0	508	729	
12	0	0	0	0	511	729	
13	0	0	0	0	511	729	
14	0	0	0	0	511	729	
15	0	0	0	0	510	729	
0	0	0	0	0	510	729	
1	0	0	0	0	509	729	
2	0	0	0	0	510	729	
3	0	0	0	0	511	729	
4	0	0	0	0	512	729	
5	0	0	0	0	512	728	
6	0	0	0	0	512	729	
7	0	0	0	0	511	729	
8	0	0	0	0	510	729	
9	0	0	0	0	510	729	
10	0	0	0	0	508	728	
11	0	0	0	0	506	729	
12	0	0	0	0	506	729	
13	0	0	0	0	506	729	
14	0	0	0	0	507	729	
15	0	0	0	0	508	728	
0	0	0	0	0	508	729	
1	0	0	0	0	508	729	
2	0	0	0	0	507	729	
3	0	0	0	0	507	728	
4	0	0	0	0	506	728	
5	0	0	0	0	505	729	
6	0	0	0	0	504	728	
7	0	0	0	0	504	728	
8	0	0	0	0	504	729	
9	0	0	0	0	504	728	
10	0	0	0	0	504	729	
11	0	0	0	0	505	728	
12	0	0	0	0	505	728	
13	0	0	0	0	505	729	
14	0	0	0	0	505	728	
15	0	0	0	0	505	729	
0	0	0	0	0	506	729	
1	0	0	0	0	506	728	
2	0	0	0	0	505	729	
