# OpenSignals Text File Format. Version 1
# {"98:D3:B1:FD:3D:90": {"position": 0, "device": "bitalino_rev", "device name": "98:D3:B1:FD:3D:90", "device connection": "/dev/tty.BITalino-DevB", "sampling rate": 1000, "resolution": [4, 1, 1, 1, 1, 10, 10], "firmware version": 1281, "comments": "", "keywords": "", "mode": 0, "sync interval": 2, "date": "2022-4-9", "time": "9:38:4.192", "channels": [2, 3], "sensor": ["ECGBIT", "EDABITREV"], "label": ["A2", "A3"], "column": ["nSeq", "I1", "I2", "O1", "O2", "A2", "A3"], "special": [{}, {}], "digital IO": [0, 0, 1, 1]}}
# EndOfHeader
0	0	0	0	0	526	146	
1	0	0	0	0	525	145	
2	0	0	0	0	523	146	
3	0	0	0	0	521	146	
4	0	0	0	0	518	147	
5	0	0	0	0	515	146	
6	0	0	0	0	511	146	
7	0	0	0	0	506	147	
8	0	0	0	0	501	147	
9	0	0	0	0	498	146	
10	0	0	0	0	497	147	
11	0	0	0	0	495	147	
12	0	0	0	0	494	146	
13	0	0	0	0	491	147	
14	0	0	0	0	487	147	
15	0	0	0	0	483	146	
0	0	0	0	0	481	147	
1	0	0	0	0	478	147	
2	0	0	0	0	475	146	
3	0	0	0	0	472	146	
4	0	0	0	0	468	147	
5	0	0	0	0	465	146	
6	0	0	0	0	463	146	
7	0	0	0	0	462	147	
8	0	0	0	0	457	147	
9	0	0	0	0	456	146	
10	0	0	0	0	455	146	
11	0	0	0	0	454	147	
12	0	0	0	0	453	147	
13	0	0	0	0	453	146	
14	0	0	0	0	455	146	
15	0	0	0	0	457	147	
0	0	0	0	0	462	147	
1	0	0	0	0	465	147	
2	0	0	0	0	467	146	
3	0	0	0	0	471	147	
4	0	0	0	0	473	147	
5	0	0	0	0	477	146	
6	0	0	0	0	482	146	
7	0	0	0	0	485	147	
8	0	0	0	0	488	146	
9	0	0	0	0	489	146	
10	0	0	0	0	490	147	
11	0	0	0	0	492	147	
12	0	0	0	0	494	147	
13	0	0	0	0	496	146	
14	0	0	0	0	499	146	
15	0	0	0	0	500	147	
0	0	0	0	0	502	146	
1	0	0	0	0	504	146	
2	0	0	0	0	506	146	
3	0	0	0	0	507	146	
4	0	0	0	0	508	146	
5	0	0	0	0	511	146	
6	0	0	0	0	511	146	
7	0	0	0	0	512	145	
8	0	0	0	0	512	146	
9	0	0	0	0	512	146	
10	0	0	0	0	512	146	
11	0	0	0	0	512	145	
12	0	0	0	0	512	146	
13	0	0	0	0	511	147	
14	0	0	0	0	511	145	
15	0	0	0	0	512	146	
0	0	0	0	0	513	146	
1	0	0	0	0	513	146	
2	0	0	0	0	513	145	
3	0	0	0	0	515	146	
4	0	0	0	0	516	146	
5	0	0	0	0	517	146	
6	0	0	0	0	518	145	
7	0	0	0	0	517	146	
8	0	0	0	0	515	146	
9	0	0	0	0	515	146	
10	0	0	0	0	514	145	
11	0	0	0	0	514	146	
12	0	0	0	0	514	147	
13	0	0	0	0	515	145	
14	0	0	0	0	515	146	
15	0	0	0	0	515	146	
0	0	0	0	0	515	146	
1	0	0	0	0	515	145	
2	0	0	0	0	516	146	
3	0	0	0	0	515	147	
4	0	0	0	0	516	145	
5	0	0	0	0	516	145	
6	0	0	0	0	518	146	
7	0	0	0	0	518	146	
8	0	0	0	0	518	145	
9	0	0	0	0	517	146	
10	0	0	0	0	518	146	
11	0	0	0	0	517	145	
12	0	0	0	0	517	146	
13	0	0	0	0	519	146	
14	0	0	0	0	518	145	
15	0	0	0	0	518	145	
0	0	0	0	0	518	146	
1	0	0	0	0	518	146	
2	0	0	0	0	517	145	
3	0	0	0	0	517	145	
4	0	0	0	0	518	146	
5	0	0	0	0	517	146	
6	0	0	0	0	517	146	
7	0	0	0	0	518	145	
8	0	0	0	0	518	145	
9	0	0	0	0	518	146	
10	0	0	0	0	516	146	
11	0	0	0	0	515	145	
12	0	0	0	0	514	146	
13	0	0	0	0	513	146	
14	0	0	0	0	514	146	
15	0	0	0	0	515	145	
0	0	0	0	0	515	145	
1	0	0	0	0	515	146	
2	0	0	0	0	514	146	
3	0	0	0	0	515	145	
4	0	0	0	0	515	146	
5	0	0	0	0	515	146	
6	0	0	0	0	514	146	
7	0	0	0	0	514	145	
8	0	0	0	0	514	146	
9	0	0	0	0	512	146	
10	0	0	0	0	512	146	
11	0	0	0	0	512	145	
12	0	0	0	0	512	146	
13	0	0	0	0	512	146	
14	0	0	0	0	514	147	
15	0	0	0	0	515	145	
0	0	0	0	0	516	146	
1	0	0	0	0	519	146	
2	0	0	0	0	520	146	
3	0	0	0	0	520	146	
4	0	0	0	0	520	145	
5	0	0	0	0	521	146	
6	0	0	0	0	521	146	
7	0	0	0	0	523	145	
8	0	0	0	0	523	146	
9	0	0	0	0	523	146	
10	0	0	0	0	523	146	
11	0	0	0	0	524	145	
12	0	0	0	0	525	145	
13	0	0	0	0	525	146	
14	0	0	0	0	525	146	
15	0	0	0	0	525	145	
0	0	0	0	0	525	146	
1	0	0	0	0	525	146	
2	0	0	0	0	525	145	
3	0	0	0	0	525	146	
4	0	0	0	0	524	146	
5	0	0	0	0	523	145	
6	0	0	0	0	524	146	
7	0	0	0	0	526	146	
8	0	0	0	0	528	145	
9	0	0	0	0	528	146	
10	0	0	0	0	530	146	
11	0	0	0	0	530	146	
12	0	0	0	0	529	145	
13	0	0	0	0	529	146	
14	0	0	0	0	527	146	
15	0	0	0	0	528	145	
0	0	0	0	0	530	146	
1	0	0	0	0	531	146	
2	0	0	0	0	531	145	
3	0	0	0	0	531	146	
4	0	0	0	0	531	146	
5	0	0	0	0	531	145	
6	0	0	0	0	532	145	
7	0	0	0	0	534	146	
8	0	0	0	0	535	146	
9	0	0	0	0	535	145	
10	0	0	0	0	536	145	
11	0	0	0	0	536	146	
12	0	0	0	0	536	146	
13	0	0	0	0	537	145	
14	0	0	0	0	539	145	
15	0	0	0	0	539	146	
0	0	0	0	0	539	146	
1	0	0	0	0	539	145	
2	0	0	0	0	539	146	
3	0	0	0	0	540	146	
4	0	0	0	0	542	145	
5	0	0	0	0	544	145	
6	0	0	0	0	545	146	
7	0	0	0	0	545	146	
8	0	0	0	0	545	146	
9	0	0	0	0	545	145	
10	0	0	0	0	545	145	
11	0	0	0	0	544	146	
12	0	0	0	0	544	145	
13	0	0	0	0	544	145	
14	0	0	0	0	545	146	
15	0	0	0	0	546	146	
0	0	0	0	0	546	145	
1	0	0	0	0	546	145	
2	0	0	0	0	546	146	
3	0	0	0	0	546	146	
4	0	0	0	0	547	145	
5	0	0	0	0	548	145	
6	0	0	0	0	547	146	
7	0	0	0	0	548	145	
8	0	0	0	0	548	145	
9	0	0	0	0	549	146	
10	0	0	0	0	549	145	
11	0	0	0	0	550	145	
12	0	0	0	0	549	146	
13	0	0	0	0	550	146	
14	0	0	0	0	549	145	
15	0	0	0	0	549	146	
0	0	0	0	0	548	146	
1	0	0	0	0	548	146	
2	0	0	0	0	549	145	
3	0	0	0	0	548	146	
4	0	0	0	0	548	146	
5	0	0	0	0	548	145	
6	0	0	0	0	548	145	
7	0	0	0	0	550	146	
8	0	0	0	0	551	145	
9	0	0	0	0	551	145	
10	0	0	0	0	551	145	
11	0	0	0	0	552	146	
12	0	0	0	0	554	146	
13	0	0	0	0	554	146	
14	0	0	0	0	555	144	
15	0	0	0	0	556	146	
0	0	0	0	0	556	146	
1	0	0	0	0	555	145	
2	0	0	0	0	554	146	
3	0	0	0	0	553	146	
4	0	0	0	0	553	145	
5	0	0	0	0	554	146	
6	0	0	0	0	553	146	
7	0	0	0	0	554	145	
8	0	0	0	0	555	145	
9	0	0	0	0	556	146	
10	0	0	0	0	555	144	
11	0	0	0	0	555	145	
12	0	0	0	0	555	146	
13	0	0	0	0	555	145	
14	0	0	0	0	555	145	
15	0	0	0	0	555	146	
0	0	0	0	0	555	145	
1	0	0	0	0	556	145	
2	0	0	0	0	557	146	
3	0	0	0	0	557	145	
4	0	0	0	0	556	145	
5	0	0	0	0	556	146	
6	0	0	0	0	555	145	
7	0	0	0	0	556	145	
8	0	0	0	0	556	145	
9	0	0	0	0	556	146	
10	0	0	0	0	556	145	
11	0	0	0	0	556	146	
12	0	0	0	0	554	145	
13	0	0	0	0	553	144	
14	0	0	0	0	552	145	
15	0	0	0	0	552	146	
0	0	0	0	0	551	145	
1	0	0	0	0	551	145	
2	0	0	0	0	550	146	
3	0	0	0	0	549	145	
4	0	0	0	0	550	145	
5	0	0	0	0	550	146	
6	0	0	0	0	551	146	
7	0	0	0	0	552	145	
8	0	0	0	0	553	145	
9	0	0	0	0	552	146	
10	0	0	0	0	552	144	
11	0	0	0	0	551	145	
12	0	0	0	0	550	146	
13	0	0	0	0	550	144	
14	0	0	0	0	551	145	
15	0	0	0	0	550	146	
0	0	0	0	0	549	144	
1	0	0	0	0	547	145	
2	0	0	0	0	545	145	
3	0	0	0	0	544	146	
4	0	0	0	0	543	146	
5	0	0	0	0	543	145	
6	0	0	0	0	542	145	
7	0	0	0	0	541	146	
8	0	0	0	0	540	146	
9	0	0	0	0	539	145	
10	0	0	0	0	540	145	
11	0	0	0	0	541	146	
12	0	0	0	0	540	146	
13	0	0	0	0	540	144	
14	0	0	0	0	539	145	
15	0	0	0	0	538	146	
0	0	0	0	0	537	145	
1	0	0	0	0	535	145	
2	0	0	0	0	535	145	
3	0	0	0	0	534	146	
4	0	0	0	0	533	145	
5	0	0	0	0	534	145	
6	0	0	0	0	534	146	
7	0	0	0	0	535	145	
8	0	0	0	0	535	145	
9	0	0	0	0	534	145	
10	0	0	0	0	533	145	
11	0	0	0	0	532	145	
12	0	0	0	0	531	145	
13	0	0	0	0	531	145	
14	0	0	0	0	531	146	
15	0	0	0	0	530	145	
0	0	0	0	0	530	145	
1	0	0	0	0	532	145	
2	0	0	0	0	532	145	
3	0	0	0	0	532	145	
4	0	0	0	0	531	146	
5	0	0	0	0	531	146	
6	0	0	0	0	530	145	
7	0	0	0	0	530	145	
8	0	0	0	0	529	145	
9	0	0	0	0	529	146	
10	0	0	0	0	530	145	
11	0	0	0	0	531	144	
12	0	0	0	0	531	145	
13	0	0	0	0	531	145	
14	0	0	0	0	531	145	
15	0	0	0	0	532	144	
0	0	0	0	0	532	145	
1	0	0	0	0	533	146	
2	0	0	0	0	533	144	
3	0	0	0	0	531	145	
4	0	0	0	0	531	145	
5	0	0	0	0	531	146	
6	0	0	0	0	530	144	
7	0	0	0	0	531	145	
8	0	0	0	0	530	146	
9	0	0	0	0	529	145	
10	0	0	0	0	529	145	
11	0	0	0	0	530	145	
12	0	0	0	0	529	145	
13	0	0	0	0	528	145	
14	0	0	0	0	529	144	
15	0	0	0	0	530	145	
0	0	0	0	0	530	146	
1	0	0	0	0	530	144	
2	0	0	0	0	529	145	
3	0	0	0	0	528	145	
4	0	0	0	0	528	145	
5	0	0	0	0	528	145	
6	0	0	0	0	527	146	
7	0	0	0	0	527	146	
8	0	0	0	0	526	145	
9	0	0	0	0	526	146	
10	0	0	0	0	526	145	
11	0	0	0	0	527	145	
12	0	0	0	0	527	145	
13	0	0	0	0	528	145	
14	0	0	0	0	529	146	
15	0	0	0	0	528	144	
0	0	0	0	0	527	145	
1	0	0	0	0	527	145	
2	0	0	0	0	527	144	
3	0	0	0	0	527	145	
4	0	0	0	0	526	146	
5	0	0	0	0	526	145	
6	0	0	0	0	526	145	
7	0	0	0	0	526	146	
8	0	0	0	0	526	145	
9	0	0	0	0	527	145	
10	0	0	0	0	526	146	
11	0	0	0	0	527	145	
12	0	0	0	0	527	145	
13	0	0	0	0	526	146	
14	0	0	0	0	526	145	
15	0	0	0	0	526	145	
0	0	0	0	0	526	145	
1	0	0	0	0	527	145	
2	0	0	0	0	527	145	
3	0	0	0	0	525	146	
4	0	0	0	0	523	145	
5	0	0	0	0	524	145	
6	0	0	0	0	525	146	
7	0	0	0	0	526	145	
8	0	0	0	0	527	145	
9	0	0	0	0	528	145	
10	0	0	0	0	528	145	
11	0	0	0	0	527	145	
12	0	0	0	0	524	145	
13	0	0	0	0	521	145	
14	0	0	0	0	519	145	
15	0	0	0	0	519	145	
0	0	0	0	0	520	145	
1	0	0	0	0	520	145	
2	0	0	0	0	521	145	
3	0	0	0	0	523	145	
4	0	0	0	0	522	145	
5	0	0	0	0	520	145	
6	0	0	0	0	520	146	
7	0	0	0	0	519	145	
8	0	0	0	0	518	145	
9	0	0	0	0	518	146	
10	0	0	0	0	518	144	
11	0	0	0	0	517	145	
12	0	0	0	0	517	145	
13	0	0	0	0	517	146	
14	0	0	0	0	517	144	
15	0	0	0	0	516	145	
0	0	0	0	0	516	145	
1	0	0	0	0	515	145	
2	0	0	0	0	516	146	
3	0	0	0	0	515	145	
4	0	0	0	0	515	144	
5	0	0	0	0	515	145	
6	0	0	0	0	514	145	
7	0	0	0	0	515	145	
8	0	0	0	0	514	146	
9	0	0	0	0	513	144	
10	0	0	0	0	514	145	
11	0	0	0	0	513	145	
12	0	0	0	0	514	145	
13	0	0	0	0	514	146	
14	0	0	0	0	514	144	
15	0	0	0	0	514	145	
0	0	0	0	0	515	145	
1	0	0	0	0	515	145	
2	0	0	0	0	515	146	
3	0	0	0	0	516	145	
4	0	0	0	0	517	144	
5	0	0	0	0	517	145	
6	0	0	0	0	517	145	
7	0	0	0	0	516	145	
8	0	0	0	0	515	145	
9	0	0	0	0	515	145	
10	0	0	0	0	515	146	
11	0	0	0	0	514	145	
12	0	0	0	0	513	144	
13	0	0	0	0	512	144	
14	0	0	0	0	512	145	
15	0	0	0	0	512	145	
0	0	0	0	0	512	145	
1	0	0	0	0	512	145	
2	0	0	0	0	512	145	
3	0	0	0	0	511	145	
4	0	0	0	0	510	145	
5	0	0	0	0	509	145	
6	0	0	0	0	509	145	
7	0	0	0	0	508	145	
8	0	0	0	0	509	146	
9	0	0	0	0	509	146	
10	0	0	0	0	509	144	
11	0	0	0	0	508	145	
12	0	0	0	0	508	145	
13	0	0	0	0	509	146	
14	0	0	0	0	510	145	
15	0	0	0	0	511	145	
0	0	0	0	0	511	145	
1	0	0	0	0	511	145	
2	0	0	0	0	510	145	
3	0	0	0	0	509	145	
4	0	0	0	0	509	145	
5	0	0	0	0	512	146	
6	0	0	0	0	513	144	
7	0	0	0	0	515	145	
8	0	0	0	0	514	145	
9	0	0	0	0	514	145	
10	0	0	0	0	515	145	
11	0	0	0	0	514	145	
12	0	0	0	0	513	145	
13	0	0	0	0	512	145	
14	0	0	0	0	512	145	
15	0	0	0	0	510	146	
0	0	0	0	0	511	144	
1	0	0	0	0	512	145	
2	0	0	0	0	513	145	
3	0	0	0	0	514	145	
4	0	0	0	0	513	144	
5	0	0	0	0	511	145	
6	0	0	0	0	510	146	
7	0	0	0	0	509	145	
8	0	0	0	0	509	145	
9	0	0	0	0	510	145	
10	0	0	0	0	509	146	
11	0	0	0	0	509	144	
12	0	0	0	0	509	145	
13	0	0	0	0	511	146	
14	0	0	0	0	511	146	
15	0	0	0	0	510	145	
0	0	0	0	0	510	145	
1	0	0	0	0	510	145	
2	0	0	0	0	510	145	
3	0	0	0	0	510	145	
4	0	0	0	0	509	145	
5	0	0	0	0	508	144	
6	0	0	0	0	508	145	
7	0	0	0	0	508	145	
8	0	0	0	0	507	145	
9	0	0	0	0	507	145	
10	0	0	0	0	508	145	
11	0	0	0	0	508	146	
12	0	0	0	0	508	145	
13	0	0	0	0	508	145	
14	0	0	0	0	507	145	
15	0	0	0	0	508	146	
0	0	0	0	0	509	144	
1	0	0	0	0	511	145	
2	0	0	0	0	511	145	
3	0	0	0	0	512	145	
4	0	0	0	0	513	145	
5	0	0	0	0	512	145	
6	0	0	0	0	513	145	
7	0	0	0	0	513	145	
8	0	0	0	0	512	145	
9	0	0	0	0	513	146	
10	0	0	0	0	513	144	
11	0	0	0	0	512	145	
12	0	0	0	0	512	145	
13	0	0	0	0	512	145	
14	0	0	0	0	513	145	
15	0	0	0	0	513	144	
0	0	0	0	0	515	145	
1	0	0	0	0	516	145	
2	0	0	0	0	516	144	
3	0	0	0	0	516	144	
4	0	0	0	0	517	145	
5	0	0	0	0	517	145	
6	0	0	0	0	517	144	
7	0	0	0	0	518	145	
8	0	0	0	0	519	145	
9	0	0	0	0	518	145	
10	0	0	0	0	517	144	
11	0	0	0	0	518	145	
12	0	0	0	0	517	145	
13	0	0	0	0	517	144	
14	0	0	0	0	516	145	
15	0	0	0	0	516	145	
0	0	0	0	0	517	144	
1	0	0	0	0	518	145	
2	0	0	0	0	518	145	
3	0	0	0	0	519	144	
4	0	0	0	0	520	144	
5	0	0	0	0	520	145	
6	0	0	0	0	521	145	
7	0	0	0	0	522	144	
8	0	0	0	0	522	145	
9	0	0	0	0	523	145	
10	0	0	0	0	524	144	
11	0	0	0	0	523	145	
12	0	0	0	0	523	145	
13	0	0	0	0	523	145	
14	0	0	0	0	522	144	
15	0	0	0	0	522	145	
0	0	0	0	0	521	145	
1	0	0	0	0	520	145	
2	0	0	0	0	521	144	
3	0	0	0	0	521	145	
4	0	0	0	0	522	145	
5	0	0	0	0	520	144	
6	0	0	0	0	521	145	
7	0	0	0	0	522	145	
8	0	0	0	0	524	144	
9	0	0	0	0	525	145	
10	0	0	0	0	525	145	
11	0	0	0	0	526	144	
12	0	0	0	0	525	145	
13	0	0	0	0	524	145	
14	0	0	0	0	524	144	
15	0	0	0	0	524	144	
0	0	0	0	0	524	145	
1	0	0	0	0	524	145	
2	0	0	0	0	524	144	
3	0	0	0	0	524	145	
4	0	0	0	0	523	145	
5	0	0	0	0	521	144	
6	0	0	0	0	519	145	
7	0	0	0	0	519	145	
8	0	0	0	0	519	144	
9	0	0	0	0	519	144	
10	0	0	0	0	518	145	
11	0	0	0	0	517	145	
12	0	0	0	0	515	144	
13	0	0	0	0	514	144	
14	0	0	0	0	512	145	
15	0	0	0	0	510	144	
0	0	0	0	0	510	144	
1	0	0	0	0	510	145	
2	0	0	0	0	510	145	
3	0	0	0	0	510	144	
4	0	0	0	0	510	145	
5	0	0	0	0	507	145	
6	0	0	0	0	507	144	
7	0	0	0	0	508	145	
8	0	0	0	0	509	145	
9	0	0	0	0	507	144	
10	0	0	0	0	506	145	
11	0	0	0	0	507	145	
12	0	0	0	0	507	144	
13	0	0	0	0	508	145	
14	0	0	0	0	508	145	
15	0	0	0	0	507	144	
0	0	0	0	0	507	144	
1	0	0	0	0	507	144	
2	0	0	0	0	506	145	
3	0	0	0	0	506	145	
4	0	0	0	0	505	145	
5	0	0	0	0	505	144	
6	0	0	0	0	503	144	
7	0	0	0	0	500	145	
8	0	0	0	0	499	145	
9	0	0	0	0	500	144	
10	0	0	0	0	501	144	
11	0	0	0	0	500	145	
12	0	0	0	0	499	144	
13	0	0	0	0	499	144	
14	0	0	0	0	500	145	
15	0	0	0	0	499	145	
0	0	0	0	0	500	144	
1	0	0	0	0	499	145	
2	0	0	0	0	499	145	
3	0	0	0	0	499	144	
4	0	0	0	0	497	144	
5	0	0	0	0	497	145	
6	0	0	0	0	496	145	
7	0	0	0	0	496	144	
8	0	0	0	0	496	145	
9	0	0	0	0	497	145	
10	0	0	0	0	497	144	
11	0	0	0	0	496	145	
12	0	0	0	0	497	145	
13	0	0	0	0	496	144	
14	0	0	0	0	496	144	
15	0	0	0	0	495	144	
0	0	0	0	0	493	145	
1	0	0	0	0	493	145	
2	0	0	0	0	493	144	
3	0	0	0	0	493	145	
4	0	0	0	0	492	145	
5	0	0	0	0	493	144	
6	0	0	0	0	494	144	
7	0	0	0	0	494	145	
8	0	0	0	0	494	144	
9	0	0	0	0	494	144	
10	0	0	0	0	492	145	
11	0	0	0	0	492	144	
12	0	0	0	0	491	145	
13	0	0	0	0	489	145	
14	0	0	0	0	488	144	
15	0	0	0	0	488	145	
0	0	0	0	0	487	145	
1	0	0	0	0	487	144	
2	0	0	0	0	487	145	
3	0	0	0	0	486	145	
4	0	0	0	0	485	144	
5	0	0	0	0	486	145	
6	0	0	0	0	486	145	
7	0	0	0	0	486	144	
8	0	0	0	0	487	145	
9	0	0	0	0	486	144	
10	0	0	0	0	486	144	
11	0	0	0	0	487	145	
12	0	0	0	0	487	145	
13	0	0	0	0	488	144	
14	0	0	0	0	488	144	
15	0	0	0	0	489	145	
0	0	0	0	0	489	145	
1	0	0	0	0	489	145	
2	0	0	0	0	490	144	
3	0	0	0	0	489	145	
4	0	0	0	0	489	145	
5	0	0	0	0	489	144	
6	0	0	0	0	488	144	
7	0	0	0	0	489	145	
8	0	0	0	0	489	144	
9	0	0	0	0	491	144	
10	0	0	0	0	491	145	
11	0	0	0	0	489	145	
12	0	0	0	0	489	144	
13	0	0	0	0	489	144	
14	0	0	0	0	489	145	
15	0	0	0	0	489	144	
0	0	0	0	0	489	144	
1	0	0	0	0	490	145	
2	0	0	0	0	490	144	
3	0	0	0	0	490	144	
4	0	0	0	0	489	145	
5	0	0	0	0	489	144	
6	0	0	0	0	489	144	
7	0	0	0	0	489	145	
8	0	0	0	0	490	144	
9	0	0	0	0	490	144	
10	0	0	0	0	492	144	
11	0	0	0	0	493	145	
12	0	0	0	0	492	143	
13	0	0	0	0	491	145	
14	0	0	0	0	491	145	
15	0	0	0	0	491	144	
0	0	0	0	0	492	145	
1	0	0	0	0	492	145	
2	0	0	0	0	492	144	
3	0	0	0	0	492	145	
4	0	0	0	0	492	145	
5	0	0	0	0	492	144	
6	0	0	0	0	492	145	
7	0	0	0	0	492	145	
8	0	0	0	0	493	144	
9	0	0	0	0	494	145	
10	0	0	0	0	494	145	
11	0	0	0	0	494	144	
12	0	0	0	0	493	145	
13	0	0	0	0	492	144	
14	0	0	0	0	492	144	
15	0	0	0	0	493	145	
0	0	0	0	0	494	144	
1	0	0	0	0	494	144	
2	0	0	0	0	492	144	
3	0	0	0	0	492	145	
4	0	0	0	0	493	144	
5	0	0	0	0	492	144	
6	0	0	0	0	492	145	
7	0	0	0	0	492	145	
8	0	0	0	0	492	144	
9	0	0	0	0	491	145	
10	0	0	0	0	491	144	
11	0	0	0	0	490	144	
12	0	0	0	0	491	144	
13	0	0	0	0	490	144	
14	0	0	0	0	491	144	
15	0	0	0	0	491	144	
0	0	0	0	0	491	144	
1	0	0	0	0	491	145	
2	0	0	0	0	491	143	
3	0	0	0	0	492	144	
4	0	0	0	0	493	144	
5	0	0	0	0	494	145	
6	0	0	0	0	496	144	
7	0	0	0	0	498	144	
8	0	0	0	0	499	144	
9	0	0	0	0	499	144	
10	0	0	0	0	500	144	
11	0	0	0	0	500	144	
12	0	0	0	0	500	143	
13	0	0	0	0	502	144	
14	0	0	0	0	503	144	
15	0	0	0	0	504	143	
0	0	0	0	0	505	144	
1	0	0	0	0	507	145	
2	0	0	0	0	508	143	
3	0	0	0	0	509	144	
4	0	0	0	0	511	145	
5	0	0	0	0	513	143	
6	0	0	0	0	514	144	
7	0	0	0	0	517	144	
8	0	0	0	0	519	143	
9	0	0	0	0	523	144	
10	0	0	0	0	524	144	
11	0	0	0	0	525	144	
12	0	0	0	0	526	143	
13	0	0	0	0	527	144	
14	0	0	0	0	526	144	
15	0	0	0	0	524	144	
0	0	0	0	0	522	143	
1	0	0	0	0	519	144	
2	0	0	0	0	513	144	
3	0	0	0	0	509	145	
4	0	0	0	0	504	143	
5	0	0	0	0	500	144	
6	0	0	0	0	495	145	
7	0	0	0	0	490	143	
8	0	0	0	0	486	144	
9	0	0	0	0	482	145	
10	0	0	0	0	481	144	
11	0	0	0	0	480	144	
12	0	0	0	0	476	144	
13	0	0	0	0	473	145	
14	0	0	0	0	470	144	
15	0	0	0	0	467	144	
0	0	0	0	0	465	145	
1	0	0	0	0	463	144	
2	0	0	0	0	460	145	
3	0	0	0	0	458	144	
4	0	0	0	0	456	144	
5	0	0	0	0	454	145	
6	0	0	0	0	451	144	
7	0	0	0	0	449	144	
8	0	0	0	0	446	145	
9	0	0	0	0	443	145	
10	0	0	0	0	440	144	
11	0	0	0	0	440	145	
12	0	0	0	0	440	145	
13	0	0	0	0	442	144	
14	0	0	0	0	444	144	
15	0	0	0	0	446	145	
0	0	0	0	0	449	144	
1	0	0	0	0	453	144	
2	0	0	0	0	456	145	
3	0	0	0	0	460	144	
4	0	0	0	0	464	144	
5	0	0	0	0	467	144	
6	0	0	0	0	469	144	
7	0	0	0	0	472	145	
8	0	0	0	0	475	143	
9	0	0	0	0	478	144	
10	0	0	0	0	480	144	
11	0	0	0	0	483	144	
12	0	0	0	0	485	144	
13	0	0	0	0	486	144	
14	0	0	0	0	489	144	
15	0	0	0	0	492	144	
0	0	0	0	0	495	143	
1	0	0	0	0	496	144	
2	0	0	0	0	496	145	
3	0	0	0	0	496	143	
4	0	0	0	0	495	144	
5	0	0	0	0	495	144	
6	0	0	0	0	496	145	
7	0	0	0	0	496	143	
8	0	0	0	0	496	144	
9	0	0	0	0	497	145	
10	0	0	0	0	499	143	
11	0	0	0	0	499	144	
12	0	0	0	0	499	144	
13	0	0	0	0	500	145	
14	0	0	0	0	502	144	
15	0	0	0	0	503	143	
0	0	0	0	0	504	144	
1	0	0	0	0	504	144	
2	0	0	0	0	505	144	
3	0	0	0	0	504	143	
4	0	0	0	0	504	144	
5	0	0	0	0	503	144	
6	0	0	0	0	502	143	
7	0	0	0	0	503	143	
8	0	0	0	0	504	144	
9	0	0	0	0	505	144	
10	0	0	0	0	505	143	
11	0	0	0	0	504	144	
12	0	0	0	0	505	145	
13	0	0	0	0	506	143	
14	0	0	0	0	506	144	
15	0	0	0	0	507	144	
0	0	0	0	0	508	143	
1	0	0	0	0	508	143	
2	0	0	0	0	508	144	
3	0	0	0	0	507	144	
4	0	0	0	0	507	143	
5	0	0	0	0	507	144	
6	0	0	0	0	506	144	
7	0	0	0	0	506	143	
8	0	0	0	0	506	144	
9	0	0	0	0	507	144	
10	0	0	0	0	507	143	
11	0	0	0	0	508	144	
12	0	0	0	0	508	144	
13	0	0	0	0	509	144	
14	0	0	0	0	509	144	
15	0	0	0	0	510	143	
0	0	0	0	0	511	144	
1	0	0	0	0	511	144	
2	0	0	0	0	510	144	
3	0	0	0	0	509	143	
4	0	0	0	0	510	144	
5	0	0	0	0	510	144	
6	0	0	0	0	509	144	
7	0	0	0	0	510	143	
8	0	0	0	0	509	144	
9	0	0	0	0	509	144	
10	0	0	0	0	510	143	
11	0	0	0	0	509	143	
12	0	0	0	0	508	144	
13	0	0	0	0	507	144	
14	0	0	0	0	508	143	
15	0	0	0	0	508	144	
0	0	0	0	0	508	144	
1	0	0	0	0	509	143	
2	0	0	0	0	509	144	
3	0	0	0	0	508	144	
4	0	0	0	0	508	143	
5	0	0	0	0	509	143	
6	0	0	0	0	508	144	
7	0	0	0	0	508	144	
8	0	0	0	0	507	144	
9	0	0	0	0	506	143	
10	0	0	0	0	506	144	
11	0	0	0	0	508	144	
12	0	0	0	0	508	143	
13	0	0	0	0	510	143	
14	0	0	0	0	510	144	
15	0	0	0	0	511	144	
0	0	0	0	0	511	144	
1	0	0	0	0	511	143	
2	0	0	0	0	511	144	
3	0	0	0	0	510	144	
4	0	0	0	0	510	143	
5	0	0	0	0	510	144	
6	0	0	0	0	511	144	
7	0	0	0	0	512	143	
8	0	0	0	0	513	144	
9	0	0	0	0	514	144	
10	0	0	0	0	515	144	
11	0	0	0	0	515	143	
12	0	0	0	0	515	143	
13	0	0	0	0	514	144	
14	0	0	0	0	514	144	
15	0	0	0	0	515	143	
0	0	0	0	0	514	144	
1	0	0	0	0	516	144	
2	0	0	0	0	517	144	
3	0	0	0	0	518	143	
4	0	0	0	0	518	144	
5	0	0	0	0	519	143	
6	0	0	0	0	520	143	
7	0	0	0	0	522	144	
8	0	0	0	0	522	144	
9	0	0	0	0	523	143	
10	0	0	0	0	522	143	
11	0	0	0	0	523	144	
12	0	0	0	0	521	144	
13	0	0	0	0	520	144	
14	0	0	0	0	519	143	
15	0	0	0	0	520	143	
0	0	0	0	0	521	144	
1	0	0	0	0	522	144	
2	0	0	0	0	524	143	
3	0	0	0	0	526	144	
4	0	0	0	0	527	144	
5	0	0	0	0	527	143	
6	0	0	0	0	527	144	
7	0	0	0	0	528	144	
8	0	0	0	0	530	143	
9	0	0	0	0	530	143	
10	0	0	0	0	531	144	
11	0	0	0	0	532	144	
12	0	0	0	0	532	144	
13	0	0	0	0	532	143	
14	0	0	0	0	534	144	
15	0	0	0	0	534	144	
0	0	0	0	0	534	143	
1	0	0	0	0	535	144	
2	0	0	0	0	536	144	
3	0	0	0	0	536	143	
4	0	0	0	0	535	144	
5	0	0	0	0	536	144	
6	0	0	0	0	536	143	
7	0	0	0	0	536	143	
8	0	0	0	0	536	144	
9	0	0	0	0	535	144	
10	0	0	0	0	536	143	
11	0	0	0	0	536	144	
12	0	0	0	0	537	144	
13	0	0	0	0	538	143	
14	0	0	0	0	538	143	
15	0	0	0	0	539	144	
0	0	0	0	0	539	144	
1	0	0	0	0	540	143	
2	0	0	0	0	540	144	
3	0	0	0	0	541	144	
4	0	0	0	0	542	143	
5	0	0	0	0	542	143	
6	0	0	0	0	543	144	
7	0	0	0	0	544	144	
8	0	0	0	0	546	143	
9	0	0	0	0	547	144	
10	0	0	0	0	549	144	
11	0	0	0	0	550	143	
12	0	0	0	0	550	144	
13	0	0	0	0	550	144	
14	0	0	0	0	550	143	
15	0	0	0	0	551	143	
0	0	0	0	0	551	144	
1	0	0	0	0	551	144	
2	0	0	0	0	551	143	
3	0	0	0	0	552	144	
4	0	0	0	0	554	144	
5	0	0	0	0	555	143	
6	0	0	0	0	556	143	
7	0	0	0	0	556	144	
8	0	0	0	0	556	143	
9	0	0	0	0	555	143	
10	0	0	0	0	555	144	
11	0	0	0	0	554	144	
12	0	0	0	0	553	143	
13	0	0	0	0	553	144	
14	0	0	0	0	554	144	
15	0	0	0	0	555	143	
0	0	0	0	0	556	144	
1	0	0	0	0	556	144	
2	0	0	0	0	557	143	
3	0	0	0	0	557	144	
4	0	0	0	0	558	144	
5	0	0	0	0	558	143	
6	0	0	0	0	558	143	
7	0	0	0	0	560	144	
8	0	0	0	0	560	144	
9	0	0	0	0	559	143	
10	0	0	0	0	557	143	
11	0	0	0	0	556	144	
12	0	0	0	0	556	144	
13	0	0	0	0	556	143	
14	0	0	0	0	556	144	
15	0	0	0	0	555	144	
0	0	0	0	0	555	143	
1	0	0	0	0	554	144	
2	0	0	0	0	554	144	
3	0	0	0	0	555	143	
4	0	0	0	0	556	144	
5	0	0	0	0	556	144	
6	0	0	0	0	556	143	
7	0	0	0	0	556	144	
8	0	0	0	0	555	144	
9	0	0	0	0	554	143	
10	0	0	0	0	553	143	
11	0	0	0	0	553	143	
12	0	0	0	0	552	144	
13	0	0	0	0	551	144	
14	0	0	0	0	550	143	
15	0	0	0	0	550	143	
0	0	0	0	0	550	144	
1	0	0	0	0	551	143	
2	0	0	0	0	552	143	
3	0	0	0	0	552	144	
4	0	0	0	0	551	144	
5	0	0	0	0	552	143	
6	0	0	0	0	552	143	
7	0	0	0	0	552	144	
8	0	0	0	0	551	144	
9	0	0	0	0	550	143	
10	0	0	0	0	551	144	
11	0	0	0	0	550	144	
12	0	0	0	0	550	143	
13	0	0	0	0	548	143	
14	0	0	0	0	547	144	
15	0	0	0	0	545	144	
0	0	0	0	0	544	143	
1	0	0	0	0	543	144	
2	0	0	0	0	543	144	
3	0	0	0	0	543	144	
4	0	0	0	0	542	143	
5	0	0	0	0	543	144	
6	0	0	0	0	543	144	
7	0	0	0	0	542	143	
8	0	0	0	0	542	143	
9	0	0	0	0	540	144	
10	0	0	0	0	539	144	
11	0	0	0	0	538	143	
12	0	0	0	0	536	143	
13	0	0	0	0	536	144	
14	0	0	0	0	534	144	
15	0	0	0	0	534	143	
0	0	0	0	0	534	144	
1	0	0	0	0	532	143	
2	0	0	0	0	533	143	
3	0	0	0	0	533	144	
4	0	0	0	0	532	144	
5	0	0	0	0	531	143	
6	0	0	0	0	530	144	
7	0	0	0	0	529	144	
8	0	0	0	0	529	143	
9	0	0	0	0	529	144	
10	0	0	0	0	529	144	
11	0	0	0	0	529	143	
12	0	0	0	0	530	143	
13	0	0	0	0	529	144	
14	0	0	0	0	527	144	
15	0	0	0	0	527	143	
0	0	0	0	0	527	144	
1	0	0	0	0	527	144	
2	0	0	0	0	527	143	
3	0	0	0	0	527	143	
4	0	0	0	0	527	143	
5	0	0	0	0	526	144	
6	0	0	0	0	526	144	
7	0	0	0	0	525	144	
8	0	0	0	0	524	143	
9	0	0	0	0	524	143	
10	0	0	0	0	523	143	
11	0	0	0	0	522	144	
12	0	0	0	0	522	144	
13	0	0	0	0	521	143	
14	0	0	0	0	520	143	
15	0	0	0	0	520	144	
0	0	0	0	0	519	144	
1	0	0	0	0	519	144	
2	0	0	0	0	519	143	
3	0	0	0	0	520	143	
4	0	0	0	0	520	143	
5	0	0	0	0	520	143	
6	0	0	0	0	519	143	
7	0	0	0	0	519	143	
8	0	0	0	0	519	144	
9	0	0	0	0	519	144	
10	0	0	0	0	519	144	
11	0	0	0	0	519	144	
12	0	0	0	0	518	144	
13	0	0	0	0	516	143	
14	0	0	0	0	516	143	
15	0	0	0	0	518	144	
0	0	0	0	0	519	144	
1	0	0	0	0	518	144	
2	0	0	0	0	518	143	
3	0	0	0	0	518	143	
4	0	0	0	0	517	143	
5	0	0	0	0	517	143	
6	0	0	0	0	518	143	
7	0	0	0	0	518	144	
8	0	0	0	0	518	144	
9	0	0	0	0	519	144	
10	0	0	0	0	519	143	
11	0	0	0	0	519	143	
12	0	0	0	0	519	144	
13	0	0	0	0	518	144	
14	0	0	0	0	516	143	
15	0	0	0	0	516	143	
0	0	0	0	0	515	144	
1	0	0	0	0	515	144	
2	0	0	0	0	515	144	
3	0	0	0	0	516	143	
4	0	0	0	0	515	143	
5	0	0	0	0	514	143	
6	0	0	0	0	514	144	
7	0	0	0	0	512	144	
8	0	0	0	0	511	144	
9	0	0	0	0	511	143	
10	0	0	0	0	508	143	
11	0	0	0	0	508	144	
12	0	0	0	0	508	144	
13	0	0	0	0	508	144	
14	0	0	0	0	509	143	
15	0	0	0	0	510	143	
0	0	0	0	0	511	143	
1	0	0	0	0	509	144	
2	0	0	0	0	507	144	
3	0	0	0	0	506	143	
4	0	0	0	0	505	143	
5	0	0	0	0	505	144	
6	0	0	0	0	505	144	
7	0	0	0	0	505	144	
8	0	0	0	0	504	143	
9	0	0	0	0	504	144	
10	0	0	0	0	504	144	
11	0	0	0	0	504	144	
12	0	0	0	0	504	143	
13	0	0	0	0	504	143	
14	0	0	0	0	504	144	
15	0	0	0	0	504	144	
0	0	0	0	0	504	144	
1	0	0	0	0	504	144	
2	0	0	0	0	504	143	
3	0	0	0	0	503	143	
4	0	0	0	0	503	144	
5	0	0	0	0	501	144	
6	0	0	0	0	499	144	
7	0	0	0	0	499	144	
8	0	0	0	0	497	143	
9	0	0	0	0	497	143	
10	0	0	0	0	497	144	
11	0	0	0	0	497	144	
12	0	0	0	0	496	144	
13	0	0	0	0	496	143	
14	0	0	0	0	496	143	
15	0	0	0	0	496	144	
0	0	0	0	0	494	144	
1	0	0	0	0	494	143	
2	0	0	0	0	494	143	
3	0	0	0	0	494	143	
4	0	0	0	0	493	144	
5	0	0	0	0	491	144	
6	0	0	0	0	491	144	
7	0	0	0	0	491	143	
8	0	0	0	0	492	144	
9	0	0	0	0	491	144	
10	0	0	0	0	492	144	
11	0	0	0	0	492	144	
12	0	0	0	0	492	143	
13	0	0	0	0	493	143	
14	0	0	0	0	492	144	
15	0	0	0	0	493	144	
0	0	0	0	0	494	144	
1	0	0	0	0	494	144	
2	0	0	0	0	495	143	
3	0	0	0	0	495	143	
4	0	0	0	0	494	144	
5	0	0	0	0	495	144	
6	0	0	0	0	494	144	
7	0	0	0	0	494	143	
8	0	0	0	0	493	144	
9	0	0	0	0	493	144	
10	0	0	0	0	493	144	
11	0	0	0	0	493	143	
12	0	0	0	0	494	143	
13	0	0	0	0	494	144	
14	0	0	0	0	494	144	
15	0	0	0	0	493	144	
0	0	0	0	0	491	143	
1	0	0	0	0	489	143	
2	0	0	0	0	488	144	
3	0	0	0	0	488	144	
4	0	0	0	0	488	143	
5	0	0	0	0	488	143	
6	0	0	0	0	488	143	
7	0	0	0	0	489	144	
8	0	0	0	0	489	144	
9	0	0	0	0	489	144	
10	0	0	0	0	487	144	
11	0	0	0	0	485	143	
12	0	0	0	0	483	143	
13	0	0	0	0	483	144	
14	0	0	0	0	482	144	
15	0	0	0	0	481	144	
0	0	0	0	0	482	144	
1	0	0	0	0	482	143	
2	0	0	0	0	482	143	
3	0	0	0	0	483	143	
4	0	0	0	0	483	144	
5	0	0	0	0	483	144	
6	0	0	0	0	482	143	
7	0	0	0	0	482	143	
8	0	0	0	0	481	144	
9	0	0	0	0	481	144	
10	0	0	0	0	481	143	
11	0	0	0	0	480	143	
12	0	0	0	0	481	144	
13	0	0	0	0	483	144	
14	0	0	0	0	484	144	
15	0	0	0	0	484	143	
0	0	0	0	0	483	143	
1	0	0	0	0	482	144	
2	0	0	0	0	481	144	
3	0	0	0	0	480	144	
4	0	0	0	0	480	143	
5	0	0	0	0	480	143	
6	0	0	0	0	481	143	
7	0	0	0	0	480	143	
8	0	0	0	0	480	144	
9	0	0	0	0	481	144	
10	0	0	0	0	481	144	
11	0	0	0	0	482	144	
12	0	0	0	0	482	143	
13	0	0	0	0	482	143	
14	0	0	0	0	482	143	
15	0	0	0	0	483	144	
0	0	0	0	0	483	144	
1	0	0	0	0	482	144	
2	0	0	0	0	482	143	
3	0	0	0	0	483	143	
4	0	0	0	0	484	143	
5	0	0	0	0	485	144	
6	0	0	0	0	486	144	
7	0	0	0	0	486	144	
8	0	0	0	0	485	143	
9	0	0	0	0	484	143	
10	0	0	0	0	484	143	
11	0	0	0	0	483	144	
12	0	0	0	0	483	144	
13	0	0	0	0	484	144	
14	0	0	0	0	484	144	
15	0	0	0	0	487	143	
0	0	0	0	0	487	143	
1	0	0	0	0	488	143	
2	0	0	0	0	489	143	
3	0	0	0	0	489	143	
4	0	0	0	0	491	144	
5	0	0	0	0	493	144	
6	0	0	0	0	492	144	
7	0	0	0	0	492	144	
8	0	0	0	0	490	143	
9	0	0	0	0	489	143	
10	0	0	0	0	489	143	
11	0	0	0	0	490	144	
12	0	0	0	0	491	144	
13	0	0	0	0	490	144	
14	0	0	0	0	490	144	
15	0	0	0	0	490	143	
0	0	0	0	0	490	143	
1	0	0	0	0	491	143	
2	0	0	0	0	492	144	
3	0	0	0	0	493	144	
4	0	0	0	0	494	144	
5	0	0	0	0	494	144	
6	0	0	0	0	495	144	
7	0	0	0	0	496	144	
8	0	0	0	0	496	143	
9	0	0	0	0	496	143	
10	0	0	0	0	496	143	
11	0	0	0	0	497	144	
12	0	0	0	0	496	144	
13	0	0	0	0	496	144	
14	0	0	0	0	496	144	
15	0	0	0	0	497	143	
0	0	0	0	0	498	143	
1	0	0	0	0	498	143	
2	0	0	0	0	499	143	
3	0	0	0	0	499	144	
4	0	0	0	0	499	144	
5	0	0	0	0	499	144	
6	0	0	0	0	500	143	
7	0	0	0	0	501	143	
8	0	0	0	0	501	144	
9	0	0	0	0	501	144	
10	0	0	0	0	502	143	
11	0	0	0	0	501	143	
12	0	0	0	0	500	143	
13	0	0	0	0	501	143	
14	0	0	0	0	500	144	
15	0	0	0	0	500	144	
0	0	0	0	0	500	144	
1	0	0	0	0	501	143	
2	0	0	0	0	501	143	
3	0	0	0	0	501	143	
4	0	0	0	0	502	143	
5	0	0	0	0	503	143	
6	0	0	0	0	504	143	
7	0	0	0	0	504	144	
8	0	0	0	0	504	144	
9	0	0	0	0	504	143	
10	0	0	0	0	504	143	
11	0	0	0	0	504	143	
12	0	0	0	0	504	144	
13	0	0	0	0	504	143	
14	0	0	0	0	505	144	
15	0	0	0	0	505	144	
0	0	0	0	0	506	143	
1	0	0	0	0	505	143	
2	0	0	0	0	507	143	
3	0	0	0	0	508	143	
4	0	0	0	0	510	143	
5	0	0	0	0	510	143	
6	0	0	0	0	510	143	
7	0	0	0	0	509	144	
8	0	0	0	0	510	143	
9	0	0	0	0	511	143	
10	0	0	0	0	510	144	
11	0	0	0	0	510	144	
12	0	0	0	0	509	143	
13	0	0	0	0	508	143	
14	0	0	0	0	507	143	
15	0	0	0	0	505	143	
0	0	0	0	0	505	144	
1	0	0	0	0	505	144	
2	0	0	0	0	504	144	
3	0	0	0	0	504	143	
4	0	0	0	0	504	143	
5	0	0	0	0	503	143	
6	0	0	0	0	501	143	
7	0	0	0	0	500	143	
8	0	0	0	0	499	143	
9	0	0	0	0	499	143	
10	0	0	0	0	498	144	
11	0	0	0	0	498	144	
12	0	0	0	0	499	144	
13	0	0	0	0	499	143	
14	0	0	0	0	499	143	
15	0	0	0	0	499	144	
0	0	0	0	0	499	144	
1	0	0	0	0	499	144	
2	0	0	0	0	499	143	
3	0	0	0	0	499	143	
4	0	0	0	0	498	143	
5	0	0	0	0	497	143	
6	0	0	0	0	498	144	
7	0	0	0	0	496	144	
8	0	0	0	0	496	143	
9	0	0	0	0	497	143	
10	0	0	0	0	496	143	
11	0	0	0	0	496	144	
12	0	0	0	0	496	144	
13	0	0	0	0	497	143	
14	0	0	0	0	497	143	
15	0	0	0	0	498	143	
0	0	0	0	0	499	143	
1	0	0	0	0	499	143	
2	0	0	0	0	499	144	
3	0	0	0	0	498	144	
4	0	0	0	0	499	143	
5	0	0	0	0	499	143	
6	0	0	0	0	500	143	
7	0	0	0	0	501	144	
8	0	0	0	0	499	143	
9	0	0	0	0	497	143	
10	0	0	0	0	497	143	
11	0	0	0	0	496	144	
12	0	0	0	0	496	144	
13	0	0	0	0	495	144	
14	0	0	0	0	495	143	
15	0	0	0	0	494	143	
0	0	0	0	0	493	144	
1	0	0	0	0	491	144	
2	0	0	0	0	491	144	
3	0	0	0	0	492	143	
4	0	0	0	0	494	143	
5	0	0	0	0	496	144	
6	0	0	0	0	497	144	
7	0	0	0	0	497	143	
8	0	0	0	0	497	143	
9	0	0	0	0	497	143	
10	0	0	0	0	497	143	
11	0	0	0	0	497	143	
12	0	0	0	0	496	143	
13	0	0	0	0	496	143	
14	0	0	0	0	495	143	
15	0	0	0	0	496	144	
0	0	0	0	0	496	143	
1	0	0	0	0	497	143	
2	0	0	0	0	496	144	
3	0	0	0	0	496	144	
4	0	0	0	0	496	143	
5	0	0	0	0	496	143	
6	0	0	0	0	496	143	
7	0	0	0	0	497	143	
8	0	0	0	0	497	144	
9	0	0	0	0	496	143	
10	0	0	0	0	496	143	
11	0	0	0	0	496	143	
12	0	0	0	0	495	143	
13	0	0	0	0	494	143	
14	0	0	0	0	494	144	
15	0	0	0	0	496	143	
0	0	0	0	0	497	143	
1	0	0	0	0	497	143	
2	0	0	0	0	499	144	
3	0	0	0	0	499	144	
4	0	0	0	0	499	143	
5	0	0	0	0	499	143	
6	0	0	0	0	500	143	
7	0	0	0	0	500	143	
8	0	0	0	0	501	143	
9	0	0	0	0	504	143	
10	0	0	0	0	504	143	
11	0	0	0	0	501	143	
12	0	0	0	0	499	143	
13	0	0	0	0	498	144	
14	0	0	0	0	499	143	
15	0	0	0	0	499	143	
0	0	0	0	0	499	143	
1	0	0	0	0	499	144	
2	0	0	0	0	499	144	
3	0	0	0	0	499	144	
4	0	0	0	0	498	143	
5	0	0	0	0	498	143	
6	0	0	0	0	499	143	
7	0	0	0	0	498	143	
8	0	0	0	0	498	143	
9	0	0	0	0	497	143	
10	0	0	0	0	497	143	
11	0	0	0	0	497	143	
12	0	0	0	0	496	143	
13	0	0	0	0	494	143	
14	0	0	0	0	492	143	
15	0	0	0	0	490	143	
0	0	0	0	0	491	144	
1	0	0	0	0	491	143	
2	0	0	0	0	491	143	
3	0	0	0	0	491	143	
4	0	0	0	0	492	143	
5	0	0	0	0	492	143	
6	0	0	0	0	492	143	
7	0	0	0	0	493	143	
8	0	0	0	0	493	143	
9	0	0	0	0	494	143	
10	0	0	0	0	495	143	
11	0	0	0	0	497	143	
12	0	0	0	0	497	143	
13	0	0	0	0	499	143	
14	0	0	0	0	500	143	
15	0	0	0	0	500	143	
0	0	0	0	0	500	143	
1	0	0	0	0	502	143	
2	0	0	0	0	502	143	
3	0	0	0	0	502	143	
4	0	0	0	0	502	144	
5	0	0	0	0	503	143	
6	0	0	0	0	504	143	
7	0	0	0	0	505	144	
8	0	0	0	0	507	143	
9	0	0	0	0	508	143	
10	0	0	0	0	508	143	
11	0	0	0	0	506	143	
12	0	0	0	0	505	143	
13	0	0	0	0	505	143	
14	0	0	0	0	505	143	
15	0	0	0	0	505	143	
0	0	0	0	0	506	143	
1	0	0	0	0	507	143	
2	0	0	0	0	507	143	
3	0	0	0	0	505	143	
4	0	0	0	0	503	143	
5	0	0	0	0	503	143	
6	0	0	0	0	502	143	
7	0	0	0	0	502	144	
8	0	0	0	0	502	143	
9	0	0	0	0	500	143	
10	0	0	0	0	500	144	
11	0	0	0	0	499	142	
12	0	0	0	0	499	143	
13	0	0	0	0	499	143	
14	0	0	0	0	500	143	
15	0	0	0	0	502	143	
0	0	0	0	0	503	143	
1	0	0	0	0	503	143	
2	0	0	0	0	504	143	
3	0	0	0	0	505	143	
4	0	0	0	0	506	143	
5	0	0	0	0	507	143	
6	0	0	0	0	507	143	
7	0	0	0	0	509	143	
8	0	0	0	0	511	143	
9	0	0	0	0	512	143	
10	0	0	0	0	514	143	
11	0	0	0	0	516	143	
12	0	0	0	0	518	143	
13	0	0	0	0	519	143	
14	0	0	0	0	519	143	
15	0	0	0	0	521	142	
0	0	0	0	0	523	143	
1	0	0	0	0	525	143	
2	0	0	0	0	528	142	
3	0	0	0	0	531	143	
4	0	0	0	0	533	143	
5	0	0	0	0	536	143	
6	0	0	0	0	538	142	
7	0	0	0	0	538	143	
8	0	0	0	0	539	143	
9	0	0	0	0	538	142	
10	0	0	0	0	537	143	
11	0	0	0	0	537	143	
12	0	0	0	0	534	142	
13	0	0	0	0	531	143	
14	0	0	0	0	528	143	
15	0	0	0	0	523	143	
0	0	0	0	0	519	143	
1	0	0	0	0	515	143	
2	0	0	0	0	510	143	
3	0	0	0	0	504	143	
4	0	0	0	0	499	143	
5	0	0	0	0	494	143	
6	0	0	0	0	491	143	
7	0	0	0	0	489	143	
8	0	0	0	0	486	144	
9	0	0	0	0	482	143	
10	0	0	0	0	479	143	
11	0	0	0	0	475	143	
12	0	0	0	0	471	143	
13	0	0	0	0	468	143	
14	0	0	0	0	466	143	
15	0	0	0	0	464	143	
0	0	0	0	0	464	143	
1	0	0	0	0	462	143	
2	0	0	0	0	461	144	
3	0	0	0	0	460	143	
4	0	0	0	0	459	143	
5	0	0	0	0	457	144	
6	0	0	0	0	455	143	
7	0	0	0	0	452	143	
8	0	0	0	0	451	143	
9	0	0	0	0	450	144	
10	0	0	0	0	451	143	
11	0	0	0	0	454	143	
12	0	0	0	0	457	143	
13	0	0	0	0	459	143	
14	0	0	0	0	462	143	
15	0	0	0	0	465	143	
0	0	0	0	0	467	143	
1	0	0	0	0	472	143	
2	0	0	0	0	475	143	
3	0	0	0	0	477	143	
4	0	0	0	0	480	143	
5	0	0	0	0	483	143	
6	0	0	0	0	487	143	
7	0	0	0	0	490	143	
8	0	0	0	0	492	143	
9	0	0	0	0	494	143	
10	0	0	0	0	498	143	
11	0	0	0	0	500	143	
12	0	0	0	0	501	143	
13	0	0	0	0	504	143	
14	0	0	0	0	506	143	
15	0	0	0	0	508	143	
0	0	0	0	0	508	143	
1	0	0	0	0	509	142	
2	0	0	0	0	510	143	
3	0	0	0	0	509	143	
4	0	0	0	0	509	142	
5	0	0	0	0	508	143	
6	0	0	0	0	507	143	
7	0	0	0	0	505	142	
8	0	0	0	0	504	143	
9	0	0	0	0	503	143	
10	0	0	0	0	503	142	
11	0	0	0	0	503	143	
12	0	0	0	0	502	143	
13	0	0	0	0	501	143	
14	0	0	0	0	500	143	
15	0	0	0	0	502	143	
0	0	0	0	0	503	143	
1	0	0	0	0	504	142	
2	0	0	0	0	504	143	
3	0	0	0	0	505	143	
4	0	0	0	0	505	142	
5	0	0	0	0	505	143	
6	0	0	0	0	504	143	
7	0	0	0	0	503	142	
8	0	0	0	0	503	143	
9	0	0	0	0	503	143	
10	0	0	0	0	504	143	
11	0	0	0	0	504	143	
12	0	0	0	0	504	143	
13	0	0	0	0	504	142	
14	0	0	0	0	504	143	
15	0	0	0	0	504	143	
0	0	0	0	0	505	143	
1	0	0	0	0	505	142	
2	0	0	0	0	504	143	
3	0	0	0	0	504	143	
4	0	0	0	0	503	143	
5	0	0	0	0	503	142	
6	0	0	0	0	503	143	
7	0	0	0	0	504	143	
8	0	0	0	0	503	143	
9	0	0	0	0	504	143	
10	0	0	0	0	504	143	
11	0	0	0	0	503	143	
12	0	0	0	0	503	142	
13	0	0	0	0	501	143	
14	0	0	0	0	500	143	
15	0	0	0	0	502	142	
0	0	0	0	0	502	143	
1	0	0	0	0	502	143	
2	0	0	0	0	503	143	
3	0	0	0	0	504	142	
4	0	0	0	0	505	143	
5	0	0	0	0	505	143	
6	0	0	0	0	504	142	
7	0	0	0	0	503	143	
8	0	0	0	0	504	143	
9	0	0	0	0	505	143	
10	0	0	0	0	505	143	
11	0	0	0	0	504	143	
12	0	0	0	0	503	143	
13	0	0	0	0	502	143	
14	0	0	0	0	502	143	
15	0	0	0	0	502	143	
0	0	0	0	0	502	142	
1	0	0	0	0	503	143	
2	0	0	0	0	502	143	
3	0	0	0	0	502	142	
4	0	0	0	0	502	143	
5	0	0	0	0	502	143	
6	0	0	0	0	501	143	
7	0	0	0	0	502	142	
8	0	0	0	0	502	143	
9	0	0	0	0	502	143	
10	0	0	0	0	503	143	
11	0	0	0	0	504	143	
12	0	0	0	0	504	143	
13	0	0	0	0	506	143	
14	0	0	0	0	507	143	
15	0	0	0	0	507	143	
0	0	0	0	0	505	142	
1	0	0	0	0	505	143	
2	0	0	0	0	507	143	
3	0	0	0	0	507	142	
4	0	0	0	0	507	142	
5	0	0	0	0	508	143	
6	0	0	0	0	508	143	
7	0	0	0	0	510	143	
8	0	0	0	0	510	143	
9	0	0	0	0	510	142	
10	0	0	0	0	511	143	
11	0	0	0	0	511	143	
12	0	0	0	0	512	143	
13	0	0	0	0	513	142	
14	0	0	0	0	513	143	
15	0	0	0	0	514	143	
0	0	0	0	0	515	142	
1	0	0	0	0	518	143	
2	0	0	0	0	519	143	
3	0	0	0	0	519	142	
4	0	0	0	0	520	143	
5	0	0	0	0	521	143	
6	0	0	0	0	523	143	
7	0	0	0	0	524	142	
8	0	0	0	0	525	143	
9	0	0	0	0	527	142	
10	0	0	0	0	528	143	
11	0	0	0	0	529	143	
12	0	0	0	0	528	142	
13	0	0	0	0	531	143	
14	0	0	0	0	532	143	
15	0	0	0	0	531	143	
0	0	0	0	0	530	143	
1	0	0	0	0	527	143	
2	0	0	0	0	526	142	
3	0	0	0	0	527	143	
4	0	0	0	0	528	143	
5	0	0	0	0	527	143	
6	0	0	0	0	526	142	
7	0	0	0	0	527	143	
8	0	0	0	0	527	143	
9	0	0	0	0	527	143	
10	0	0	0	0	527	143	
11	0	0	0	0	527	142	
12	0	0	0	0	527	143	
13	0	0	0	0	529	143	
14	0	0	0	0	533	142	
15	0	0	0	0	538	143	
0	0	0	0	0	540	143	
1	0	0	0	0	537	143	
2	0	0	0	0	532	142	
3	0	0	0	0	536	142	
4	0	0	0	0	542	143	
5	0	0	0	0	542	143	
6	0	0	0	0	540	142	
7	0	0	0	0	539	142	
8	0	0	0	0	540	143	
9	0	0	0	0	541	143	
10	0	0	0	0	540	142	
11	0	0	0	0	541	143	
12	0	0	0	0	543	143	
13	0	0	0	0	545	142	
14	0	0	0	0	547	143	
15	0	0	0	0	544	143	
0	0	0	0	0	541	142	
1	0	0	0	0	543	143	
2	0	0	0	0	544	143	
3	0	0	0	0	547	143	
4	0	0	0	0	554	142	
5	0	0	0	0	563	142	
6	0	0	0	0	563	143	
7	0	0	0	0	553	143	
8	0	0	0	0	546	143	
9	0	0	0	0	545	142	
10	0	0	0	0	545	143	
11	0	0	0	0	545	143	
12	0	0	0	0	544	142	
13	0	0	0	0	545	142	
14	0	0	0	0	546	143	
15	0	0	0	0	548	143	
0	0	0	0	0	550	142	
1	0	0	0	0	551	143	
2	0	0	0	0	556	143	
3	0	0	0	0	561	142	
4	0	0	0	0	565	143	
5	0	0	0	0	560	143	
6	0	0	0	0	555	142	
7	0	0	0	0	555	142	
8	0	0	0	0	556	143	
9	0	0	0	0	556	142	
10	0	0	0	0	557	142	
11	0	0	0	0	557	143	
12	0	0	0	0	558	143	
13	0	0	0	0	563	142	
14	0	0	0	0	572	142	
15	0	0	0	0	574	143	
0	0	0	0	0	567	142	
1	0	0	0	0	560	143	
2	0	0	0	0	555	143	
3	0	0	0	0	553	143	
4	0	0	0	0	552	142	
5	0	0	0	0	551	142	
6	0	0	0	0	551	143	
7	0	0	0	0	553	143	
8	0	0	0	0	554	142	
9	0	0	0	0	556	142	
10	0	0	0	0	558	143	
11	0	0	0	0	559	143	
12	0	0	0	0	558	142	
13	0	0	0	0	556	143	
14	0	0	0	0	556	143	
15	0	0	0	0	556	142	
0	0	0	0	0	557	143	
1	0	0	0	0	555	143	
2	0	0	0	0	555	142	
3	0	0	0	0	555	142	
4	0	0	0	0	555	143	
5	0	0	0	0	555	143	
6	0	0	0	0	556	142	
7	0	0	0	0	556	143	
8	0	0	0	0	554	143	
9	0	0	0	0	555	143	
10	0	0	0	0	555	142	
11	0	0	0	0	553	143	
12	0	0	0	0	552	143	
13	0	0	0	0	553	143	
14	0	0	0	0	552	142	
15	0	0	0	0	553	143	
0	0	0	0	0	552	143	
1	0	0	0	0	551	142	
2	0	0	0	0	550	142	
3	0	0	0	0	547	143	
4	0	0	0	0	546	143	
5	0	0	0	0	545	142	
6	0	0	0	0	544	143	
7	0	0	0	0	543	143	
8	0	0	0	0	542	142	
9	0	0	0	0	542	142	
10	0	0	0	0	541	143	
11	0	0	0	0	539	143	
12	0	0	0	0	540	142	
13	0	0	0	0	540	143	
14	0	0	0	0	541	143	
15	0	0	0	0	541	142	
0	0	0	0	0	541	143	
1	0	0	0	0	538	143	
2	0	0	0	0	536	142	
3	0	0	0	0	535	143	
4	0	0	0	0	534	143	
5	0	0	0	0	533	142	
6	0	0	0	0	531	142	
7	0	0	0	0	531	143	
8	0	0	0	0	530	143	
9	0	0	0	0	529	142	
10	0	0	0	0	529	143	
11	0	0	0	0	528	143	
12	0	0	0	0	526	143	
13	0	0	0	0	525	142	
14	0	0	0	0	523	143	
15	0	0	0	0	522	143	
0	0	0	0	0	522	142	
1	0	0	0	0	521	143	
2	0	0	0	0	521	143	
3	0	0	0	0	518	143	
4	0	0	0	0	517	142	
5	0	0	0	0	516	143	
6	0	0	0	0	516	143	
7	0	0	0	0	518	142	
8	0	0	0	0	520	143	
9	0	0	0	0	520	143	
10	0	0	0	0	519	142	
11	0	0	0	0	519	143	
12	0	0	0	0	518	143	
13	0	0	0	0	513	142	
14	0	0	0	0	511	142	
15	0	0	0	0	511	143	
0	0	0	0	0	509	143	
1	0	0	0	0	508	142	
2	0	0	0	0	506	142	
3	0	0	0	0	505	143	
4	0	0	0	0	508	143	
5	0	0	0	0	512	142	
6	0	0	0	0	511	143	
7	0	0	0	0	504	143	
8	0	0	0	0	498	142	
9	0	0	0	0	497	142	
10	0	0	0	0	499	143	
11	0	0	0	0	502	143	
12	0	0	0	0	505	142	
13	0	0	0	0	504	143	
14	0	0	0	0	500	143	
15	0	0	0	0	497	142	
0	0	0	0	0	496	142	
1	0	0	0	0	495	143	
2	0	0	0	0	496	143	
3	0	0	0	0	496	142	
4	0	0	0	0	496	143	
5	0	0	0	0	496	143	
6	0	0	0	0	497	142	
7	0	0	0	0	504	143	
8	0	0	0	0	507	143	
9	0	0	0	0	503	142	
10	0	0	0	0	498	142	
11	0	0	0	0	498	143	
12	0	0	0	0	497	143	
13	0	0	0	0	496	142	
14	0	0	0	0	495	143	
15	0	0	0	0	495	143	
0	0	0	0	0	496	142	
1	0	0	0	0	495	142	
2	0	0	0	0	492	143	
3	0	0	0	0	492	143	
4	0	0	0	0	492	142	
5	0	0	0	0	492	142	
6	0	0	0	0	494	143	
7	0	0	0	0	499	142	
8	0	0	0	0	505	142	
9	0	0	0	0	510	143	
10	0	0	0	0	507	143	
11	0	0	0	0	500	142	
12	0	0	0	0	495	143	
13	0	0	0	0	494	143	
14	0	0	0	0	494	142	
15	0	0	0	0	495	142	
0	0	0	0	0	495	143	
1	0	0	0	0	495	142	
2	0	0	0	0	494	142	
3	0	0	0	0	494	143	
4	0	0	0	0	496	142	
5	0	0	0	0	499	142	
6	0	0	0	0	499	143	
7	0	0	0	0	497	142	
8	0	0	0	0	496	142	
9	0	0	0	0	494	143	
10	0	0	0	0	493	143	
11	0	0	0	0	492	142	
12	0	0	0	0	493	143	
13	0	0	0	0	495	143	
14	0	0	0	0	496	142	
15	0	0	0	0	494	143	
0	0	0	0	0	494	143	
1	0	0	0	0	494	142	
2	0	0	0	0	496	143	
3	0	0	0	0	495	143	
4	0	0	0	0	495	142	
5	0	0	0	0	495	143	
6	0	0	0	0	496	143	
7	0	0	0	0	496	142	
8	0	0	0	0	497	142	
9	0	0	0	0	497	142	
10	0	0	0	0	497	143	
11	0	0	0	0	495	143	
12	0	0	0	0	493	142	
13	0	0	0	0	493	143	
14	0	0	0	0	494	143	
15	0	0	0	0	494	142	
0	0	0	0	0	494	143	
1	0	0	0	0	494	143	
2	0	0	0	0	493	142	
3	0	0	0	0	492	143	
4	0	0	0	0	491	143	
5	0	0	0	0	489	143	
6	0	0	0	0	489	142	
7	0	0	0	0	488	143	
8	0	0	0	0	489	143	
9	0	0	0	0	489	142	
10	0	0	0	0	489	143	
11	0	0	0	0	490	143	
12	0	0	0	0	491	142	
13	0	0	0	0	491	143	
14	0	0	0	0	491	143	
15	0	0	0	0	492	142	
0	0	0	0	0	491	142	
1	0	0	0	0	491	142	
2	0	0	0	0	491	143	
3	0	0	0	0	492	143	
4	0	0	0	0	491	142	
5	0	0	0	0	491	143	
6	0	0	0	0	490	143	
7	0	0	0	0	489	142	
8	0	0	0	0	489	143	
9	0	0	0	0	489	143	
10	0	0	0	0	491	142	
11	0	0	0	0	492	143	
12	0	0	0	0	493	143	
13	0	0	0	0	492	142	
14	0	0	0	0	492	143	
15	0	0	0	0	492	143	
0	0	0	0	0	493	143	
1	0	0	0	0	493	142	
2	0	0	0	0	493	142	
3	0	0	0	0	493	143	
4	0	0	0	0	494	143	
5	0	0	0	0	493	142	
6	0	0	0	0	492	143	
7	0	0	0	0	492	143	
8	0	0	0	0	492	142	
9	0	0	0	0	491	142	
10	0	0	0	0	491	143	
11	0	0	0	0	491	142	
12	0	0	0	0	490	143	
13	0	0	0	0	490	143	
14	0	0	0	0	488	142	
15	0	0	0	0	487	142	
0	0	0	0	0	487	143	
1	0	0	0	0	488	143	
2	0	0	0	0	489	142	
3	0	0	0	0	489	143	
4	0	0	0	0	489	143	
5	0	0	0	0	489	142	
6	0	0	0	0	489	143	
7	0	0	0	0	488	143	
8	0	0	0	0	488	142	
9	0	0	0	0	488	143	
10	0	0	0	0	488	143	
11	0	0	0	0	488	142	
12	0	0	0	0	487	142	
13	0	0	0	0	487	143	
14	0	0	0	0	488	143	
15	0	0	0	0	488	142	
0	0	0	0	0	488	143	
1	0	0	0	0	488	143	
2	0	0	0	0	489	143	
3	0	0	0	0	490	142	
4	0	0	0	0	490	142	
5	0	0	0	0	490	143	
6	0	0	0	0	490	143	
7	0	0	0	0	489	142	
8	0	0	0	0	488	143	
9	0	0	0	0	488	143	
10	0	0	0	0	489	143	
11	0	0	0	0	488	142	
12	0	0	0	0	489	143	
13	0	0	0	0	488	143	
14	0	0	0	0	489	142	
15	0	0	0	0	490	143	
0	0	0	0	0	489	143	
1	0	0	0	0	490	143	
2	0	0	0	0	491	142	
3	0	0	0	0	492	142	
4	0	0	0	0	492	143	
5	0	0	0	0	494	143	
6	0	0	0	0	494	142	
7	0	0	0	0	492	143	
8	0	0	0	0	492	143	
9	0	0	0	0	492	143	
10	0	0	0	0	492	142	
11	0	0	0	0	492	143	
12	0	0	0	0	493	143	
13	0	0	0	0	494	142	
14	0	0	0	0	494	142	
15	0	0	0	0	495	143	
0	0	0	0	0	496	143	
1	0	0	0	0	496	142	
2	0	0	0	0	495	143	
3	0	0	0	0	496	143	
4	0	0	0	0	495	142	
5	0	0	0	0	497	143	
6	0	0	0	0	498	143	
7	0	0	0	0	498	142	
8	0	0	0	0	498	142	
9	0	0	0	0	498	143	
10	0	0	0	0	499	143	
11	0	0	0	0	497	142	
12	0	0	0	0	497	142	
13	0	0	0	0	497	143	
14	0	0	0	0	496	143	
15	0	0	0	0	497	142	
0	0	0	0	0	497	142	
1	0	0	0	0	498	143	
2	0	0	0	0	499	143	
3	0	0	0	0	499	142	
4	0	0	0	0	500	143	
5	0	0	0	0	502	143	
6	0	0	0	0	502	142	
7	0	0	0	0	501	142	
8	0	0	0	0	500	143	
9	0	0	0	0	499	143	
10	0	0	0	0	499	143	
11	0	0	0	0	500	142	
12	0	0	0	0	500	143	
13	0	0	0	0	501	143	
14	0	0	0	0	504	143	
15	0	0	0	0	504	142	
0	0	0	0	0	504	143	
1	0	0	0	0	503	143	
2	0	0	0	0	504	142	
3	0	0	0	0	504	142	
4	0	0	0	0	505	143	
5	0	0	0	0	506	143	
6	0	0	0	0	505	142	
7	0	0	0	0	506	142	
8	0	0	0	0	508	143	
9	0	0	0	0	507	143	
10	0	0	0	0	505	142	
11	0	0	0	0	505	143	
12	0	0	0	0	505	143	
13	0	0	0	0	505	142	
14	0	0	0	0	506	143	
15	0	0	0	0	507	143	
0	0	0	0	0	509	142	
1	0	0	0	0	510	143	
2	0	0	0	0	512	143	
3	0	0	0	0	512	142	
4	0	0	0	0	513	143	
5	0	0	0	0	513	143	
6	0	0	0	0	510	142	
7	0	0	0	0	510	142	
8	0	0	0	0	510	143	
9	0	0	0	0	511	143	
10	0	0	0	0	513	142	
11	0	0	0	0	513	142	
12	0	0	0	0	512	142	
13	0	0	0	0	512	143	
14	0	0	0	0	512	143	
15	0	0	0	0	512	143	
0	0	0	0	0	513	142	
1	0	0	0	0	514	143	
2	0	0	0	0	515	143	
3	0	0	0	0	518	142	
4	0	0	0	0	519	142	
5	0	0	0	0	519	143	
6	0	0	0	0	518	143	
7	0	0	0	0	518	142	
8	0	0	0	0	516	142	
9	0	0	0	0	515	143	
10	0	0	0	0	515	143	
11	0	0	0	0	516	142	
12	0	0	0	0	517	142	
13	0	0	0	0	517	143	
14	0	0	0	0	516	143	
15	0	0	0	0	513	142	
0	0	0	0	0	511	143	
1	0	0	0	0	511	143	
2	0	0	0	0	511	142	
3	0	0	0	0	511	143	
4	0	0	0	0	511	143	
5	0	0	0	0	511	143	
6	0	0	0	0	511	142	
7	0	0	0	0	511	143	
8	0	0	0	0	510	143	
9	0	0	0	0	510	142	
10	0	0	0	0	510	143	
11	0	0	0	0	509	143	
12	0	0	0	0	509	142	
13	0	0	0	0	509	142	
14	0	0	0	0	509	143	
15	0	0	0	0	509	143	
0	0	0	0	0	510	142	
1	0	0	0	0	512	143	
2	0	0	0	0	514	143	
3	0	0	0	0	515	142	
4	0	0	0	0	515	143	
5	0	0	0	0	515	143	
6	0	0	0	0	514	143	
7	0	0	0	0	514	142	
8	0	0	0	0	513	143	
9	0	0	0	0	514	143	
10	0	0	0	0	515	142	
11	0	0	0	0	514	143	
12	0	0	0	0	513	143	
13	0	0	0	0	512	142	
14	0	0	0	0	512	142	
15	0	0	0	0	512	142	
0	0	0	0	0	512	143	
1	0	0	0	0	513	143	
2	0	0	0	0	513	142	
3	0	0	0	0	513	143	
4	0	0	0	0	512	143	
5	0	0	0	0	512	142	
6	0	0	0	0	510	142	
7	0	0	0	0	509	143	
8	0	0	0	0	507	142	
9	0	0	0	0	506	142	
10	0	0	0	0	506	143	
11	0	0	0	0	507	143	
12	0	0	0	0	507	143	
13	0	0	0	0	505	142	
14	0	0	0	0	504	142	
15	0	0	0	0	503	143	
0	0	0	0	0	503	143	
1	0	0	0	0	504	143	
2	0	0	0	0	504	142	
3	0	0	0	0	504	143	
4	0	0	0	0	504	143	
5	0	0	0	0	503	142	
6	0	0	0	0	502	142	
7	0	0	0	0	502	143	
8	0	0	0	0	502	142	
9	0	0	0	0	502	142	
10	0	0	0	0	501	142	
11	0	0	0	0	501	143	
12	0	0	0	0	502	143	
13	0	0	0	0	502	142	
14	0	0	0	0	501	143	
15	0	0	0	0	502	143	
0	0	0	0	0	501	142	
1	0	0	0	0	502	142	
2	0	0	0	0	503	143	
3	0	0	0	0	504	142	
4	0	0	0	0	504	142	
5	0	0	0	0	505	143	
6	0	0	0	0	505	143	
7	0	0	0	0	505	142	
8	0	0	0	0	505	143	
9	0	0	0	0	504	143	
10	0	0	0	0	503	142	
11	0	0	0	0	503	142	
12	0	0	0	0	502	143	
13	0	0	0	0	502	142	
14	0	0	0	0	501	142	
15	0	0	0	0	503	143	
0	0	0	0	0	504	143	
1	0	0	0	0	504	142	
2	0	0	0	0	503	142	
3	0	0	0	0	502	143	
4	0	0	0	0	503	143	
5	0	0	0	0	504	142	
6	0	0	0	0	503	143	
7	0	0	0	0	503	143	
8	0	0	0	0	502	142	
9	0	0	0	0	501	143	
10	0	0	0	0	501	143	
11	0	0	0	0	500	142	
12	0	0	0	0	499	142	
13	0	0	0	0	500	143	
14	0	0	0	0	500	143	
15	0	0	0	0	501	143	
0	0	0	0	0	502	142	
1	0	0	0	0	502	143	
2	0	0	0	0	503	143	
3	0	0	0	0	504	143	
4	0	0	0	0	504	142	
5	0	0	0	0	504	143	
6	0	0	0	0	505	143	
7	0	0	0	0	506	142	
8	0	0	0	0	507	142	
9	0	0	0	0	507	143	
10	0	0	0	0	508	143	
11	0	0	0	0	507	142	
12	0	0	0	0	505	143	
13	0	0	0	0	503	143	
14	0	0	0	0	502	143	
15	0	0	0	0	501	142	
0	0	0	0	0	502	142	
1	0	0	0	0	502	143	
2	0	0	0	0	502	143	
3	0	0	0	0	502	142	
4	0	0	0	0	503	143	
5	0	0	0	0	504	143	
6	0	0	0	0	504	142	
7	0	0	0	0	505	143	
8	0	0	0	0	505	143	
9	0	0	0	0	504	142	
10	0	0	0	0	504	142	
11	0	0	0	0	504	143	
12	0	0	0	0	503	142	
13	0	0	0	0	503	142	
14	0	0	0	0	504	143	
15	0	0	0	0	504	143	
0	0	0	0	0	505	142	
1	0	0	0	0	504	142	
2	0	0	0	0	505	143	
3	0	0	0	0	504	143	
4	0	0	0	0	503	142	
5	0	0	0	0	503	142	
6	0	0	0	0	504	143	
7	0	0	0	0	504	143	
8	0	0	0	0	505	142	
9	0	0	0	0	506	142	
10	0	0	0	0	506	143	
11	0	0	0	0	506	143	
12	0	0	0	0	506	142	
13	0	0	0	0	507	143	
14	0	0	0	0	505	143	
15	0	0	0	0	506	142	
0	0	0	0	0	505	143	
1	0	0	0	0	505	143	
2	0	0	0	0	506	142	
3	0	0	0	0	506	143	
4	0	0	0	0	506	143	
5	0	0	0	0	505	142	
6	0	0	0	0	505	143	
7	0	0	0	0	505	143	
8	0	0	0	0	506	142	
9	0	0	0	0	505	143	
10	0	0	0	0	505	143	
11	0	0	0	0	506	142	
12	0	0	0	0	507	142	
13	0	0	0	0	508	143	
14	0	0	0	0	507	143	
15	0	0	0	0	506	143	
0	0	0	0	0	506	142	
1	0	0	0	0	507	143	
2	0	0	0	0	508	143	
3	0	0	0	0	508	143	
4	0	0	0	0	507	142	
5	0	0	0	0	508	143	
6	0	0	0	0	508	143	
7	0	0	0	0	508	142	
8	0	0	0	0	508	143	
9	0	0	0	0	508	143	
10	0	0	0	0	509	142	
11	0	0	0	0	510	143	
12	0	0	0	0	510	143	
13	0	0	0	0	510	142	
14	0	0	0	0	511	142	
15	0	0	0	0	510	143	
0	0	0	0	0	510	143	
1	0	0	0	0	511	142	
2	0	0	0	0	512	143	
3	0	0	0	0	513	143	
4	0	0	0	0	512	142	
5	0	0	0	0	510	143	
6	0	0	0	0	508	142	
7	0	0	0	0	508	142	
8	0	0	0	0	508	143	
9	0	0	0	0	508	142	
10	0	0	0	0	507	142	
11	0	0	0	0	506	143	
12	0	0	0	0	504	143	
13	0	0	0	0	504	142	
14	0	0	0	0	505	142	
15	0	0	0	0	507	143	
0	0	0	0	0	507	142	
1	0	0	0	0	506	142	
2	0	0	0	0	504	143	
3	0	0	0	0	502	142	
4	0	0	0	0	501	143	
5	0	0	0	0	502	143	
6	0	0	0	0	503	143	
7	0	0	0	0	503	142	
8	0	0	0	0	503	143	
9	0	0	0	0	503	143	
10	0	0	0	0	505	142	
11	0	0	0	0	505	143	
12	0	0	0	0	505	143	
13	0	0	0	0	508	142	
14	0	0	0	0	511	143	
15	0	0	0	0	513	142	
0	0	0	0	0	513	142	
1	0	0	0	0	512	143	
2	0	0	0	0	513	143	
3	0	0	0	0	514	142	
4	0	0	0	0	515	143	
5	0	0	0	0	517	143	
6	0	0	0	0	515	142	
7	0	0	0	0	515	143	
8	0	0	0	0	515	143	
9	0	0	0	0	516	142	
10	0	0	0	0	518	143	
11	0	0	0	0	518	143	
12	0	0	0	0	520	142	
13	0	0	0	0	523	142	
14	0	0	0	0	526	143	
15	0	0	0	0	528	143	
0	0	0	0	0	528	142	
1	0	0	0	0	530	142	
2	0	0	0	0	531	143	
3	0	0	0	0	533	143	
4	0	0	0	0	534	142	
5	0	0	0	0	534	143	
6	0	0	0	0	535	142	
7	0	0	0	0	534	142	
8	0	0	0	0	531	143	
9	0	0	0	0	528	142	
10	0	0	0	0	526	142	
11	0	0	0	0	521	143	
12	0	0	0	0	516	142	
13	0	0	0	0	511	142	
14	0	0	0	0	507	143	
15	0	0	0	0	501	142	
0	0	0	0	0	494	142	
1	0	0	0	0	488	143	
2	0	0	0	0	484	142	
3	0	0	0	0	482	143	
4	0	0	0	0	481	143	
5	0	0	0	0	479	142	
6	0	0	0	0	475	143	
7	0	0	0	0	471	143	
8	0	0	0	0	467	142	
9	0	0	0	0	465	143	
10	0	0	0	0	463	143	
11	0	0	0	0	461	142	
12	0	0	0	0	459	143	
13	0	0	0	0	457	143	
14	0	0	0	0	456	142	
15	0	0	0	0	456	143	
0	0	0	0	0	454	142	
1	0	0	0	0	452	143	
2	0	0	0	0	450	143	
3	0	0	0	0	449	142	
4	0	0	0	0	450	143	
5	0	0	0	0	451	143	
6	0	0	0	0	453	143	
7	0	0	0	0	455	143	
8	0	0	0	0	459	143	
9	0	0	0	0	465	142	
10	0	0	0	0	468	143	
11	0	0	0	0	472	143	
12	0	0	0	0	473	142	
13	0	0	0	0	478	142	
14	0	0	0	0	483	143	
15	0	0	0	0	487	143	
0	0	0	0	0	492	142	
1	0	0	0	0	498	143	
2	0	0	0	0	503	143	
3	0	0	0	0	505	142	
4	0	0	0	0	507	143	
5	0	0	0	0	509	142	
6	0	0	0	0	512	143	
7	0	0	0	0	512	143	
8	0	0	0	0	513	142	
9	0	0	0	0	512	143	
10	0	0	0	0	512	143	
11	0	0	0	0	514	143	
12	0	0	0	0	515	142	
13	0	0	0	0	515	143	
14	0	0	0	0	516	143	
15	0	0	0	0	518	142	
0	0	0	0	0	519	143	
1	0	0	0	0	520	143	
2	0	0	0	0	519	142	
3	0	0	0	0	518	143	
4	0	0	0	0	519	143	
5	0	0	0	0	519	142	
6	0	0	0	0	518	143	
7	0	0	0	0	517	143	
8	0	0	0	0	517	142	
9	0	0	0	0	517	143	
10	0	0	0	0	519	143	
11	0	0	0	0	520	142	
12	0	0	0	0	523	142	
13	0	0	0	0	523	143	
14	0	0	0	0	523	142	
15	0	0	0	0	522	142	
0	0	0	0	0	523	143	
1	0	0	0	0	522	143	
2	0	0	0	0	523	142	
3	0	0	0	0	524	143	
4	0	0	0	0	526	143	
5	0	0	0	0	525	142	
6	0	0	0	0	524	142	
7	0	0	0	0	523	143	
8	0	0	0	0	523	142	
9	0	0	0	0	523	142	
10	0	0	0	0	523	143	
11	0	0	0	0	523	143	
12	0	0	0	0	522	142	
13	0	0	0	0	522	142	
14	0	0	0	0	523	143	
15	0	0	0	0	523	142	
0	0	0	0	0	522	142	
1	0	0	0	0	521	143	
2	0	0	0	0	522	143	
3	0	0	0	0	523	143	
4	0	0	0	0	523	142	
5	0	0	0	0	522	142	
6	0	0	0	0	522	143	
7	0	0	0	0	521	143	
8	0	0	0	0	520	142	
9	0	0	0	0	520	143	
10	0	0	0	0	521	143	
11	0	0	0	0	520	142	
12	0	0	0	0	522	143	
13	0	0	0	0	522	143	
14	0	0	0	0	521	142	
15	0	0	0	0	522	143	
0	0	0	0	0	521	143	
1	0	0	0	0	521	142	
2	0	0	0	0	521	143	
3	0	0	0	0	523	143	
4	0	0	0	0	523	142	
5	0	0	0	0	523	142	
6	0	0	0	0	523	143	
7	0	0	0	0	523	142	
8	0	0	0	0	523	143	
9	0	0	0	0	522	143	
10	0	0	0	0	521	143	
11	0	0	0	0	520	142	
12	0	0	0	0	521	143	
13	0	0	0	0	522	143	
14	0	0	0	0	523	142	
15	0	0	0	0	523	142	
0	0	0	0	0	521	142	
1	0	0	0	0	520	143	
2	0	0	0	0	520	143	
3	0	0	0	0	519	142	
4	0	0	0	0	519	142	
5	0	0	0	0	519	143	
6	0	0	0	0	520	143	
7	0	0	0	0	520	142	
8	0	0	0	0	520	143	
9	0	0	0	0	522	143	
10	0	0	0	0	523	142	
11	0	0	0	0	525	142	
12	0	0	0	0	526	143	
13	0	0	0	0	525	143	
14	0	0	0	0	524	143	
15	0	0	0	0	524	142	
0	0	0	0	0	525	143	
1	0	0	0	0	525	143	
2	0	0	0	0	525	142	
3	0	0	0	0	525	142	
4	0	0	0	0	525	143	
5	0	0	0	0	525	143	
6	0	0	0	0	525	142	
7	0	0	0	0	525	143	
8	0	0	0	0	524	143	
9	0	0	0	0	526	142	
10	0	0	0	0	527	143	
11	0	0	0	0	529	143	
12	0	0	0	0	530	142	
13	0	0	0	0	531	143	
14	0	0	0	0	531	143	
15	0	0	0	0	531	142	
0	0	0	0	0	530	143	
1	0	0	0	0	529	143	
2	0	0	0	0	530	142	
3	0	0	0	0	529	142	
4	0	0	0	0	531	143	
5	0	0	0	0	531	143	
6	0	0	0	0	531	142	
7	0	0	0	0	531	142	
8	0	0	0	0	530	143	
9	0	0	0	0	531	143	
10	0	0	0	0	531	142	
11	0	0	0	0	532	143	
12	0	0	0	0	533	143	
13	0	0	0	0	534	142	
14	0	0	0	0	534	142	
15	0	0	0	0	532	143	
0	0	0	0	0	533	143	
1	0	0	0	0	532	142	
2	0	0	0	0	534	143	
3	0	0	0	0	535	143	
4	0	0	0	0	535	143	
5	0	0	0	0	535	142	
6	0	0	0	0	536	142	
7	0	0	0	0	536	142	
8	0	0	0	0	537	143	
9	0	0	0	0	536	143	
10	0	0	0	0	536	143	
11	0	0	0	0	534	142	
12	0	0	0	0	536	143	
13	0	0	0	0	537	143	
14	0	0	0	0	536	142	
15	0	0	0	0	538	142	
0	0	0	0	0	538	143	
1	0	0	0	0	538	142	
2	0	0	0	0	538	142	
3	0	0	0	0	539	143	
4	0	0	0	0	541	142	
5	0	0	0	0	542	143	
6	0	0	0	0	545	143	
7	0	0	0	0	545	142	
8	0	0	0	0	543	143	
9	0	0	0	0	542	143	
10	0	0	0	0	542	142	
11	0	0	0	0	542	143	
12	0	0	0	0	542	143	
13	0	0	0	0	543	142	
14	0	0	0	0	544	143	
15	0	0	0	0	544	143	
0	0	0	0	0	544	142	
1	0	0	0	0	545	143	
2	0	0	0	0	543	143	
3	0	0	0	0	543	142	
4	0	0	0	0	543	142	
5	0	0	0	0	543	143	
6	0	0	0	0	544	143	
7	0	0	0	0	544	142	
8	0	0	0	0	545	142	
9	0	0	0	0	546	143	
10	0	0	0	0	546	143	
11	0	0	0	0	544	142	
12	0	0	0	0	543	143	
13	0	0	0	0	544	143	
14	0	0	0	0	544	142	
15	0	0	0	0	545	143	
0	0	0	0	0	545	143	
1	0	0	0	0	545	142	
2	0	0	0	0	544	142	
3	0	0	0	0	544	143	
4	0	0	0	0	544	143	
5	0	0	0	0	545	142	
6	0	0	0	0	545	143	
7	0	0	0	0	547	143	
8	0	0	0	0	548	142	
9	0	0	0	0	548	143	
10	0	0	0	0	548	143	
11	0	0	0	0	548	142	
12	0	0	0	0	548	142	
13	0	0	0	0	547	143	
14	0	0	0	0	547	142	
15	0	0	0	0	546	142	
0	0	0	0	0	545	143	
1	0	0	0	0	545	142	
2	0	0	0	0	545	142	
3	0	0	0	0	547	143	
4	0	0	0	0	548	143	
5	0	0	0	0	548	141	
6	0	0	0	0	549	142	
7	0	0	0	0	549	143	
8	0	0	0	0	548	143	
9	0	0	0	0	548	142	
10	0	0	0	0	548	143	
11	0	0	0	0	548	143	
12	0	0	0	0	547	143	
13	0	0	0	0	548	142	
14	0	0	0	0	549	142	
15	0	0	0	0	548	143	
0	0	0	0	0	549	143	
1	0	0	0	0	547	142	
2	0	0	0	0	547	142	
3	0	0	0	0	545	143	
4	0	0	0	0	544	143	
5	0	0	0	0	545	143	
6	0	0	0	0	546	142	
7	0	0	0	0	547	143	
8	0	0	0	0	547	142	
9	0	0	0	0	547	142	
10	0	0	0	0	546	143	
11	0	0	0	0	545	143	
12	0	0	0	0	545	143	
13	0	0	0	0	543	142	
14	0	0	0	0	543	142	
15	0	0	0	0	543	143	
0	0	0	0	0	542	143	
1	0	0	0	0	540	142	
2	0	0	0	0	539	143	
3	0	0	0	0	539	143	
4	0	0	0	0	539	142	
5	0	0	0	0	538	143	
6	0	0	0	0	537	143	
7	0	0	0	0	537	142	
8	0	0	0	0	537	142	
9	0	0	0	0	538	143	
10	0	0	0	0	536	143	
11	0	0	0	0	534	143	
12	0	0	0	0	532	142	
13	0	0	0	0	533	143	
14	0	0	0	0	535	143	
15	0	0	0	0	534	142	
0	0	0	0	0	532	142	
1	0	0	0	0	530	143	
2	0	0	0	0	528	143	
3	0	0	0	0	528	142	
4	0	0	0	0	528	142	
5	0	0	0	0	530	143	
6	0	0	0	0	531	143	
7	0	0	0	0	530	142	
8	0	0	0	0	530	142	
9	0	0	0	0	528	143	
10	0	0	0	0	527	143	
11	0	0	0	0	526	142	
12	0	0	0	0	525	143	
13	0	0	0	0	524	143	
14	0	0	0	0	523	143	
15	0	0	0	0	523	142	
0	0	0	0	0	522	143	
1	0	0	0	0	522	143	
2	0	0	0	0	522	142	
3	0	0	0	0	523	143	
4	0	0	0	0	522	143	
5	0	0	0	0	521	142	
6	0	0	0	0	519	143	
7	0	0	0	0	518	143	
8	0	0	0	0	517	142	
9	0	0	0	0	517	143	
10	0	0	0	0	517	143	
11	0	0	0	0	517	142	
12	0	0	0	0	518	143	
13	0	0	0	0	519	143	
14	0	0	0	0	517	142	
15	0	0	0	0	514	143	
0	0	0	0	0	512	143	
1	0	0	0	0	512	142	
2	0	0	0	0	513	143	
3	0	0	0	0	511	143	
4	0	0	0	0	509	142	
5	0	0	0	0	509	142	
6	0	0	0	0	511	143	
7	0	0	0	0	510	143	
8	0	0	0	0	510	142	
9	0	0	0	0	509	142	
10	0	0	0	0	507	143	
11	0	0	0	0	507	142	
12	0	0	0	0	507	142	
13	0	0	0	0	507	143	
14	0	0	0	0	507	142	
15	0	0	0	0	507	143	
0	0	0	0	0	507	143	
1	0	0	0	0	508	143	
2	0	0	0	0	508	142	
3	0	0	0	0	509	143	
4	0	0	0	0	508	143	
5	0	0	0	0	508	143	
6	0	0	0	0	509	142	
7	0	0	0	0	509	142	
8	0	0	0	0	508	143	
9	0	0	0	0	508	143	
10	0	0	0	0	508	143	
11	0	0	0	0	508	142	
12	0	0	0	0	508	143	
13	0	0	0	0	507	143	
14	0	0	0	0	506	143	
15	0	0	0	0	507	143	
0	0	0	0	0	507	142	
1	0	0	0	0	507	143	
2	0	0	0	0	508	143	
3	0	0	0	0	509	142	
4	0	0	0	0	509	143	
5	0	0	0	0	508	143	
6	0	0	0	0	507	142	
7	0	0	0	0	505	143	
8	0	0	0	0	505	143	
9	0	0	0	0	505	142	
10	0	0	0	0	504	143	
11	0	0	0	0	504	143	
12	0	0	0	0	504	143	
13	0	0	0	0	505	142	
14	0	0	0	0	505	142	
15	0	0	0	0	506	143	
0	0	0	0	0	507	143	
1	0	0	0	0	508	142	
2	0	0	0	0	509	142	
3	0	0	0	0	508	143	
4	0	0	0	0	507	143	
5	0	0	0	0	504	142	
6	0	0	0	0	503	143	
7	0	0	0	0	503	143	
8	0	0	0	0	504	142	
9	0	0	0	0	504	143	
10	0	0	0	0	504	143	
11	0	0	0	0	506	143	
12	0	0	0	0	507	142	
13	0	0	0	0	508	142	
14	0	0	0	0	507	143	
15	0	0	0	0	506	143	
0	0	0	0	0	507	142	
1	0	0	0	0	507	143	
2	0	0	0	0	507	143	
3	0	0	0	0	506	142	
4	0	0	0	0	507	143	
5	0	0	0	0	506	143	
6	0	0	0	0	505	142	
7	0	0	0	0	505	143	
8	0	0	0	0	504	143	
9	0	0	0	0	504	142	
10	0	0	0	0	503	142	
11	0	0	0	0	502	143	
12	0	0	0	0	502	143	
13	0	0	0	0	503	142	
14	0	0	0	0	504	142	
15	0	0	0	0	505	143	
0	0	0	0	0	505	143	
1	0	0	0	0	506	143	
2	0	0	0	0	506	142	
3	0	0	0	0	504	143	
4	0	0	0	0	503	143	
5	0	0	0	0	503	142	
6	0	0	0	0	503	143	
7	0	0	0	0	502	143	
8	0	0	0	0	502	142	
9	0	0	0	0	503	143	
10	0	0	0	0	503	143	
11	0	0	0	0	504	142	
12	0	0	0	0	504	142	
13	0	0	0	0	504	142	
14	0	0	0	0	503	143	
15	0	0	0	0	501	142	
0	0	0	0	0	501	142	
1	0	0	0	0	499	143	
2	0	0	0	0	499	143	
3	0	0	0	0	501	142	
4	0	0	0	0	499	142	
5	0	0	0	0	498	143	
6	0	0	0	0	496	142	
7	0	0	0	0	495	142	
8	0	0	0	0	495	143	
9	0	0	0	0	495	142	
10	0	0	0	0	496	142	
11	0	0	0	0	496	143	
12	0	0	0	0	495	143	
13	0	0	0	0	495	142	
14	0	0	0	0	495	143	
15	0	0	0	0	495	143	
0	0	0	0	0	495	143	
1	0	0	0	0	494	142	
2	0	0	0	0	494	143	
3	0	0	0	0	494	143	
4	0	0	0	0	493	143	
5	0	0	0	0	492	142	
6	0	0	0	0	490	142	
7	0	0	0	0	488	143	
8	0	0	0	0	489	143	
9	0	0	0	0	489	143	
10	0	0	0	0	489	142	
11	0	0	0	0	492	142	
12	0	0	0	0	492	142	
13	0	0	0	0	490	143	
14	0	0	0	0	490	143	
15	0	0	0	0	489	142	
0	0	0	0	0	490	143	
1	0	0	0	0	489	143	
2	0	0	0	0	490	142	
3	0	0	0	0	491	143	
4	0	0	0	0	490	143	
5	0	0	0	0	490	142	
6	0	0	0	0	490	143	
7	0	0	0	0	489	143	
8	0	0	0	0	488	142	
9	0	0	0	0	487	142	
10	0	0	0	0	487	143	
11	0	0	0	0	487	142	
12	0	0	0	0	487	142	
13	0	0	0	0	488	143	
14	0	0	0	0	489	143	
15	0	0	0	0	490	142	
0	0	0	0	0	489	143	
1	0	0	0	0	489	143	
2	0	0	0	0	489	142	
3	0	0	0	0	488	143	
4	0	0	0	0	485	143	
5	0	0	0	0	483	142	
6	0	0	0	0	483	143	
7	0	0	0	0	482	143	
8	0	0	0	0	482	142	
9	0	0	0	0	483	143	
10	0	0	0	0	484	143	
11	0	0	0	0	485	143	
12	0	0	0	0	485	142	
13	0	0	0	0	485	143	
14	0	0	0	0	486	143	
15	0	0	0	0	486	142	
0	0	0	0	0	486	143	
1	0	0	0	0	485	143	
2	0	0	0	0	486	142	
3	0	0	0	0	486	142	
4	0	0	0	0	486	143	
5	0	0	0	0	485	142	
6	0	0	0	0	485	142	
7	0	0	0	0	483	143	
8	0	0	0	0	483	143	
9	0	0	0	0	482	142	
10	0	0	0	0	481	143	
11	0	0	0	0	482	143	
12	0	0	0	0	483	142	
13	0	0	0	0	483	142	
14	0	0	0	0	484	143	
15	0	0	0	0	486	143	
0	0	0	0	0	486	142	
1	0	0	0	0	485	143	
2	0	0	0	0	484	143	
3	0	0	0	0	486	142	
4	0	0	0	0	486	143	
5	0	0	0	0	485	143	
6	0	0	0	0	485	142	
7	0	0	0	0	486	143	
8	0	0	0	0	487	143	
9	0	0	0	0	487	143	
10	0	0	0	0	487	142	
11	0	0	0	0	487	143	
12	0	0	0	0	487	143	
13	0	0	0	0	487	142	
14	0	0	0	0	487	143	
15	0	0	0	0	487	143	
0	0	0	0	0	488	143	
1	0	0	0	0	490	142	
2	0	0	0	0	491	143	
3	0	0	0	0	492	142	
4	0	0	0	0	492	142	
5	0	0	0	0	492	143	
6	0	0	0	0	492	143	
7	0	0	0	0	492	142	
8	0	0	0	0	491	143	
9	0	0	0	0	492	143	
10	0	0	0	0	493	142	
11	0	0	0	0	496	143	
12	0	0	0	0	498	143	
13	0	0	0	0	498	143	
14	0	0	0	0	497	142	
15	0	0	0	0	497	142	
0	0	0	0	0	499	143	
1	0	0	0	0	501	143	
2	0	0	0	0	503	143	
3	0	0	0	0	504	142	
4	0	0	0	0	505	142	
5	0	0	0	0	505	143	
6	0	0	0	0	505	142	
7	0	0	0	0	505	142	
8	0	0	0	0	505	143	
9	0	0	0	0	503	142	
10	0	0	0	0	503	142	
11	0	0	0	0	505	143	
12	0	0	0	0	507	143	
13	0	0	0	0	506	142	
14	0	0	0	0	504	142	
15	0	0	0	0	505	143	
0	0	0	0	0	506	143	
1	0	0	0	0	506	142	
2	0	0	0	0	506	142	
3	0	0	0	0	506	143	
4	0	0	0	0	505	143	
5	0	0	0	0	503	142	
6	0	0	0	0	503	143	
7	0	0	0	0	504	143	
8	0	0	0	0	505	142	
9	0	0	0	0	505	143	
10	0	0	0	0	504	143	
11	0	0	0	0	502	142	
12	0	0	0	0	503	142	
13	0	0	0	0	504	143	
14	0	0	0	0	504	143	
15	0	0	0	0	505	142	
0	0	0	0	0	504	143	
1	0	0	0	0	505	143	
2	0	0	0	0	506	143	
3	0	0	0	0	507	142	
4	0	0	0	0	508	142	
5	0	0	0	0	507	143	
6	0	0	0	0	508	143	
7	0	0	0	0	508	142	
8	0	0	0	0	507	142	
9	0	0	0	0	507	143	
10	0	0	0	0	507	142	
11	0	0	0	0	508	142	
12	0	0	0	0	507	143	
13	0	0	0	0	507	143	
14	0	0	0	0	506	143	
15	0	0	0	0	505	142	
0	0	0	0	0	507	143	
1	0	0	0	0	508	143	
2	0	0	0	0	509	142	
3	0	0	0	0	511	142	
4	0	0	0	0	509	143	
5	0	0	0	0	508	143	
6	0	0	0	0	508	142	
7	0	0	0	0	508	142	
8	0	0	0	0	506	143	
9	0	0	0	0	504	143	
10	0	0	0	0	504	143	
11	0	0	0	0	505	142	
12	0	0	0	0	504	143	
13	0	0	0	0	504	143	
14	0	0	0	0	504	143	
15	0	0	0	0	506	142	
0	0	0	0	0	507	143	
1	0	0	0	0	508	143	
2	0	0	0	0	506	142	
3	0	0	0	0	505	142	
4	0	0	0	0	505	143	
5	0	0	0	0	505	143	
6	0	0	0	0	504	142	
7	0	0	0	0	503	142	
8	0	0	0	0	503	143	
9	0	0	0	0	503	143	
10	0	0	0	0	502	142	
11	0	0	0	0	503	143	
12	0	0	0	0	503	143	
13	0	0	0	0	504	143	
14	0	0	0	0	506	142	
15	0	0	0	0	506	142	
0	0	0	0	0	507	143	
1	0	0	0	0	508	143	
2	0	0	0	0	508	143	
3	0	0	0	0	508	142	
4	0	0	0	0	509	143	
5	0	0	0	0	509	143	
6	0	0	0	0	510	142	
7	0	0	0	0	508	142	
8	0	0	0	0	508	143	
9	0	0	0	0	506	143	
10	0	0	0	0	505	143	
11	0	0	0	0	505	142	
12	0	0	0	0	506	142	
13	0	0	0	0	507	143	
14	0	0	0	0	507	143	
15	0	0	0	0	507	142	
0	0	0	0	0	507	143	
1	0	0	0	0	505	143	
2	0	0	0	0	505	142	
3	0	0	0	0	504	142	
4	0	0	0	0	505	143	
5	0	0	0	0	506	143	
6	0	0	0	0	507	142	
7	0	0	0	0	507	143	
8	0	0	0	0	508	143	
9	0	0	0	0	509	142	
10	0	0	0	0	509	142	
11	0	0	0	0	509	143	
12	0	0	0	0	508	142	
13	0	0	0	0	507	142	
14	0	0	0	0	506	143	
15	0	0	0	0	507	142	
0	0	0	0	0	507	142	
1	0	0	0	0	507	143	
2	0	0	0	0	507	143	
3	0	0	0	0	508	142	
4	0	0	0	0	509	143	
5	0	0	0	0	508	143	
6	0	0	0	0	507	142	
7	0	0	0	0	505	143	
8	0	0	0	0	505	143	
9	0	0	0	0	508	142	
10	0	0	0	0	511	143	
11	0	0	0	0	511	142	
12	0	0	0	0	509	142	
13	0	0	0	0	507	143	
14	0	0	0	0	507	143	
15	0	0	0	0	508	142	
0	0	0	0	0	508	142	
1	0	0	0	0	507	143	
2	0	0	0	0	504	142	
3	0	0	0	0	502	142	
4	0	0	0	0	500	143	
5	0	0	0	0	500	143	
6	0	0	0	0	499	142	
7	0	0	0	0	497	143	
8	0	0	0	0	497	143	
9	0	0	0	0	496	142	
10	0	0	0	0	496	143	
11	0	0	0	0	496	143	
12	0	0	0	0	496	142	
13	0	0	0	0	497	143	
14	0	0	0	0	499	143	
15	0	0	0	0	500	142	
0	0	0	0	0	498	143	
1	0	0	0	0	497	143	
2	0	0	0	0	497	142	
3	0	0	0	0	497	143	
4	0	0	0	0	498	143	
5	0	0	0	0	497	142	
6	0	0	0	0	497	143	
7	0	0	0	0	497	142	
8	0	0	0	0	498	142	
9	0	0	0	0	497	143	
10	0	0	0	0	496	143	
11	0	0	0	0	495	142	
12	0	0	0	0	496	143	
13	0	0	0	0	496	143	
14	0	0	0	0	496	142	
15	0	0	0	0	496	143	
0	0	0	0	0	497	143	
1	0	0	0	0	499	142	
2	0	0	0	0	500	143	
3	0	0	0	0	500	143	
4	0	0	0	0	500	142	
5	0	0	0	0	500	142	
6	0	0	0	0	499	143	
7	0	0	0	0	500	143	
8	0	0	0	0	501	142	
9	0	0	0	0	500	143	
10	0	0	0	0	499	143	
11	0	0	0	0	499	142	
12	0	0	0	0	499	143	
13	0	0	0	0	498	143	
14	0	0	0	0	498	142	
15	0	0	0	0	497	143	
0	0	0	0	0	499	143	
1	0	0	0	0	499	143	
2	0	0	0	0	498	142	
3	0	0	0	0	498	143	
4	0	0	0	0	498	143	
5	0	0	0	0	501	142	
6	0	0	0	0	503	142	
7	0	0	0	0	505	143	
8	0	0	0	0	506	143	
9	0	0	0	0	505	142	
10	0	0	0	0	505	142	
11	0	0	0	0	504	143	
12	0	0	0	0	504	143	
13	0	0	0	0	507	142	
14	0	0	0	0	509	143	
15	0	0	0	0	509	143	
0	0	0	0	0	508	142	
1	0	0	0	0	508	142	
2	0	0	0	0	508	143	
3	0	0	0	0	507	142	
4	0	0	0	0	508	143	
5	0	0	0	0	508	143	
6	0	0	0	0	508	143	
7	0	0	0	0	509	142	
8	0	0	0	0	510	143	
9	0	0	0	0	510	143	
10	0	0	0	0	511	142	
11	0	0	0	0	511	143	
12	0	0	0	0	511	142	
13	0	0	0	0	511	142	
14	0	0	0	0	512	143	
15	0	0	0	0	511	143	
0	0	0	0	0	510	142	
1	0	0	0	0	510	143	
2	0	0	0	0	511	143	
3	0	0	0	0	511	143	
4	0	0	0	0	511	142	
5	0	0	0	0	511	142	
6	0	0	0	0	512	142	
7	0	0	0	0	514	143	
8	0	0	0	0	513	143	
9	0	0	0	0	513	142	
10	0	0	0	0	513	142	
11	0	0	0	0	512	143	
12	0	0	0	0	513	143	
13	0	0	0	0	514	142	
14	0	0	0	0	515	142	
15	0	0	0	0	515	143	
0	0	0	0	0	513	143	
1	0	0	0	0	513	142	
2	0	0	0	0	512	143	
3	0	0	0	0	512	143	
4	0	0	0	0	512	142	
5	0	0	0	0	511	142	
6	0	0	0	0	511	143	
7	0	0	0	0	511	143	
8	0	0	0	0	512	143	
9	0	0	0	0	513	142	
10	0	0	0	0	512	143	
11	0	0	0	0	512	143	
12	0	0	0	0	514	142	
13	0	0	0	0	515	143	
14	0	0	0	0	513	143	
15	0	0	0	0	512	142	
0	0	0	0	0	512	142	
1	0	0	0	0	512	143	
2	0	0	0	0	512	143	
3	0	0	0	0	512	142	
4	0	0	0	0	512	142	
5	0	0	0	0	512	143	
6	0	0	0	0	512	143	
7	0	0	0	0	511	142	
8	0	0	0	0	511	143	
9	0	0	0	0	512	143	
10	0	0	0	0	512	142	
11	0	0	0	0	512	142	
12	0	0	0	0	511	143	
13	0	0	0	0	510	143	
14	0	0	0	0	508	142	
15	0	0	0	0	507	143	
0	0	0	0	0	508	143	
1	0	0	0	0	508	142	
2	0	0	0	0	508	143	
3	0	0	0	0	509	143	
4	0	0	0	0	509	142	
5	0	0	0	0	507	143	
6	0	0	0	0	507	143	
7	0	0	0	0	509	142	
8	0	0	0	0	511	143	
9	0	0	0	0	512	143	
10	0	0	0	0	511	142	
11	0	0	0	0	511	142	
12	0	0	0	0	510	143	
13	0	0	0	0	509	143	
14	0	0	0	0	510	142	
15	0	0	0	0	508	142	
0	0	0	0	0	507	143	
1	0	0	0	0	506	143	
2	0	0	0	0	504	142	
3	0	0	0	0	504	143	
4	0	0	0	0	504	143	
5	0	0	0	0	504	142	
6	0	0	0	0	505	143	
7	0	0	0	0	507	143	
8	0	0	0	0	508	142	
9	0	0	0	0	508	142	
10	0	0	0	0	509	143	
11	0	0	0	0	512	142	
12	0	0	0	0	512	142	
13	0	0	0	0	511	143	
14	0	0	0	0	508	143	
15	0	0	0	0	504	142	
0	0	0	0	0	503	143	
1	0	0	0	0	503	143	
2	0	0	0	0	506	142	
3	0	0	0	0	507	142	
4	0	0	0	0	506	143	
5	0	0	0	0	508	143	
6	0	0	0	0	509	142	
7	0	0	0	0	511	143	
8	0	0	0	0	512	143	
9	0	0	0	0	512	142	
10	0	0	0	0	514	142	
11	0	0	0	0	516	143	
12	0	0	0	0	519	143	
13	0	0	0	0	519	142	
14	0	0	0	0	518	142	
15	0	0	0	0	519	143	
0	0	0	0	0	520	142	
1	0	0	0	0	521	142	
2	0	0	0	0	523	143	
3	0	0	0	0	524	143	
4	0	0	0	0	525	142	
5	0	0	0	0	526	143	
6	0	0	0	0	527	143	
7	0	0	0	0	529	142	
8	0	0	0	0	530	142	
9	0	0	0	0	533	143	
10	0	0	0	0	535	143	
11	0	0	0	0	539	142	
12	0	0	0	0	541	142	
13	0	0	0	0	543	143	
14	0	0	0	0	545	142	
15	0	0	0	0	547	142	
0	0	0	0	0	548	143	
1	0	0	0	0	547	142	
2	0	0	0	0	547	142	
3	0	0	0	0	546	143	
4	0	0	0	0	543	143	
5	0	0	0	0	539	143	
6	0	0	0	0	535	142	
7	0	0	0	0	531	143	
8	0	0	0	0	525	143	
9	0	0	0	0	520	142	
10	0	0	0	0	515	143	
11	0	0	0	0	510	143	
12	0	0	0	0	504	142	
13	0	0	0	0	499	143	
14	0	0	0	0	494	143	
15	0	0	0	0	491	143	
0	0	0	0	0	487	142	
1	0	0	0	0	485	143	
2	0	0	0	0	481	143	
3	0	0	0	0	478	142	
4	0	0	0	0	475	142	
5	0	0	0	0	472	143	
6	0	0	0	0	469	143	
7	0	0	0	0	465	142	
8	0	0	0	0	462	143	
9	0	0	0	0	459	143	
10	0	0	0	0	457	142	
11	0	0	0	0	457	142	
12	0	0	0	0	456	143	
13	0	0	0	0	456	143	
14	0	0	0	0	456	142	
15	0	0	0	0	455	143	
0	0	0	0	0	454	143	
1	0	0	0	0	454	142	
2	0	0	0	0	454	142	
3	0	0	0	0	456	143	
4	0	0	0	0	458	142	
5	0	0	0	0	461	142	
6	0	0	0	0	465	143	
7	0	0	0	0	469	143	
8	0	0	0	0	471	142	
9	0	0	0	0	472	143	
10	0	0	0	0	474	143	
11	0	0	0	0	478	142	
12	0	0	0	0	481	142	
13	0	0	0	0	484	143	
14	0	0	0	0	489	143	
15	0	0	0	0	494	142	
0	0	0	0	0	497	143	
1	0	0	0	0	499	143	
2	0	0	0	0	500	142	
3	0	0	0	0	501	143	
4	0	0	0	0	503	143	
5	0	0	0	0	504	142	
6	0	0	0	0	504	143	
7	0	0	0	0	504	143	
8	0	0	0	0	505	142	
9	0	0	0	0	506	143	
10	0	0	0	0	507	143	
11	0	0	0	0	507	142	
12	0	0	0	0	506	143	
13	0	0	0	0	506	143	
14	0	0	0	0	506	142	
15	0	0	0	0	507	143	
0	0	0	0	0	508	143	
1	0	0	0	0	509	142	
2	0	0	0	0	509	142	
3	0	0	0	0	510	143	
4	0	0	0	0	511	143	
5	0	0	0	0	511	142	
6	0	0	0	0	510	143	
7	0	0	0	0	510	143	
8	0	0	0	0	508	142	
9	0	0	0	0	508	142	
10	0	0	0	0	508	143	
11	0	0	0	0	508	142	
12	0	0	0	0	507	142	
13	0	0	0	0	506	143	
14	0	0	0	0	507	142	
15	0	0	0	0	509	142	
0	0	0	0	0	509	143	
1	0	0	0	0	510	143	
2	0	0	0	0	510	142	
3	0	0	0	0	510	142	
4	0	0	0	0	510	143	
5	0	0	0	0	511	143	
6	0	0	0	0	511	142	
7	0	0	0	0	511	143	
8	0	0	0	0	510	143	
9	0	0	0	0	508	142	
10	0	0	0	0	508	143	
11	0	0	0	0	508	143	
12	0	0	0	0	508	142	
13	0	0	0	0	509	143	
14	0	0	0	0	509	143	
15	0	0	0	0	510	142	
0	0	0	0	0	510	143	
1	0	0	0	0	510	143	
2	0	0	0	0	510	142	
3	0	0	0	0	511	143	
4	0	0	0	0	511	143	
5	0	0	0	0	512	142	
6	0	0	0	0	513	142	
7	0	0	0	0	515	143	
8	0	0	0	0	515	143	
9	0	0	0	0	512	143	
10	0	0	0	0	511	142	
11	0	0	0	0	511	143	
12	0	0	0	0	511	143	
13	0	0	0	0	511	142	
14	0	0	0	0	511	143	
15	0	0	0	0	511	143	
0	0	0	0	0	512	142	
1	0	0	0	0	513	142	
2	0	0	0	0	514	143	
3	0	0	0	0	514	143	
4	0	0	0	0	513	142	
5	0	0	0	0	513	142	
6	0	0	0	0	513	143	
7	0	0	0	0	513	142	
8	0	0	0	0	512	142	
9	0	0	0	0	513	143	
10	0	0	0	0	513	143	
11	0	0	0	0	513	142	
12	0	0	0	0	512	142	
13	0	0	0	0	510	143	
14	0	0	0	0	510	143	
15	0	0	0	0	511	142	
0	0	0	0	0	512	142	
1	0	0	0	0	513	143	
2	0	0	0	0	514	142	
3	0	0	0	0	514	142	
4	0	0	0	0	515	143	
5	0	0	0	0	517	142	
6	0	0	0	0	516	142	
7	0	0	0	0	515	143	
8	0	0	0	0	515	142	
9	0	0	0	0	514	142	
10	0	0	0	0	514	143	
11	0	0	0	0	513	143	
12	0	0	0	0	514	142	
13	0	0	0	0	515	143	
14	0	0	0	0	516	143	
15	0	0	0	0	516	142	
0	0	0	0	0	515	143	
1	0	0	0	0	514	143	
2	0	0	0	0	514	142	
3	0	0	0	0	515	143	
4	0	0	0	0	515	143	
5	0	0	0	0	515	142	
6	0	0	0	0	516	142	
7	0	0	0	0	516	143	
8	0	0	0	0	516	143	
9	0	0	0	0	517	142	
10	0	0	0	0	518	143	
11	0	0	0	0	520	142	
12	0	0	0	0	519	142	
13	0	0	0	0	518	143	
14	0	0	0	0	519	142	
15	0	0	0	0	518	142	
0	0	0	0	0	519	143	
1	0	0	0	0	519	142	
2	0	0	0	0	521	142	
3	0	0	0	0	523	143	
4	0	0	0	0	522	143	
5	0	0	0	0	521	142	
6	0	0	0	0	521	142	
7	0	0	0	0	522	143	
8	0	0	0	0	523	143	
9	0	0	0	0	524	142	
10	0	0	0	0	525	142	
11	0	0	0	0	526	143	
12	0	0	0	0	525	142	
13	0	0	0	0	525	142	
14	0	0	0	0	526	143	
15	0	0	0	0	527	142	
0	0	0	0	0	528	142	
1	0	0	0	0	529	143	
2	0	0	0	0	528	143	
3	0	0	0	0	528	142	
4	0	0	0	0	529	143	
5	0	0	0	0	529	143	
6	0	0	0	0	529	141	
7	0	0	0	0	530	142	
8	0	0	0	0	532	143	
9	0	0	0	0	534	143	
10	0	0	0	0	536	142	
11	0	0	0	0	536	142	
12	0	0	0	0	534	143	
13	0	0	0	0	534	142	
14	0	0	0	0	534	142	
15	0	0	0	0	535	143	
0	0	0	0	0	534	143	
1	0	0	0	0	536	142	
2	0	0	0	0	536	143	
3	0	0	0	0	536	143	
4	0	0	0	0	536	142	
5	0	0	0	0	536	142	
6	0	0	0	0	537	142	
7	0	0	0	0	537	143	
8	0	0	0	0	537	141	
9	0	0	0	0	537	142	
10	0	0	0	0	538	143	
11	0	0	0	0	539	143	
12	0	0	0	0	538	142	
13	0	0	0	0	539	143	
14	0	0	0	0	540	143	
15	0	0	0	0	540	142	
0	0	0	0	0	540	142	
1	0	0	0	0	540	143	
2	0	0	0	0	540	143	
3	0	0	0	0	540	143	
4	0	0	0	0	540	142	
5	0	0	0	0	540	143	
6	0	0	0	0	540	143	
7	0	0	0	0	539	142	
8	0	0	0	0	539	142	
9	0	0	0	0	539	143	
10	0	0	0	0	540	143	
11	0	0	0	0	540	141	
12	0	0	0	0	541	142	
13	0	0	0	0	542	143	
14	0	0	0	0	541	143	
15	0	0	0	0	540	142	
0	0	0	0	0	539	143	
1	0	0	0	0	540	143	
2	0	0	0	0	540	142	
3	0	0	0	0	541	142	
4	0	0	0	0	542	143	
5	0	0	0	0	543	143	
6	0	0	0	0	542	141	
7	0	0	0	0	541	142	
8	0	0	0	0	540	143	
9	0	0	0	0	541	141	
10	0	0	0	0	542	142	
11	0	0	0	0	543	143	
12	0	0	0	0	544	141	
13	0	0	0	0	543	142	
14	0	0	0	0	542	142	
15	0	0	0	0	541	143	
0	0	0	0	0	541	141	
1	0	0	0	0	541	142	
2	0	0	0	0	542	143	
3	0	0	0	0	544	143	
4	0	0	0	0	544	141	
5	0	0	0	0	543	142	
6	0	0	0	0	543	143	
7	0	0	0	0	541	141	
8	0	0	0	0	542	142	
9	0	0	0	0	543	142	
10	0	0	0	0	544	143	
11	0	0	0	0	544	141	
12	0	0	0	0	541	142	
13	0	0	0	0	539	143	
14	0	0	0	0	538	142	
15	0	0	0	0	537	142	
0	0	0	0	0	537	143	
1	0	0	0	0	537	143	
2	0	0	0	0	537	142	
3	0	0	0	0	536	142	
4	0	0	0	0	536	143	
5	0	0	0	0	536	141	
6	0	0	0	0	533	142	
7	0	0	0	0	533	143	
8	0	0	0	0	533	142	
9	0	0	0	0	534	141	
10	0	0	0	0	534	142	
11	0	0	0	0	535	143	
12	0	0	0	0	534	142	
13	0	0	0	0	534	142	
14	0	0	0	0	533	143	
15	0	0	0	0	531	142	
0	0	0	0	0	530	142	
1	0	0	0	0	529	143	
2	0	0	0	0	529	143	
3	0	0	0	0	528	143	
4	0	0	0	0	529	142	
5	0	0	0	0	529	142	
6	0	0	0	0	529	143	
7	0	0	0	0	528	142	
8	0	0	0	0	528	143	
9	0	0	0	0	527	143	
10	0	0	0	0	526	142	
11	0	0	0	0	524	142	
12	0	0	0	0	524	143	
13	0	0	0	0	524	143	
14	0	0	0	0	522	142	
15	0	0	0	0	521	142	
0	0	0	0	0	520	143	
1	0	0	0	0	519	143	
2	0	0	0	0	518	142	
3	0	0	0	0	516	143	
4	0	0	0	0	515	143	
5	0	0	0	0	515	143	
6	0	0	0	0	515	142	
7	0	0	0	0	515	142	
8	0	0	0	0	515	142	
9	0	0	0	0	515	143	
10	0	0	0	0	515	142	
11	0	0	0	0	514	142	
12	0	0	0	0	513	143	
13	0	0	0	0	513	142	
14	0	0	0	0	513	142	
15	0	0	0	0	512	143	
0	0	0	0	0	512	143	
1	0	0	0	0	511	142	
2	0	0	0	0	510	142	
3	0	0	0	0	509	143	
4	0	0	0	0	508	143	
5	0	0	0	0	509	142	
6	0	0	0	0	508	143	
7	0	0	0	0	507	143	
8	0	0	0	0	506	142	
9	0	0	0	0	508	143	
10	0	0	0	0	507	143	
11	0	0	0	0	507	143	
12	0	0	0	0	508	142	
13	0	0	0	0	508	142	
14	0	0	0	0	508	143	
15	0	0	0	0	508	142	
0	0	0	0	0	507	143	
1	0	0	0	0	507	143	
2	0	0	0	0	508	142	
3	0	0	0	0	508	143	
4	0	0	0	0	507	143	
5	0	0	0	0	506	142	
6	0	0	0	0	505	143	
7	0	0	0	0	504	143	
8	0	0	0	0	505	142	
9	0	0	0	0	505	142	
10	0	0	0	0	505	143	
11	0	0	0	0	505	142	
12	0	0	0	0	503	142	
13	0	0	0	0	504	143	
14	0	0	0	0	504	143	
15	0	0	0	0	503	142	
0	0	0	0	0	503	143	
1	0	0	0	0	503	143	
2	0	0	0	0	503	142	
3	0	0	0	0	503	142	
4	0	0	0	0	503	142	
5	0	0	0	0	502	143	
6	0	0	0	0	500	143	
7	0	0	0	0	500	142	
8	0	0	0	0	502	143	
9	0	0	0	0	503	143	
10	0	0	0	0	503	142	
11	0	0	0	0	502	143	
12	0	0	0	0	502	143	
13	0	0	0	0	504	142	
14	0	0	0	0	505	143	
15	0	0	0	0	504	143	
0	0	0	0	0	504	142	
1	0	0	0	0	505	142	
2	0	0	0	0	505	143	
3	0	0	0	0	504	143	
4	0	0	0	0	504	142	
5	0	0	0	0	505	142	
6	0	0	0	0	505	143	
7	0	0	0	0	506	143	
8	0	0	0	0	506	142	
9	0	0	0	0	506	143	
10	0	0	0	0	506	143	
11	0	0	0	0	507	142	
12	0	0	0	0	508	143	
13	0	0	0	0	508	143	
14	0	0	0	0	508	142	
15	0	0	0	0	509	143	
0	0	0	0	0	509	143	
1	0	0	0	0	508	142	
2	0	0	0	0	508	142	
3	0	0	0	0	507	142	
4	0	0	0	0	507	143	
5	0	0	0	0	508	143	
6	0	0	0	0	508	142	
7	0	0	0	0	509	143	
8	0	0	0	0	509	143	
9	0	0	0	0	507	142	
10	0	0	0	0	507	142	
11	0	0	0	0	510	143	
12	0	0	0	0	512	143	
13	0	0	0	0	510	142	
14	0	0	0	0	508	142	
15	0	0	0	0	507	143	
0	0	0	0	0	506	142	
1	0	0	0	0	505	142	
2	0	0	0	0	506	143	
3	0	0	0	0	506	143	
4	0	0	0	0	507	142	
5	0	0	0	0	506	142	
6	0	0	0	0	505	143	
7	0	0	0	0	504	143	
8	0	0	0	0	503	142	
9	0	0	0	0	504	142	
10	0	0	0	0	505	143	
11	0	0	0	0	508	142	
12	0	0	0	0	508	142	
13	0	0	0	0	507	142	
14	0	0	0	0	507	143	
15	0	0	0	0	504	142	
0	0	0	0	0	504	142	
1	0	0	0	0	504	143	
2	0	0	0	0	504	143	
3	0	0	0	0	504	142	
4	0	0	0	0	505	142	
5	0	0	0	0	504	143	
6	0	0	0	0	503	143	
7	0	0	0	0	503	142	
8	0	0	0	0	505	142	
9	0	0	0	0	505	143	
10	0	0	0	0	505	143	
11	0	0	0	0	505	142	
12	0	0	0	0	505	143	
13	0	0	0	0	506	143	
14	0	0	0	0	507	142	
15	0	0	0	0	507	142	
0	0	0	0	0	507	143	
1	0	0	0	0	506	143	
2	0	0	0	0	506	142	
3	0	0	0	0	506	142	
4	0	0	0	0	507	143	
5	0	0	0	0	506	143	
6	0	0	0	0	506	142	
7	0	0	0	0	507	142	
8	0	0	0	0	507	143	
9	0	0	0	0	507	143	
10	0	0	0	0	507	142	
11	0	0	0	0	508	142	
12	0	0	0	0	510	143	
13	0	0	0	0	509	143	
14	0	0	0	0	510	142	
15	0	0	0	0	510	143	
0	0	0	0	0	510	143	
1	0	0	0	0	510	142	
2	0	0	0	0	510	142	
3	0	0	0	0	508	143	
4	0	0	0	0	508	142	
5	0	0	0	0	506	143	
6	0	0	0	0	505	143	
7	0	0	0	0	504	142	
8	0	0	0	0	505	143	
9	0	0	0	0	507	143	
10	0	0	0	0	508	142	
11	0	0	0	0	508	143	
12	0	0	0	0	507	143	
13	0	0	0	0	506	142	
14	0	0	0	0	505	143	
15	0	0	0	0	504	143	
0	0	0	0	0	504	141	
1	0	0	0	0	504	142	
2	0	0	0	0	506	142	
3	0	0	0	0	505	143	
4	0	0	0	0	503	141	
5	0	0	0	0	502	143	
6	0	0	0	0	503	143	
7	0	0	0	0	504	142	
8	0	0	0	0	505	142	
9	0	0	0	0	504	143	
10	0	0	0	0	505	142	
11	0	0	0	0	505	142	
12	0	0	0	0	506	143	
13	0	0	0	0	505	143	
14	0	0	0	0	505	142	
15	0	0	0	0	504	142	
0	0	0	0	0	504	143	
1	0	0	0	0	505	143	
2	0	0	0	0	505	141	
3	0	0	0	0	505	142	
4	0	0	0	0	505	142	
5	0	0	0	0	505	142	
6	0	0	0	0	504	142	
7	0	0	0	0	504	143	
8	0	0	0	0	503	142	
9	0	0	0	0	503	142	
10	0	0	0	0	502	143	
11	0	0	0	0	501	142	
12	0	0	0	0	500	142	
13	0	0	0	0	499	142	
14	0	0	0	0	499	143	
15	0	0	0	0	500	141	
0	0	0	0	0	501	142	
1	0	0	0	0	502	143	
2	0	0	0	0	502	142	
3	0	0	0	0	503	142	
4	0	0	0	0	502	142	
5	0	0	0	0	501	143	
6	0	0	0	0	500	143	
7	0	0	0	0	499	142	
8	0	0	0	0	500	143	
9	0	0	0	0	499	143	
10	0	0	0	0	500	142	
11	0	0	0	0	500	142	
12	0	0	0	0	499	143	
13	0	0	0	0	499	143	
14	0	0	0	0	500	142	
15	0	0	0	0	502	142	
0	0	0	0	0	503	143	
1	0	0	0	0	502	143	
2	0	0	0	0	503	142	
3	0	0	0	0	503	142	
4	0	0	0	0	504	142	
5	0	0	0	0	502	143	
6	0	0	0	0	501	142	
7	0	0	0	0	501	142	
8	0	0	0	0	503	142	
9	0	0	0	0	503	143	
10	0	0	0	0	502	142	
11	0	0	0	0	501	142	
12	0	0	0	0	500	142	
13	0	0	0	0	499	142	
14	0	0	0	0	499	142	
15	0	0	0	0	500	142	
0	0	0	0	0	501	143	
1	0	0	0	0	501	142	
2	0	0	0	0	502	142	
3	0	0	0	0	503	143	
4	0	0	0	0	504	141	
5	0	0	0	0	507	142	
6	0	0	0	0	508	142	
7	0	0	0	0	507	142	
8	0	0	0	0	504	142	
9	0	0	0	0	502	143	
10	0	0	0	0	505	142	
11	0	0	0	0	507	143	
12	0	0	0	0	506	142	
13	0	0	0	0	504	142	
14	0	0	0	0	504	143	
15	0	0	0	0	505	142	
0	0	0	0	0	507	142	
1	0	0	0	0	508	142	
2	0	0	0	0	508	143	
3	0	0	0	0	508	142	
4	0	0	0	0	508	142	
5	0	0	0	0	508	142	
6	0	0	0	0	508	143	
7	0	0	0	0	508	141	
8	0	0	0	0	509	142	
9	0	0	0	0	509	143	
10	0	0	0	0	509	142	
11	0	0	0	0	509	142	
12	0	0	0	0	509	143	
13	0	0	0	0	508	143	
14	0	0	0	0	508	142	
15	0	0	0	0	508	142	
0	0	0	0	0	508	143	
1	0	0	0	0	508	142	
2	0	0	0	0	509	142	
3	0	0	0	0	510	142	
4	0	0	0	0	510	143	
5	0	0	0	0	509	142	
6	0	0	0	0	509	142	
7	0	0	0	0	510	143	
8	0	0	0	0	509	142	
9	0	0	0	0	508	143	
10	0	0	0	0	506	143	
11	0	0	0	0	506	142	
12	0	0	0	0	508	142	
13	0	0	0	0	507	142	
14	0	0	0	0	505	143	
15	0	0	0	0	505	142	
0	0	0	0	0	506	142	
1	0	0	0	0	506	142	
2	0	0	0	0	504	142	
3	0	0	0	0	503	142	
4	0	0	0	0	502	142	
5	0	0	0	0	502	143	
6	0	0	0	0	502	141	
7	0	0	0	0	503	142	
8	0	0	0	0	504	143	
9	0	0	0	0	504	141	
10	0	0	0	0	504	142	
11	0	0	0	0	503	143	
12	0	0	0	0	502	141	
13	0	0	0	0	502	142	
14	0	0	0	0	501	142	
15	0	0	0	0	502	142	
0	0	0	0	0	504	143	
1	0	0	0	0	505	141	
2	0	0	0	0	505	142	
3	0	0	0	0	508	143	
4	0	0	0	0	509	141	
5	0	0	0	0	507	142	
6	0	0	0	0	504	142	
7	0	0	0	0	504	141	
8	0	0	0	0	503	142	
9	0	0	0	0	501	142	
10	0	0	0	0	501	142	
11	0	0	0	0	501	141	
12	0	0	0	0	502	142	
13	0	0	0	0	502	143	
14	0	0	0	0	502	141	
15	0	0	0	0	502	142	
0	0	0	0	0	503	143	
1	0	0	0	0	504	141	
2	0	0	0	0	502	142	
3	0	0	0	0	500	142	
4	0	0	0	0	500	142	
5	0	0	0	0	500	142	
6	0	0	0	0	499	142	
7	0	0	0	0	499	142	
8	0	0	0	0	500	142	
9	0	0	0	0	501	142	
10	0	0	0	0	500	143	
11	0	0	0	0	500	141	
12	0	0	0	0	499	142	
13	0	0	0	0	499	142	
14	0	0	0	0	499	142	
15	0	0	0	0	499	143	
0	0	0	0	0	496	142	
1	0	0	0	0	496	142	
2	0	0	0	0	496	142	
3	0	0	0	0	497	142	
4	0	0	0	0	497	142	
5	0	0	0	0	497	142	
6	0	0	0	0	498	143	
7	0	0	0	0	498	142	
8	0	0	0	0	497	142	
9	0	0	0	0	496	142	
10	0	0	0	0	496	142	
11	0	0	0	0	497	143	
12	0	0	0	0	497	142	
13	0	0	0	0	498	142	
14	0	0	0	0	497	143	
15	0	0	0	0	496	142	
0	0	0	0	0	495	142	
1	0	0	0	0	495	142	
2	0	0	0	0	496	143	
3	0	0	0	0	497	141	
4	0	0	0	0	498	142	
5	0	0	0	0	497	142	
6	0	0	0	0	495	142	
7	0	0	0	0	494	142	
8	0	0	0	0	493	142	
9	0	0	0	0	494	143	
10	0	0	0	0	494	142	
11	0	0	0	0	494	142	
12	0	0	0	0	493	143	
13	0	0	0	0	491	142	
14	0	0	0	0	491	142	
15	0	0	0	0	490	143	
0	0	0	0	0	489	142	
1	0	0	0	0	489	142	
2	0	0	0	0	489	143	
3	0	0	0	0	488	143	
4	0	0	0	0	490	141	
5	0	0	0	0	492	142	
6	0	0	0	0	494	142	
7	0	0	0	0	494	142	
8	0	0	0	0	494	142	
9	0	0	0	0	494	142	
10	0	0	0	0	494	142	
11	0	0	0	0	493	142	
12	0	0	0	0	495	142	
13	0	0	0	0	496	143	
14	0	0	0	0	497	142	
15	0	0	0	0	498	142	
0	0	0	0	0	497	142	
1	0	0	0	0	497	142	
2	0	0	0	0	497	142	
3	0	0	0	0	495	142	
4	0	0	0	0	492	142	
5	0	0	0	0	491	142	
6	0	0	0	0	491	142	
7	0	0	0	0	491	143	
8	0	0	0	0	490	142	
9	0	0	0	0	489	142	
10	0	0	0	0	491	142	
11	0	0	0	0	491	142	
12	0	0	0	0	491	142	
13	0	0	0	0	493	142	
14	0	0	0	0	493	143	
15	0	0	0	0	492	142	
0	0	0	0	0	491	143	
1	0	0	0	0	489	143	
2	0	0	0	0	490	142	
3	0	0	0	0	490	142	
4	0	0	0	0	489	142	
5	0	0	0	0	487	143	
6	0	0	0	0	487	142	
7	0	0	0	0	487	142	
8	0	0	0	0	487	143	
9	0	0	0	0	485	141	
10	0	0	0	0	484	142	
11	0	0	0	0	484	142	
12	0	0	0	0	484	143	
13	0	0	0	0	483	142	
14	0	0	0	0	482	142	
15	0	0	0	0	482	142	
0	0	0	0	0	482	143	
1	0	0	0	0	481	142	
2	0	0	0	0	481	143	
3	0	0	0	0	483	143	
4	0	0	0	0	484	142	
5	0	0	0	0	486	142	
6	0	0	0	0	487	142	
7	0	0	0	0	487	142	
8	0	0	0	0	486	142	
9	0	0	0	0	486	141	
10	0	0	0	0	487	142	
11	0	0	0	0	487	142	
12	0	0	0	0	486	142	
13	0	0	0	0	486	141	
14	0	0	0	0	484	142	
15	0	0	0	0	483	142	
0	0	0	0	0	483	142	
1	0	0	0	0	484	142	
2	0	0	0	0	484	142	
3	0	0	0	0	484	142	
4	0	0	0	0	484	142	
5	0	0	0	0	484	142	
6	0	0	0	0	483	143	
7	0	0	0	0	483	141	
8	0	0	0	0	483	142	
9	0	0	0	0	483	142	
10	0	0	0	0	483	141	
11	0	0	0	0	482	142	
12	0	0	0	0	481	142	
13	0	0	0	0	481	142	
14	0	0	0	0	482	142	
15	0	0	0	0	483	142	
0	0	0	0	0	484	142	
1	0	0	0	0	486	142	
2	0	0	0	0	488	142	
3	0	0	0	0	488	141	
4	0	0	0	0	487	142	
5	0	0	0	0	487	143	
6	0	0	0	0	488	141	
7	0	0	0	0	491	142	
8	0	0	0	0	492	142	
9	0	0	0	0	491	141	
10	0	0	0	0	488	142	
11	0	0	0	0	487	142	
12	0	0	0	0	486	141	
13	0	0	0	0	487	142	
14	0	0	0	0	487	142	
15	0	0	0	0	487	142	
0	0	0	0	0	487	142	
1	0	0	0	0	487	142	
2	0	0	0	0	487	141	
3	0	0	0	0	487	142	
4	0	0	0	0	489	142	
5	0	0	0	0	490	142	
6	0	0	0	0	490	142	
7	0	0	0	0	491	142	
8	0	0	0	0	492	142	
9	0	0	0	0	492	142	
10	0	0	0	0	494	142	
11	0	0	0	0	495	141	
12	0	0	0	0	496	142	
13	0	0	0	0	495	142	
14	0	0	0	0	494	141	
15	0	0	0	0	492	142	
0	0	0	0	0	492	142	
1	0	0	0	0	491	141	
2	0	0	0	0	492	142	
3	0	0	0	0	492	142	
4	0	0	0	0	492	143	
5	0	0	0	0	492	142	
6	0	0	0	0	492	142	
7	0	0	0	0	492	142	
8	0	0	0	0	492	142	
9	0	0	0	0	493	141	
10	0	0	0	0	494	142	
11	0	0	0	0	496	142	
12	0	0	0	0	497	141	
13	0	0	0	0	498	142	
14	0	0	0	0	498	142	
15	0	0	0	0	499	142	
0	0	0	0	0	500	141	
1	0	0	0	0	499	142	
2	0	0	0	0	500	142	
3	0	0	0	0	500	141	
4	0	0	0	0	501	142	
5	0	0	0	0	500	142	
6	0	0	0	0	500	141	
7	0	0	0	0	500	142	
8	0	0	0	0	500	142	
9	0	0	0	0	500	141	
10	0	0	0	0	501	142	
11	0	0	0	0	501	142	
12	0	0	0	0	501	141	
13	0	0	0	0	501	142	
14	0	0	0	0	502	142	
15	0	0	0	0	503	143	
0	0	0	0	0	504	141	
1	0	0	0	0	503	141	
2	0	0	0	0	502	142	
3	0	0	0	0	502	142	
4	0	0	0	0	503	142	
5	0	0	0	0	503	142	
6	0	0	0	0	502	142	
7	0	0	0	0	502	141	
8	0	0	0	0	502	141	
9	0	0	0	0	503	142	
10	0	0	0	0	503	142	
11	0	0	0	0	505	142	
12	0	0	0	0	506	141	
13	0	0	0	0	505	142	
14	0	0	0	0	505	142	
15	0	0	0	0	508	141	
0	0	0	0	0	510	141	
1	0	0	0	0	507	142	
2	0	0	0	0	505	142	
3	0	0	0	0	504	142	
4	0	0	0	0	504	141	
5	0	0	0	0	504	142	
6	0	0	0	0	504	142	
7	0	0	0	0	504	141	
8	0	0	0	0	504	142	
9	0	0	0	0	505	142	
10	0	0	0	0	506	141	
11	0	0	0	0	507	142	
12	0	0	0	0	508	142	
13	0	0	0	0	508	141	
14	0	0	0	0	509	142	
15	0	0	0	0	509	142	
0	0	0	0	0	509	141	
1	0	0	0	0	507	142	
2	0	0	0	0	507	142	
3	0	0	0	0	508	141	
4	0	0	0	0	508	142	
5	0	0	0	0	509	142	
6	0	0	0	0	511	142	
7	0	0	0	0	511	142	
8	0	0	0	0	511	142	
9	0	0	0	0	508	142	
10	0	0	0	0	506	142	
11	0	0	0	0	505	141	
12	0	0	0	0	506	141	
13	0	0	0	0	506	142	
14	0	0	0	0	508	142	
15	0	0	0	0	507	141	
0	0	0	0	0	508	142	
1	0	0	0	0	508	142	
2	0	0	0	0	508	142	
3	0	0	0	0	510	141	
4	0	0	0	0	512	142	
5	0	0	0	0	513	142	
6	0	0	0	0	513	141	
7	0	0	0	0	513	142	
8	0	0	0	0	515	142	
9	0	0	0	0	516	141	
10	0	0	0	0	518	142	
11	0	0	0	0	519	142	
12	0	0	0	0	519	141	
13	0	0	0	0	518	141	
14	0	0	0	0	519	142	
15	0	0	0	0	519	141	
0	0	0	0	0	521	142	
1	0	0	0	0	522	142	
2	0	0	0	0	522	141	
3	0	0	0	0	523	141	
4	0	0	0	0	524	142	
5	0	0	0	0	525	141	
6	0	0	0	0	527	142	
7	0	0	0	0	529	142	
8	0	0	0	0	531	142	
9	0	0	0	0	533	141	
10	0	0	0	0	535	142	
11	0	0	0	0	537	142	
12	0	0	0	0	539	141	
13	0	0	0	0	539	141	
14	0	0	0	0	538	142	
15	0	0	0	0	539	142	
0	0	0	0	0	537	141	
1	0	0	0	0	537	141	
2	0	0	0	0	535	142	
3	0	0	0	0	534	141	
4	0	0	0	0	532	141	
5	0	0	0	0	527	142	
6	0	0	0	0	521	142	
7	0	0	0	0	516	141	
8	0	0	0	0	511	142	
9	0	0	0	0	507	142	
10	0	0	0	0	501	142	
11	0	0	0	0	495	142	
12	0	0	0	0	489	143	
13	0	0	0	0	486	141	
14	0	0	0	0	486	142	
15	0	0	0	0	486	142	
0	0	0	0	0	484	141	
1	0	0	0	0	479	142	
2	0	0	0	0	474	142	
3	0	0	0	0	472	142	
4	0	0	0	0	470	142	
5	0	0	0	0	466	142	
6	0	0	0	0	463	142	
7	0	0	0	0	461	142	
8	0	0	0	0	460	142	
9	0	0	0	0	459	142	
10	0	0	0	0	457	142	
11	0	0	0	0	455	142	
12	0	0	0	0	452	142	
13	0	0	0	0	450	141	
14	0	0	0	0	449	142	
15	0	0	0	0	451	142	
0	0	0	0	0	451	142	
1	0	0	0	0	452	141	
2	0	0	0	0	455	142	
3	0	0	0	0	459	142	
4	0	0	0	0	463	142	
5	0	0	0	0	467	142	
6	0	0	0	0	469	141	
7	0	0	0	0	472	142	
8	0	0	0	0	476	142	
9	0	0	0	0	478	141	
10	0	0	0	0	480	141	
11	0	0	0	0	484	142	
12	0	0	0	0	487	142	
13	0	0	0	0	491	142	
14	0	0	0	0	494	141	
15	0	0	0	0	497	142	
0	0	0	0	0	500	142	
1	0	0	0	0	503	141	
2	0	0	0	0	505	142	
3	0	0	0	0	507	142	
4	0	0	0	0	509	141	
5	0	0	0	0	511	142	
6	0	0	0	0	513	141	
7	0	0	0	0	514	141	
8	0	0	0	0	514	142	
9	0	0	0	0	513	142	
10	0	0	0	0	512	141	
11	0	0	0	0	513	142	
12	0	0	0	0	513	142	
13	0	0	0	0	513	141	
14	0	0	0	0	513	142	
15	0	0	0	0	514	142	
0	0	0	0	0	515	141	
1	0	0	0	0	512	142	
2	0	0	0	0	511	142	
3	0	0	0	0	512	141	
4	0	0	0	0	512	142	
5	0	0	0	0	515	142	
6	0	0	0	0	515	141	
7	0	0	0	0	516	141	
8	0	0	0	0	515	142	
9	0	0	0	0	515	141	
10	0	0	0	0	516	141	
11	0	0	0	0	516	142	
12	0	0	0	0	517	141	
13	0	0	0	0	518	141	
14	0	0	0	0	516	142	
15	0	0	0	0	516	141	
0	0	0	0	0	515	142	
1	0	0	0	0	517	142	
2	0	0	0	0	519	141	
3	0	0	0	0	522	142	
4	0	0	0	0	521	142	
5	0	0	0	0	520	141	
6	0	0	0	0	519	142	
7	0	0	0	0	518	142	
8	0	0	0	0	518	141	
9	0	0	0	0	519	142	
10	0	0	0	0	519	142	
11	0	0	0	0	519	142	
12	0	0	0	0	520	141	
13	0	0	0	0	520	141	
14	0	0	0	0	520	142	
15	0	0	0	0	519	142	
0	0	0	0	0	519	141	
1	0	0	0	0	521	141	
2	0	0	0	0	521	142	
3	0	0	0	0	522	142	
4	0	0	0	0	523	141	
5	0	0	0	0	521	142	
6	0	0	0	0	519	142	
7	0	0	0	0	519	141	
8	0	0	0	0	519	142	
9	0	0	0	0	518	142	
10	0	0	0	0	517	142	
11	0	0	0	0	516	141	
12	0	0	0	0	516	142	
13	0	0	0	0	518	142	
14	0	0	0	0	518	141	
15	0	0	0	0	518	142	
0	0	0	0	0	518	142	
1	0	0	0	0	517	141	
2	0	0	0	0	520	142	
3	0	0	0	0	522	142	
4	0	0	0	0	520	142	
5	0	0	0	0	516	141	
6	0	0	0	0	515	142	
7	0	0	0	0	516	142	
8	0	0	0	0	516	141	
9	0	0	0	0	516	141	
10	0	0	0	0	516	142	
11	0	0	0	0	516	142	
12	0	0	0	0	516	141	
13	0	0	0	0	516	141	
14	0	0	0	0	516	142	
15	0	0	0	0	516	142	
0	0	0	0	0	517	141	
1	0	0	0	0	518	142	
2	0	0	0	0	517	142	
3	0	0	0	0	516	141	
4	0	0	0	0	517	142	
5	0	0	0	0	517	141	
6	0	0	0	0	517	141	
7	0	0	0	0	517	142	
8	0	0	0	0	517	142	
9	0	0	0	0	518	141	
10	0	0	0	0	518	142	
11	0	0	0	0	518	142	
12	0	0	0	0	517	141	
13	0	0	0	0	516	141	
14	0	0	0	0	516	141	
15	0	0	0	0	516	142	
0	0	0	0	0	517	142	
1	0	0	0	0	517	141	
2	0	0	0	0	519	142	
3	0	0	0	0	519	142	
4	0	0	0	0	519	141	
5	0	0	0	0	519	142	
6	0	0	0	0	520	142	
7	0	0	0	0	521	141	
8	0	0	0	0	524	142	
9	0	0	0	0	525	142	
10	0	0	0	0	526	141	
11	0	0	0	0	526	141	
12	0	0	0	0	527	142	
13	0	0	0	0	526	142	
14	0	0	0	0	526	141	
15	0	0	0	0	527	142	
0	0	0	0	0	527	142	
1	0	0	0	0	527	141	
2	0	0	0	0	526	141	
3	0	0	0	0	525	142	
4	0	0	0	0	526	141	
5	0	0	0	0	527	141	
6	0	0	0	0	529	142	
7	0	0	0	0	531	142	
8	0	0	0	0	532	141	
9	0	0	0	0	533	142	
10	0	0	0	0	532	142	
11	0	0	0	0	531	141	
12	0	0	0	0	531	142	
13	0	0	0	0	531	142	
14	0	0	0	0	531	141	
15	0	0	0	0	532	142	
0	0	0	0	0	532	142	
1	0	0	0	0	533	141	
2	0	0	0	0	532	142	
3	0	0	0	0	532	142	
4	0	0	0	0	532	141	
5	0	0	0	0	533	141	
6	0	0	0	0	534	142	
7	0	0	0	0	534	142	
8	0	0	0	0	535	141	
9	0	0	0	0	534	142	
10	0	0	0	0	534	142	
11	0	0	0	0	535	140	
12	0	0	0	0	535	141	
13	0	0	0	0	536	142	
14	0	0	0	0	536	141	
15	0	0	0	0	536	141	
0	0	0	0	0	536	142	
1	0	0	0	0	534	142	
2	0	0	0	0	534	141	
3	0	0	0	0	535	142	
4	0	0	0	0	538	142	
5	0	0	0	0	539	140	
6	0	0	0	0	539	141	
7	0	0	0	0	540	142	
8	0	0	0	0	541	140	
9	0	0	0	0	543	141	
10	0	0	0	0	543	142	
11	0	0	0	0	542	141	
12	0	0	0	0	542	141	
13	0	0	0	0	540	142	
14	0	0	0	0	540	141	
15	0	0	0	0	540	141	
0	0	0	0	0	539	142	
1	0	0	0	0	540	142	
2	0	0	0	0	541	141	
3	0	0	0	0	541	142	
4	0	0	0	0	543	142	
5	0	0	0	0	544	141	
6	0	0	0	0	545	142	
7	0	0	0	0	545	142	
8	0	0	0	0	546	140	
9	0	0	0	0	547	142	
10	0	0	0	0	546	142	
11	0	0	0	0	545	141	
12	0	0	0	0	545	142	
13	0	0	0	0	545	142	
14	0	0	0	0	545	141	
15	0	0	0	0	543	142	
0	0	0	0	0	543	142	
1	0	0	0	0	543	141	
2	0	0	0	0	544	142	
3	0	0	0	0	545	142	
4	0	0	0	0	546	141	
5	0	0	0	0	547	142	
6	0	0	0	0	547	142	
7	0	0	0	0	545	141	
8	0	0	0	0	546	142	
9	0	0	0	0	546	142	
10	0	0	0	0	546	141	
11	0	0	0	0	546	142	
12	0	0	0	0	546	142	
13	0	0	0	0	545	141	
14	0	0	0	0	544	142	
15	0	0	0	0	545	142	
0	0	0	0	0	544	140	
1	0	0	0	0	543	141	
2	0	0	0	0	543	142	
3	0	0	0	0	546	142	
4	0	0	0	0	548	141	
5	0	0	0	0	546	142	
6	0	0	0	0	545	141	
7	0	0	0	0	545	141	
8	0	0	0	0	545	142	
9	0	0	0	0	547	140	
10	0	0	0	0	545	141	
11	0	0	0	0	544	142	
12	0	0	0	0	544	140	
13	0	0	0	0	545	141	
14	0	0	0	0	545	142	
15	0	0	0	0	544	142	
0	0	0	0	0	544	141	
1	0	0	0	0	545	142	
2	0	0	0	0	544	142	
3	0	0	0	0	542	141	
4	0	0	0	0	541	142	
5	0	0	0	0	540	142	
6	0	0	0	0	541	140	
7	0	0	0	0	540	141	
8	0	0	0	0	540	142	
9	0	0	0	0	539	140	
10	0	0	0	0	540	141	
11	0	0	0	0	538	141	
12	0	0	0	0	534	141	
13	0	0	0	0	534	140	
14	0	0	0	0	535	142	
15	0	0	0	0	535	142	
0	0	0	0	0	535	140	
1	0	0	0	0	533	140	
2	0	0	0	0	533	142	
3	0	0	0	0	531	142	
4	0	0	0	0	531	141	
5	0	0	0	0	531	141	
6	0	0	0	0	530	142	
7	0	0	0	0	531	141	
8	0	0	0	0	532	141	
9	0	0	0	0	533	142	
10	0	0	0	0	531	140	
11	0	0	0	0	529	141	
12	0	0	0	0	527	142	
13	0	0	0	0	527	142	
14	0	0	0	0	527	140	
15	0	0	0	0	526	141	
0	0	0	0	0	524	142	
1	0	0	0	0	523	142	
2	0	0	0	0	523	140	
3	0	0	0	0	524	142	
4	0	0	0	0	523	142	
5	0	0	0	0	522	141	
6	0	0	0	0	521	141	
7	0	0	0	0	521	142	
8	0	0	0	0	522	142	
9	0	0	0	0	522	141	
10	0	0	0	0	519	141	
11	0	0	0	0	519	142	
12	0	0	0	0	519	142	
13	0	0	0	0	520	140	
14	0	0	0	0	520	141	
15	0	0	0	0	519	142	
0	0	0	0	0	517	142	
1	0	0	0	0	515	141	
2	0	0	0	0	513	141	
3	0	0	0	0	511	141	
4	0	0	0	0	510	142	
5	0	0	0	0	510	141	
6	0	0	0	0	512	141	
7	0	0	0	0	511	142	
8	0	0	0	0	510	142	
9	0	0	0	0	508	141	
10	0	0	0	0	508	141	
11	0	0	0	0	509	142	
12	0	0	0	0	509	141	
13	0	0	0	0	508	141	
14	0	0	0	0	509	142	
15	0	0	0	0	510	142	
0	0	0	0	0	510	141	
1	0	0	0	0	510	141	
2	0	0	0	0	509	142	
3	0	0	0	0	508	142	
4	0	0	0	0	508	140	
5	0	0	0	0	509	141	
6	0	0	0	0	508	142	
7	0	0	0	0	506	141	
8	0	0	0	0	505	141	
9	0	0	0	0	507	142	
10	0	0	0	0	508	142	
11	0	0	0	0	508	141	
12	0	0	0	0	509	141	
13	0	0	0	0	509	141	
14	0	0	0	0	508	141	
15	0	0	0	0	507	142	
0	0	0	0	0	507	142	
1	0	0	0	0	505	141	
2	0	0	0	0	506	142	
3	0	0	0	0	505	142	
4	0	0	0	0	504	141	
5	0	0	0	0	505	142	
6	0	0	0	0	505	141	
7	0	0	0	0	504	142	
8	0	0	0	0	502	142	
9	0	0	0	0	501	141	
10	0	0	0	0	502	142	
11	0	0	0	0	502	142	
12	0	0	0	0	501	141	
13	0	0	0	0	502	141	
14	0	0	0	0	503	142	
15	0	0	0	0	503	141	
0	0	0	0	0	502	142	
1	0	0	0	0	502	142	
2	0	0	0	0	504	141	
3	0	0	0	0	504	142	
4	0	0	0	0	502	142	
5	0	0	0	0	502	141	
6	0	0	0	0	502	142	
7	0	0	0	0	502	142	
8	0	0	0	0	500	141	
9	0	0	0	0	499	142	
10	0	0	0	0	500	141	
11	0	0	0	0	500	141	
12	0	0	0	0	501	142	
13	0	0	0	0	500	141	
14	0	0	0	0	501	141	
15	0	0	0	0	503	141	
0	0	0	0	0	504	141	
1	0	0	0	0	503	141	
2	0	0	0	0	502	141	
3	0	0	0	0	502	142	
4	0	0	0	0	500	140	
5	0	0	0	0	500	141	
6	0	0	0	0	500	141	
7	0	0	0	0	501	142	
8	0	0	0	0	501	141	
9	0	0	0	0	502	141	
10	0	0	0	0	502	142	
11	0	0	0	0	504	140	
12	0	0	0	0	504	142	
13	0	0	0	0	503	141	
14	0	0	0	0	503	141	
15	0	0	0	0	502	141	
0	0	0	0	0	502	140	
1	0	0	0	0	500	141	
2	0	0	0	0	500	142	
3	0	0	0	0	499	140	
4	0	0	0	0	499	141	
5	0	0	0	0	498	142	
6	0	0	0	0	497	140	
7	0	0	0	0	498	141	
8	0	0	0	0	498	142	
9	0	0	0	0	498	140	
10	0	0	0	0	499	141	
11	0	0	0	0	497	142	
12	0	0	0	0	497	140	
13	0	0	0	0	498	142	
14	0	0	0	0	497	141	
15	0	0	0	0	498	140	
0	0	0	0	0	499	141	
1	0	0	0	0	500	141	
2	0	0	0	0	500	141	
3	0	0	0	0	499	141	
4	0	0	0	0	498	141	
5	0	0	0	0	497	141	
6	0	0	0	0	496	142	
7	0	0	0	0	495	141	
8	0	0	0	0	495	141	
9	0	0	0	0	496	142	
10	0	0	0	0	496	141	
11	0	0	0	0	496	141	
12	0	0	0	0	496	142	
13	0	0	0	0	496	142	
14	0	0	0	0	496	140	
15	0	0	0	0	496	141	
0	0	0	0	0	498	142	
1	0	0	0	0	499	141	
2	0	0	0	0	497	141	
3	0	0	0	0	495	141	
4	0	0	0	0	494	142	
5	0	0	0	0	494	140	
6	0	0	0	0	494	141	
7	0	0	0	0	495	142	
8	0	0	0	0	496	140	
9	0	0	0	0	495	141	
10	0	0	0	0	493	142	
11	0	0	0	0	492	142	
12	0	0	0	0	492	142	
13	0	0	0	0	494	141	
14	0	0	0	0	494	141	
15	0	0	0	0	493	141	
0	0	0	0	0	493	140	
1	0	0	0	0	493	141	
2	0	0	0	0	493	142	
3	0	0	0	0	495	140	
4	0	0	0	0	496	141	
5	0	0	0	0	497	141	
6	0	0	0	0	497	140	
7	0	0	0	0	497	141	
8	0	0	0	0	496	142	
9	0	0	0	0	497	141	
10	0	0	0	0	498	142	
11	0	0	0	0	497	142	
12	0	0	0	0	497	140	
13	0	0	0	0	497	141	
14	0	0	0	0	499	142	
15	0	0	0	0	500	142	
0	0	0	0	0	499	140	
1	0	0	0	0	498	141	
2	0	0	0	0	497	142	
3	0	0	0	0	497	140	
4	0	0	0	0	498	141	
5	0	0	0	0	499	142	
6	0	0	0	0	499	140	
7	0	0	0	0	498	141	
8	0	0	0	0	499	142	
9	0	0	0	0	499	141	
10	0	0	0	0	500	142	
11	0	0	0	0	501	142	
12	0	0	0	0	500	140	
13	0	0	0	0	499	141	
14	0	0	0	0	498	141	
15	0	0	0	0	498	142	
0	0	0	0	0	499	140	
1	0	0	0	0	499	141	
2	0	0	0	0	499	141	
3	0	0	0	0	498	140	
4	0	0	0	0	498	141	
5	0	0	0	0	500	141	
6	0	0	0	0	500	140	
7	0	0	0	0	500	141	
8	0	0	0	0	501	141	
9	0	0	0	0	503	141	
10	0	0	0	0	502	141	
11	0	0	0	0	500	141	
12	0	0	0	0	498	141	
13	0	0	0	0	497	141	
14	0	0	0	0	497	142	
15	0	0	0	0	497	140	
0	0	0	0	0	498	141	
1	0	0	0	0	499	141	
2	0	0	0	0	498	142	
3	0	0	0	0	498	140	
4	0	0	0	0	498	141	
5	0	0	0	0	499	141	
6	0	0	0	0	500	141	
7	0	0	0	0	500	141	
8	0	0	0	0	500	141	
9	0	0	0	0	502	141	
10	0	0	0	0	502	141	
11	0	0	0	0	502	141	
12	0	0	0	0	501	140	
13	0	0	0	0	500	141	
14	0	0	0	0	500	142	
15	0	0	0	0	499	140	
0	0	0	0	0	499	141	
1	0	0	0	0	499	141	
2	0	0	0	0	498	141	
3	0	0	0	0	499	140	
4	0	0	0	0	501	141	
5	0	0	0	0	502	141	
6	0	0	0	0	503	141	
7	0	0	0	0	504	141	
8	0	0	0	0	504	141	
9	0	0	0	0	504	141	
10	0	0	0	0	504	140	
11	0	0	0	0	503	141	
12	0	0	0	0	501	141	
13	0	0	0	0	500	141	
14	0	0	0	0	500	140	
15	0	0	0	0	501	141	
0	0	0	0	0	503	141	
1	0	0	0	0	503	140	
2	0	0	0	0	501	141	
3	0	0	0	0	500	141	
4	0	0	0	0	502	141	
5	0	0	0	0	502	140	
6	0	0	0	0	502	140	
7	0	0	0	0	502	141	
8	0	0	0	0	502	140	
9	0	0	0	0	503	141	
10	0	0	0	0	504	141	
11	0	0	0	0	505	140	
12	0	0	0	0	506	141	
13	0	0	0	0	506	141	
14	0	0	0	0	505	142	
15	0	0	0	0	505	140	
0	0	0	0	0	505	141	
1	0	0	0	0	507	140	
2	0	0	0	0	505	141	
3	0	0	0	0	507	141	
4	0	0	0	0	507	141	
5	0	0	0	0	508	140	
6	0	0	0	0	508	141	
7	0	0	0	0	508	141	
8	0	0	0	0	508	140	
9	0	0	0	0	507	141	
10	0	0	0	0	508	141	
11	0	0	0	0	509	140	
12	0	0	0	0	509	141	
13	0	0	0	0	509	141	
14	0	0	0	0	509	140	
15	0	0	0	0	508	141	
0	0	0	0	0	509	141	
1	0	0	0	0	510	140	
2	0	0	0	0	511	141	
3	0	0	0	0	511	141	
4	0	0	0	0	510	141	
5	0	0	0	0	510	140	
6	0	0	0	0	510	141	
7	0	0	0	0	511	142	
8	0	0	0	0	511	140	
9	0	0	0	0	511	140	
10	0	0	0	0	511	141	
11	0	0	0	0	511	141	
12	0	0	0	0	511	140	
13	0	0	0	0	510	141	
14	0	0	0	0	510	141	
15	0	0	0	0	509	140	
0	0	0	0	0	508	141	
1	0	0	0	0	508	141	
2	0	0	0	0	509	141	
3	0	0	0	0	509	140	
4	0	0	0	0	509	141	
5	0	0	0	0	508	141	
6	0	0	0	0	508	140	
7	0	0	0	0	507	141	
8	0	0	0	0	505	141	
9	0	0	0	0	505	140	
10	0	0	0	0	505	141	
11	0	0	0	0	504	141	
12	0	0	0	0	503	140	
13	0	0	0	0	502	141	
14	0	0	0	0	502	141	
15	0	0	0	0	502	141	
0	0	0	0	0	502	140	
1	0	0	0	0	502	141	
2	0	0	0	0	503	142	
3	0	0	0	0	504	140	
4	0	0	0	0	504	141	
5	0	0	0	0	504	141	
6	0	0	0	0	504	140	
7	0	0	0	0	503	141	
8	0	0	0	0	503	141	
9	0	0	0	0	502	141	
10	0	0	0	0	499	140	
11	0	0	0	0	500	141	
12	0	0	0	0	500	141	
13	0	0	0	0	502	140	
14	0	0	0	0	500	141	
15	0	0	0	0	500	141	
0	0	0	0	0	499	141	
1	0	0	0	0	499	140	
2	0	0	0	0	500	141	
3	0	0	0	0	500	141	
4	0	0	0	0	499	140	
5	0	0	0	0	500	141	
6	0	0	0	0	500	141	
7	0	0	0	0	500	140	
8	0	0	0	0	501	140	
9	0	0	0	0	502	141	
10	0	0	0	0	502	140	
11	0	0	0	0	502	140	
12	0	0	0	0	503	141	
13	0	0	0	0	504	141	
14	0	0	0	0	503	140	
15	0	0	0	0	503	141	
0	0	0	0	0	502	142	
1	0	0	0	0	501	140	
2	0	0	0	0	501	141	
3	0	0	0	0	501	141	
4	0	0	0	0	502	140	
5	0	0	0	0	502	141	
6	0	0	0	0	502	141	
7	0	0	0	0	501	141	
8	0	0	0	0	503	140	
9	0	0	0	0	504	140	
10	0	0	0	0	504	141	
11	0	0	0	0	504	140	
12	0	0	0	0	504	140	
13	0	0	0	0	505	141	
14	0	0	0	0	504	140	
15	0	0	0	0	502	141	
0	0	0	0	0	502	141	
1	0	0	0	0	501	140	
2	0	0	0	0	500	141	
3	0	0	0	0	501	142	
4	0	0	0	0	501	140	
5	0	0	0	0	502	141	
6	0	0	0	0	503	141	
7	0	0	0	0	504	142	
8	0	0	0	0	504	140	
9	0	0	0	0	506	141	
10	0	0	0	0	507	141	
11	0	0	0	0	506	140	
12	0	0	0	0	505	141	
13	0	0	0	0	504	140	
14	0	0	0	0	502	140	
15	0	0	0	0	501	141	
0	0	0	0	0	499	142	
1	0	0	0	0	498	140	
2	0	0	0	0	498	141	
3	0	0	0	0	498	141	
4	0	0	0	0	498	140	
5	0	0	0	0	499	141	
6	0	0	0	0	501	141	
7	0	0	0	0	502	140	
8	0	0	0	0	502	141	
9	0	0	0	0	503	141	
10	0	0	0	0	503	140	
11	0	0	0	0	503	141	
12	0	0	0	0	503	141	
13	0	0	0	0	504	140	
14	0	0	0	0	506	141	
15	0	0	0	0	507	141	
0	0	0	0	0	507	140	
1	0	0	0	0	507	141	
2	0	0	0	0	507	141	
3	0	0	0	0	508	140	
4	0	0	0	0	509	141	
5	0	0	0	0	508	141	
6	0	0	0	0	508	140	
7	0	0	0	0	508	141	
8	0	0	0	0	508	141	
9	0	0	0	0	508	140	
10	0	0	0	0	506	141	
11	0	0	0	0	504	141	
12	0	0	0	0	503	140	
13	0	0	0	0	502	140	
14	0	0	0	0	501	141	
15	0	0	0	0	500	140	
0	0	0	0	0	499	140	
1	0	0	0	0	497	141	
2	0	0	0	0	497	141	
3	0	0	0	0	497	140	
4	0	0	0	0	497	140	
5	0	0	0	0	496	141	
6	0	0	0	0	493	141	
7	0	0	0	0	491	140	
8	0	0	0	0	490	141	
9	0	0	0	0	491	141	
10	0	0	0	0	492	140	
11	0	0	0	0	492	140	
12	0	0	0	0	494	141	
13	0	0	0	0	494	140	
14	0	0	0	0	495	141	
15	0	0	0	0	494	141	
0	0	0	0	0	493	140	
1	0	0	0	0	492	141	
2	0	0	0	0	492	141	
3	0	0	0	0	493	140	
4	0	0	0	0	493	141	
5	0	0	0	0	493	141	
6	0	0	0	0	493	141	
7	0	0	0	0	495	141	
8	0	0	0	0	496	140	
9	0	0	0	0	496	141	
10	0	0	0	0	496	141	
11	0	0	0	0	498	140	
12	0	0	0	0	497	141	
13	0	0	0	0	497	141	
14	0	0	0	0	498	140	
15	0	0	0	0	498	141	
0	0	0	0	0	499	141	
1	0	0	0	0	499	141	
2	0	0	0	0	499	140	
3	0	0	0	0	498	141	
4	0	0	0	0	499	140	
5	0	0	0	0	500	140	
6	0	0	0	0	500	141	
7	0	0	0	0	499	140	
8	0	0	0	0	499	140	
9	0	0	0	0	499	141	
10	0	0	0	0	499	140	
11	0	0	0	0	498	140	
12	0	0	0	0	496	141	
13	0	0	0	0	496	141	
14	0	0	0	0	496	140	
15	0	0	0	0	498	141	
0	0	0	0	0	499	141	
1	0	0	0	0	499	140	
2	0	0	0	0	499	141	
3	0	0	0	0	499	141	
4	0	0	0	0	500	140	
5	0	0	0	0	499	140	
6	0	0	0	0	498	141	
7	0	0	0	0	498	141	
8	0	0	0	0	498	140	
9	0	0	0	0	500	141	
10	0	0	0	0	499	140	
11	0	0	0	0	500	140	
12	0	0	0	0	499	141	
13	0	0	0	0	499	140	
14	0	0	0	0	499	140	
15	0	0	0	0	499	141	
0	0	0	0	0	498	141	
1	0	0	0	0	497	140	
2	0	0	0	0	497	140	
3	0	0	0	0	497	141	
4	0	0	0	0	497	140	
5	0	0	0	0	496	140	
6	0	0	0	0	495	141	
7	0	0	0	0	494	140	
8	0	0	0	0	494	140	
9	0	0	0	0	493	141	
10	0	0	0	0	495	141	
11	0	0	0	0	496	141	
12	0	0	0	0	497	140	
13	0	0	0	0	498	141	
14	0	0	0	0	499	141	
15	0	0	0	0	502	140	
0	0	0	0	0	503	140	
1	0	0	0	0	502	141	
2	0	0	0	0	502	140	
3	0	0	0	0	504	140	
4	0	0	0	0	503	141	
5	0	0	0	0	500	140	
6	0	0	0	0	500	140	
7	0	0	0	0	503	141	
8	0	0	0	0	504	140	
9	0	0	0	0	506	140	
10	0	0	0	0	508	141	
11	0	0	0	0	507	140	
12	0	0	0	0	506	140	
13	0	0	0	0	507	141	
14	0	0	0	0	507	140	
15	0	0	0	0	507	140	
0	0	0	0	0	506	141	
1	0	0	0	0	507	140	
2	0	0	0	0	507	141	
3	0	0	0	0	507	141	
4	0	0	0	0	505	140	
5	0	0	0	0	505	141	
6	0	0	0	0	505	141	
7	0	0	0	0	506	141	
8	0	0	0	0	507	140	
9	0	0	0	0	507	141	
10	0	0	0	0	506	141	
11	0	0	0	0	508	140	
12	0	0	0	0	508	140	
13	0	0	0	0	509	141	
14	0	0	0	0	511	141	
15	0	0	0	0	510	140	
0	0	0	0	0	509	140	
1	0	0	0	0	509	141	
2	0	0	0	0	510	141	
3	0	0	0	0	510	140	
4	0	0	0	0	509	140	
5	0	0	0	0	510	141	
6	0	0	0	0	510	140	
7	0	0	0	0	510	140	
8	0	0	0	0	510	141	
9	0	0	0	0	510	140	
10	0	0	0	0	510	141	
11	0	0	0	0	511	141	
12	0	0	0	0	509	140	
13	0	0	0	0	508	141	
14	0	0	0	0	508	141	
15	0	0	0	0	507	140	
0	0	0	0	0	506	140	
1	0	0	0	0	506	141	
2	0	0	0	0	506	141	
3	0	0	0	0	505	140	
4	0	0	0	0	505	141	
5	0	0	0	0	504	141	
6	0	0	0	0	504	140	
7	0	0	0	0	503	141	
8	0	0	0	0	504	141	
9	0	0	0	0	505	141	
10	0	0	0	0	506	140	
11	0	0	0	0	507	141	
12	0	0	0	0	506	141	
13	0	0	0	0	506	140	
14	0	0	0	0	509	141	
15	0	0	0	0	508	141	
0	0	0	0	0	507	141	
1	0	0	0	0	507	140	
2	0	0	0	0	508	141	
3	0	0	0	0	509	141	
4	0	0	0	0	508	140	
5	0	0	0	0	508	141	
6	0	0	0	0	510	141	
7	0	0	0	0	511	140	
8	0	0	0	0	511	140	
9	0	0	0	0	510	141	
10	0	0	0	0	511	141	
11	0	0	0	0	512	140	
12	0	0	0	0	513	141	
13	0	0	0	0	516	140	
14	0	0	0	0	519	140	
15	0	0	0	0	521	141	
0	0	0	0	0	522	140	
1	0	0	0	0	522	140	
2	0	0	0	0	523	140	
3	0	0	0	0	522	141	
4	0	0	0	0	523	140	
5	0	0	0	0	523	141	
6	0	0	0	0	522	141	
7	0	0	0	0	524	140	
8	0	0	0	0	524	140	
9	0	0	0	0	525	141	
10	0	0	0	0	525	141	
11	0	0	0	0	525	140	
12	0	0	0	0	527	141	
13	0	0	0	0	528	141	
14	0	0	0	0	532	140	
15	0	0	0	0	534	140	
0	0	0	0	0	534	140	
1	0	0	0	0	536	140	
2	0	0	0	0	537	140	
3	0	0	0	0	539	140	
4	0	0	0	0	539	141	
5	0	0	0	0	540	139	
6	0	0	0	0	539	140	
7	0	0	0	0	537	141	
8	0	0	0	0	535	140	
9	0	0	0	0	534	140	
10	0	0	0	0	532	141	
11	0	0	0	0	529	140	
12	0	0	0	0	527	140	
13	0	0	0	0	523	141	
14	0	0	0	0	520	140	
15	0	0	0	0	514	140	
0	0	0	0	0	509	141	
1	0	0	0	0	507	140	
2	0	0	0	0	504	140	
3	0	0	0	0	503	141	
4	0	0	0	0	500	140	
5	0	0	0	0	497	141	
6	0	0	0	0	494	141	
7	0	0	0	0	489	140	
8	0	0	0	0	486	140	
9	0	0	0	0	481	141	
10	0	0	0	0	477	140	
11	0	0	0	0	474	140	
12	0	0	0	0	474	141	
13	0	0	0	0	473	140	
14	0	0	0	0	470	140	
15	0	0	0	0	467	141	
0	0	0	0	0	463	140	
1	0	0	0	0	461	140	
2	0	0	0	0	460	141	
3	0	0	0	0	459	140	
4	0	0	0	0	458	140	
5	0	0	0	0	457	141	
6	0	0	0	0	458	140	
7	0	0	0	0	460	140	
8	0	0	0	0	462	141	
9	0	0	0	0	465	141	
10	0	0	0	0	468	140	
11	0	0	0	0	472	141	
12	0	0	0	0	478	141	
13	0	0	0	0	481	140	
14	0	0	0	0	483	141	
15	0	0	0	0	487	141	
0	0	0	0	0	492	140	
1	0	0	0	0	496	141	
2	0	0	0	0	498	140	
3	0	0	0	0	500	140	
4	0	0	0	0	504	141	
5	0	0	0	0	507	140	
6	0	0	0	0	509	140	
7	0	0	0	0	511	141	
8	0	0	0	0	514	140	
9	0	0	0	0	515	140	
10	0	0	0	0	514	141	
11	0	0	0	0	514	140	
12	0	0	0	0	517	140	
13	0	0	0	0	521	141	
14	0	0	0	0	521	140	
15	0	0	0	0	519	140	
0	0	0	0	0	519	141	
1	0	0	0	0	519	140	
2	0	0	0	0	519	140	
3	0	0	0	0	519	140	
4	0	0	0	0	519	140	
5	0	0	0	0	519	140	
6	0	0	0	0	519	140	
7	0	0	0	0	519	140	
8	0	0	0	0	519	140	
9	0	0	0	0	519	140	
10	0	0	0	0	518	140	
11	0	0	0	0	517	140	
12	0	0	0	0	517	140	
13	0	0	0	0	518	140	
14	0	0	0	0	518	140	
15	0	0	0	0	517	141	
0	0	0	0	0	515	141	
1	0	0	0	0	516	140	
2	0	0	0	0	517	140	
3	0	0	0	0	518	140	
4	0	0	0	0	517	139	
5	0	0	0	0	518	140	
6	0	0	0	0	517	140	
7	0	0	0	0	516	141	
8	0	0	0	0	515	140	
9	0	0	0	0	515	140	
10	0	0	0	0	516	140	
11	0	0	0	0	517	140	
12	0	0	0	0	516	141	
13	0	0	0	0	515	139	
14	0	0	0	0	513	140	
15	0	0	0	0	512	141	
0	0	0	0	0	511	140	
1	0	0	0	0	512	140	
2	0	0	0	0	515	141	
3	0	0	0	0	515	139	
4	0	0	0	0	515	140	
5	0	0	0	0	513	140	
6	0	0	0	0	512	139	
7	0	0	0	0	513	140	
8	0	0	0	0	512	140	
9	0	0	0	0	513	140	
10	0	0	0	0	512	140	
11	0	0	0	0	512	140	
12	0	0	0	0	512	141	
13	0	0	0	0	512	139	
14	0	0	0	0	513	140	
15	0	0	0	0	514	141	
0	0	0	0	0	513	139	
1	0	0	0	0	513	140	
2	0	0	0	0	513	140	
3	0	0	0	0	512	140	
4	0	0	0	0	512	140	
5	0	0	0	0	513	140	
6	0	0	0	0	514	140	
7	0	0	0	0	513	140	
8	0	0	0	0	513	140	
9	0	0	0	0	514	140	
10	0	0	0	0	514	139	
11	0	0	0	0	513	140	
12	0	0	0	0	513	140	
13	0	0	0	0	513	140	
14	0	0	0	0	512	140	
15	0	0	0	0	511	141	
0	0	0	0	0	512	140	
1	0	0	0	0	511	140	
2	0	0	0	0	511	141	
3	0	0	0	0	511	140	
4	0	0	0	0	511	140	
5	0	0	0	0	510	140	
6	0	0	0	0	509	140	
7	0	0	0	0	508	140	
8	0	0	0	0	509	140	
9	0	0	0	0	509	140	
10	0	0	0	0	507	140	
11	0	0	0	0	506	140	
12	0	0	0	0	507	140	
13	0	0	0	0	507	139	
14	0	0	0	0	508	140	
15	0	0	0	0	509	140	
0	0	0	0	0	510	140	
1	0	0	0	0	509	140	
2	0	0	0	0	508	140	
3	0	0	0	0	508	140	
4	0	0	0	0	508	139	
5	0	0	0	0	509	140	
6	0	0	0	0	509	140	
7	0	0	0	0	510	140	
8	0	0	0	0	509	140	
9	0	0	0	0	508	140	
10	0	0	0	0	508	140	
11	0	0	0	0	510	140	
12	0	0	0	0	511	140	
13	0	0	0	0	511	140	
14	0	0	0	0	511	140	
15	0	0	0	0	511	140	
0	0	0	0	0	511	140	
1	0	0	0	0	511	140	
2	0	0	0	0	512	140	
3	0	0	0	0	514	141	
4	0	0	0	0	517	139	
5	0	0	0	0	518	140	
6	0	0	0	0	518	140	
7	0	0	0	0	517	140	
8	0	0	0	0	517	140	
9	0	0	0	0	518	139	
10	0	0	0	0	518	140	
11	0	0	0	0	519	140	
12	0	0	0	0	519	139	
13	0	0	0	0	519	140	
14	0	0	0	0	519	140	
15	0	0	0	0	519	140	
0	0	0	0	0	521	139	
1	0	0	0	0	520	140	
2	0	0	0	0	520	140	
3	0	0	0	0	520	139	
4	0	0	0	0	521	140	
5	0	0	0	0	521	140	
6	0	0	0	0	524	139	
7	0	0	0	0	526	140	
8	0	0	0	0	526	140	
9	0	0	0	0	527	140	
10	0	0	0	0	528	139	
11	0	0	0	0	529	140	
12	0	0	0	0	528	140	
13	0	0	0	0	526	139	
14	0	0	0	0	524	140	
15	0	0	0	0	526	140	
0	0	0	0	0	527	139	
1	0	0	0	0	526	140	
2	0	0	0	0	525	140	
3	0	0	0	0	526	139	
4	0	0	0	0	525	140	
5	0	0	0	0	524	140	
6	0	0	0	0	524	139	
7	0	0	0	0	525	140	
8	0	0	0	0	526	140	
9	0	0	0	0	527	140	
10	0	0	0	0	528	140	
11	0	0	0	0	528	139	
12	0	0	0	0	529	140	
13	0	0	0	0	528	139	
14	0	0	0	0	529	140	
15	0	0	0	0	529	140	
0	0	0	0	0	531	139	
1	0	0	0	0	532	140	
2	0	0	0	0	531	140	
3	0	0	0	0	532	139	
4	0	0	0	0	532	140	
5	0	0	0	0	533	140	
6	0	0	0	0	533	139	
7	0	0	0	0	534	140	
8	0	0	0	0	534	140	
9	0	0	0	0	533	140	
10	0	0	0	0	534	139	
11	0	0	0	0	536	140	
12	0	0	0	0	536	140	
13	0	0	0	0	536	140	
14	0	0	0	0	536	139	
15	0	0	0	0	536	139	
0	0	0	0	0	535	139	
1	0	0	0	0	536	140	
2	0	0	0	0	537	140	
3	0	0	0	0	538	139	
4	0	0	0	0	537	139	
5	0	0	0	0	536	140	
6	0	0	0	0	536	140	
7	0	0	0	0	536	139	
8	0	0	0	0	536	140	
9	0	0	0	0	537	140	
10	0	0	0	0	539	139	
11	0	0	0	0	540	140	
12	0	0	0	0	540	140	
13	0	0	0	0	541	139	
14	0	0	0	0	541	139	
15	0	0	0	0	540	140	
0	0	0	0	0	540	140	
1	0	0	0	0	542	139	
2	0	0	0	0	542	140	
3	0	0	0	0	542	140	
4	0	0	0	0	543	139	
5	0	0	0	0	544	140	
6	0	0	0	0	544	140	
7	0	0	0	0	544	139	
8	0	0	0	0	544	139	
9	0	0	0	0	544	139	
10	0	0	0	0	545	140	
11	0	0	0	0	546	139	
12	0	0	0	0	545	139	
13	0	0	0	0	545	140	
14	0	0	0	0	545	139	
15	0	0	0	0	546	139	
0	0	0	0	0	545	140	
1	0	0	0	0	543	139	
2	0	0	0	0	543	140	
3	0	0	0	0	543	140	
4	0	0	0	0	543	139	
5	0	0	0	0	543	139	
6	0	0	0	0	542	140	
7	0	0	0	0	541	140	
8	0	0	0	0	540	139	
9	0	0	0	0	540	140	
10	0	0	0	0	541	140	
11	0	0	0	0	540	139	
12	0	0	0	0	539	140	
13	0	0	0	0	539	140	
14	0	0	0	0	540	139	
15	0	0	0	0	543	140	
0	0	0	0	0	543	140	
1	0	0	0	0	542	140	
2	0	0	0	0	541	139	
3	0	0	0	0	541	140	
4	0	0	0	0	540	140	
5	0	0	0	0	539	139	
6	0	0	0	0	539	140	
7	0	0	0	0	538	140	
8	0	0	0	0	536	140	
9	0	0	0	0	535	139	
10	0	0	0	0	535	140	
11	0	0	0	0	534	140	
12	0	0	0	0	532	139	
13	0	0	0	0	531	140	
14	0	0	0	0	529	140	
15	0	0	0	0	529	139	
0	0	0	0	0	530	139	
1	0	0	0	0	529	140	
2	0	0	0	0	528	139	
3	0	0	0	0	529	139	
4	0	0	0	0	527	140	
5	0	0	0	0	526	140	
6	0	0	0	0	526	139	
7	0	0	0	0	526	140	
8	0	0	0	0	526	140	
9	0	0	0	0	527	139	
10	0	0	0	0	527	140	
11	0	0	0	0	527	139	
12	0	0	0	0	527	139	
13	0	0	0	0	528	140	
14	0	0	0	0	527	139	
15	0	0	0	0	526	139	
0	0	0	0	0	527	140	
1	0	0	0	0	527	140	
2	0	0	0	0	526	139	
3	0	0	0	0	523	140	
4	0	0	0	0	521	140	
5	0	0	0	0	521	139	
6	0	0	0	0	521	140	
7	0	0	0	0	522	140	
8	0	0	0	0	521	139	
9	0	0	0	0	522	140	
10	0	0	0	0	522	140	
11	0	0	0	0	522	139	
12	0	0	0	0	521	140	
13	0	0	0	0	520	140	
14	0	0	0	0	519	139	
15	0	0	0	0	520	140	
0	0	0	0	0	519	140	
1	0	0	0	0	517	139	
2	0	0	0	0	516	139	
3	0	0	0	0	515	140	
4	0	0	0	0	515	139	
5	0	0	0	0	516	139	
6	0	0	0	0	517	140	
7	0	0	0	0	518	140	
8	0	0	0	0	518	139	
9	0	0	0	0	517	140	
10	0	0	0	0	515	140	
11	0	0	0	0	513	139	
12	0	0	0	0	513	140	
13	0	0	0	0	513	140	
14	0	0	0	0	514	139	
15	0	0	0	0	513	140	
0	0	0	0	0	513	140	
1	0	0	0	0	512	139	
2	0	0	0	0	513	139	
3	0	0	0	0	513	140	
4	0	0	0	0	515	140	
5	0	0	0	0	515	139	
6	0	0	0	0	516	139	
7	0	0	0	0	514	140	
8	0	0	0	0	512	139	
9	0	0	0	0	511	140	
10	0	0	0	0	511	140	
11	0	0	0	0	511	140	
12	0	0	0	0	512	139	
13	0	0	0	0	511	139	
14	0	0	0	0	509	140	
15	0	0	0	0	510	139	
0	0	0	0	0	509	140	
1	0	0	0	0	509	140	
2	0	0	0	0	509	139	
3	0	0	0	0	507	140	
4	0	0	0	0	506	140	
5	0	0	0	0	505	139	
6	0	0	0	0	506	139	
7	0	0	0	0	506	140	
8	0	0	0	0	505	139	
9	0	0	0	0	505	139	
10	0	0	0	0	506	140	
11	0	0	0	0	506	140	
12	0	0	0	0	506	140	
13	0	0	0	0	507	139	
14	0	0	0	0	506	140	
15	0	0	0	0	505	140	
0	0	0	0	0	505	139	
1	0	0	0	0	504	140	
2	0	0	0	0	502	140	
3	0	0	0	0	502	139	
4	0	0	0	0	502	139	
5	0	0	0	0	503	140	
6	0	0	0	0	504	140	
7	0	0	0	0	504	139	
8	0	0	0	0	503	140	
9	0	0	0	0	503	140	
10	0	0	0	0	504	139	
11	0	0	0	0	504	140	
12	0	0	0	0	506	140	
13	0	0	0	0	507	139	
14	0	0	0	0	507	140	
15	0	0	0	0	505	140	
0	0	0	0	0	504	140	
1	0	0	0	0	503	139	
2	0	0	0	0	503	139	
3	0	0	0	0	501	140	
4	0	0	0	0	500	139	
5	0	0	0	0	501	140	
6	0	0	0	0	500	140	
7	0	0	0	0	499	139	
8	0	0	0	0	499	140	
9	0	0	0	0	499	140	
10	0	0	0	0	498	140	
11	0	0	0	0	498	139	
12	0	0	0	0	499	140	
13	0	0	0	0	500	139	
14	0	0	0	0	502	140	
15	0	0	0	0	502	140	
0	0	0	0	0	501	139	
1	0	0	0	0	500	139	
2	0	0	0	0	499	140	
3	0	0	0	0	498	140	
4	0	0	0	0	497	139	
5	0	0	0	0	497	139	
6	0	0	0	0	496	140	
7	0	0	0	0	495	140	
8	0	0	0	0	494	139	
9	0	0	0	0	495	140	
10	0	0	0	0	494	140	
11	0	0	0	0	495	139	
12	0	0	0	0	495	140	
13	0	0	0	0	495	140	
14	0	0	0	0	495	139	
15	0	0	0	0	495	139	
0	0	0	0	0	496	140	
1	0	0	0	0	494	139	
2	0	0	0	0	494	140	
3	0	0	0	0	495	140	
4	0	0	0	0	494	140	
5	0	0	0	0	495	139	
6	0	0	0	0	495	140	
7	0	0	0	0	495	140	
8	0	0	0	0	496	139	
9	0	0	0	0	495	140	
10	0	0	0	0	494	140	
11	0	0	0	0	494	139	
12	0	0	0	0	494	140	
13	0	0	0	0	494	140	
14	0	0	0	0	495	139	
15	0	0	0	0	496	140	
0	0	0	0	0	495	140	
1	0	0	0	0	494	139	
2	0	0	0	0	496	140	
3	0	0	0	0	497	139	
4	0	0	0	0	499	139	
5	0	0	0	0	500	140	
6	0	0	0	0	499	139	
7	0	0	0	0	497	139	
8	0	0	0	0	497	140	
9	0	0	0	0	496	140	
10	0	0	0	0	496	139	
11	0	0	0	0	496	139	
12	0	0	0	0	497	140	
13	0	0	0	0	499	139	
14	0	0	0	0	499	139	
15	0	0	0	0	499	140	
0	0	0	0	0	499	140	
1	0	0	0	0	499	140	
2	0	0	0	0	499	139	
3	0	0	0	0	500	140	
4	0	0	0	0	498	140	
5	0	0	0	0	496	139	
6	0	0	0	0	496	140	
7	0	0	0	0	496	140	
8	0	0	0	0	496	139	
9	0	0	0	0	495	140	
10	0	0	0	0	495	140	
11	0	0	0	0	496	139	
12	0	0	0	0	496	140	
13	0	0	0	0	497	140	
14	0	0	0	0	497	139	
15	0	0	0	0	497	139	
0	0	0	0	0	497	140	
1	0	0	0	0	496	139	
2	0	0	0	0	496	139	
3	0	0	0	0	494	140	
4	0	0	0	0	494	139	
5	0	0	0	0	494	139	
6	0	0	0	0	497	140	
7	0	0	0	0	499	139	
8	0	0	0	0	497	140	
9	0	0	0	0	496	140	
10	0	0	0	0	496	139	
11	0	0	0	0	496	140	
12	0	0	0	0	494	140	
13	0	0	0	0	493	139	
14	0	0	0	0	493	139	
15	0	0	0	0	492	140	
0	0	0	0	0	492	140	
1	0	0	0	0	491	139	
2	0	0	0	0	490	139	
3	0	0	0	0	491	140	
4	0	0	0	0	492	140	
5	0	0	0	0	492	139	
6	0	0	0	0	491	140	
7	0	0	0	0	489	140	
8	0	0	0	0	487	139	
9	0	0	0	0	485	140	
10	0	0	0	0	486	139	
11	0	0	0	0	488	139	
12	0	0	0	0	489	140	
13	0	0	0	0	489	140	
14	0	0	0	0	489	139	
15	0	0	0	0	487	139	
0	0	0	0	0	485	140	
1	0	0	0	0	485	139	
2	0	0	0	0	485	139	
3	0	0	0	0	487	140	
4	0	0	0	0	488	140	
5	0	0	0	0	487	140	
6	0	0	0	0	487	139	
7	0	0	0	0	487	140	
8	0	0	0	0	487	140	
9	0	0	0	0	487	139	
10	0	0	0	0	489	139	
11	0	0	0	0	489	140	
12	0	0	0	0	491	140	
13	0	0	0	0	491	139	
14	0	0	0	0	490	139	
15	0	0	0	0	491	140	
0	0	0	0	0	491	140	
1	0	0	0	0	492	139	
2	0	0	0	0	494	140	
3	0	0	0	0	496	139	
4	0	0	0	0	497	139	
5	0	0	0	0	497	140	
6	0	0	0	0	497	139	
7	0	0	0	0	497	139	
8	0	0	0	0	495	139	
9	0	0	0	0	494	139	
10	0	0	0	0	494	139	
11	0	0	0	0	494	140	
12	0	0	0	0	492	139	
13	0	0	0	0	493	139	
14	0	0	0	0	495	140	
15	0	0	0	0	495	140	
0	0	0	0	0	496	139	
1	0	0	0	0	495	139	
2	0	0	0	0	494	140	
3	0	0	0	0	496	139	
4	0	0	0	0	497	139	
5	0	0	0	0	498	139	
6	0	0	0	0	499	139	
7	0	0	0	0	501	139	
8	0	0	0	0	502	139	
9	0	0	0	0	501	140	
10	0	0	0	0	502	139	
11	0	0	0	0	502	139	
12	0	0	0	0	500	140	
13	0	0	0	0	499	138	
14	0	0	0	0	499	139	
15	0	0	0	0	501	140	
0	0	0	0	0	502	138	
1	0	0	0	0	500	139	
2	0	0	0	0	501	139	
3	0	0	0	0	502	139	
4	0	0	0	0	502	138	
5	0	0	0	0	500	139	
6	0	0	0	0	499	139	
7	0	0	0	0	500	138	
8	0	0	0	0	500	139	
9	0	0	0	0	499	139	
10	0	0	0	0	498	139	
11	0	0	0	0	497	139	
12	0	0	0	0	498	139	
13	0	0	0	0	500	139	
14	0	0	0	0	502	139	
15	0	0	0	0	503	139	
0	0	0	0	0	504	138	
1	0	0	0	0	502	139	
2	0	0	0	0	502	139	
3	0	0	0	0	501	138	
4	0	0	0	0	501	139	
5	0	0	0	0	501	139	
6	0	0	0	0	502	140	
7	0	0	0	0	502	138	
8	0	0	0	0	501	139	
9	0	0	0	0	501	139	
10	0	0	0	0	502	139	
11	0	0	0	0	501	139	
12	0	0	0	0	499	139	
13	0	0	0	0	499	139	
14	0	0	0	0	499	138	
15	0	0	0	0	500	139	
0	0	0	0	0	500	140	
1	0	0	0	0	499	139	
2	0	0	0	0	498	139	
3	0	0	0	0	497	140	
4	0	0	0	0	499	139	
5	0	0	0	0	500	139	
6	0	0	0	0	500	140	
7	0	0	0	0	500	139	
8	0	0	0	0	502	139	
9	0	0	0	0	502	139	
10	0	0	0	0	499	139	
11	0	0	0	0	496	139	
12	0	0	0	0	495	139	
13	0	0	0	0	495	139	
14	0	0	0	0	495	139	
15	0	0	0	0	496	139	
0	0	0	0	0	496	139	
1	0	0	0	0	497	138	
2	0	0	0	0	497	139	
3	0	0	0	0	497	139	
4	0	0	0	0	496	138	
5	0	0	0	0	495	139	
6	0	0	0	0	494	139	
7	0	0	0	0	495	139	
8	0	0	0	0	493	139	
9	0	0	0	0	493	139	
10	0	0	0	0	493	139	
11	0	0	0	0	493	139	
12	0	0	0	0	493	139	
13	0	0	0	0	493	139	
14	0	0	0	0	493	138	
15	0	0	0	0	493	139	
0	0	0	0	0	493	140	
1	0	0	0	0	494	138	
2	0	0	0	0	493	139	
3	0	0	0	0	493	140	
4	0	0	0	0	495	139	
5	0	0	0	0	495	139	
6	0	0	0	0	494	139	
7	0	0	0	0	494	139	
8	0	0	0	0	494	139	
9	0	0	0	0	493	139	
10	0	0	0	0	493	138	
11	0	0	0	0	494	139	
12	0	0	0	0	494	139	
13	0	0	0	0	494	138	
14	0	0	0	0	495	139	
15	0	0	0	0	496	139	
0	0	0	0	0	497	139	
1	0	0	0	0	496	139	
2	0	0	0	0	495	138	
3	0	0	0	0	495	139	
4	0	0	0	0	495	139	
5	0	0	0	0	494	138	
6	0	0	0	0	494	139	
7	0	0	0	0	494	139	
8	0	0	0	0	495	138	
9	0	0	0	0	496	139	
10	0	0	0	0	495	140	
11	0	0	0	0	492	138	
12	0	0	0	0	491	139	
13	0	0	0	0	491	139	
14	0	0	0	0	492	138	
15	0	0	0	0	490	139	
0	0	0	0	0	487	139	
1	0	0	0	0	486	138	
2	0	0	0	0	484	139	
3	0	0	0	0	484	139	
4	0	0	0	0	483	138	
5	0	0	0	0	483	139	
6	0	0	0	0	483	139	
7	0	0	0	0	483	139	
8	0	0	0	0	483	139	
9	0	0	0	0	484	138	
10	0	0	0	0	484	139	
11	0	0	0	0	484	139	
12	0	0	0	0	484	138	
13	0	0	0	0	486	139	
14	0	0	0	0	487	139	
15	0	0	0	0	486	139	
0	0	0	0	0	486	138	
1	0	0	0	0	485	139	
2	0	0	0	0	485	138	
3	0	0	0	0	486	139	
4	0	0	0	0	487	139	
5	0	0	0	0	486	138	
6	0	0	0	0	485	139	
7	0	0	0	0	484	139	
8	0	0	0	0	483	138	
9	0	0	0	0	483	139	
10	0	0	0	0	483	139	
11	0	0	0	0	483	139	
12	0	0	0	0	482	139	
13	0	0	0	0	481	138	
14	0	0	0	0	480	139	
15	0	0	0	0	483	139	
0	0	0	0	0	483	138	
1	0	0	0	0	483	139	
2	0	0	0	0	481	139	
3	0	0	0	0	481	138	
4	0	0	0	0	482	139	
5	0	0	0	0	481	139	
6	0	0	0	0	482	139	
7	0	0	0	0	482	139	
8	0	0	0	0	481	139	
9	0	0	0	0	482	138	
10	0	0	0	0	482	139	
11	0	0	0	0	483	139	
12	0	0	0	0	483	138	
13	0	0	0	0	485	139	
14	0	0	0	0	485	139	
15	0	0	0	0	485	139	
0	0	0	0	0	484	138	
1	0	0	0	0	482	139	
2	0	0	0	0	481	138	
3	0	0	0	0	481	139	
4	0	0	0	0	480	139	
5	0	0	0	0	480	138	
6	0	0	0	0	480	139	
7	0	0	0	0	480	139	
8	0	0	0	0	481	138	
9	0	0	0	0	482	139	
10	0	0	0	0	483	139	
11	0	0	0	0	484	139	
12	0	0	0	0	486	139	
13	0	0	0	0	487	138	
14	0	0	0	0	487	139	
15	0	0	0	0	486	139	
0	0	0	0	0	484	138	
1	0	0	0	0	484	139	
2	0	0	0	0	484	139	
3	0	0	0	0	484	138	
4	0	0	0	0	484	139	
5	0	0	0	0	484	140	
6	0	0	0	0	483	138	
7	0	0	0	0	484	139	
8	0	0	0	0	484	139	
9	0	0	0	0	483	138	
10	0	0	0	0	482	139	
11	0	0	0	0	481	139	
12	0	0	0	0	482	139	
13	0	0	0	0	484	139	
14	0	0	0	0	486	138	
15	0	0	0	0	489	139	
0	0	0	0	0	487	139	
1	0	0	0	0	485	138	
2	0	0	0	0	485	139	
3	0	0	0	0	485	139	
4	0	0	0	0	483	139	
5	0	0	0	0	483	139	
6	0	0	0	0	484	138	
7	0	0	0	0	485	139	
8	0	0	0	0	485	139	
9	0	0	0	0	484	138	
10	0	0	0	0	484	139	
11	0	0	0	0	483	139	
12	0	0	0	0	482	139	
13	0	0	0	0	483	138	
14	0	0	0	0	483	138	
15	0	0	0	0	482	139	
0	0	0	0	0	481	139	
1	0	0	0	0	481	138	
2	0	0	0	0	481	139	
3	0	0	0	0	481	138	
4	0	0	0	0	480	139	
5	0	0	0	0	481	139	
6	0	0	0	0	483	139	
7	0	0	0	0	483	138	
8	0	0	0	0	483	139	
9	0	0	0	0	483	139	
10	0	0	0	0	483	138	
11	0	0	0	0	482	139	
12	0	0	0	0	483	139	
13	0	0	0	0	484	138	
14	0	0	0	0	484	139	
15	0	0	0	0	485	138	
0	0	0	0	0	484	139	
1	0	0	0	0	483	139	
2	0	0	0	0	485	138	
3	0	0	0	0	485	139	
4	0	0	0	0	486	139	
5	0	0	0	0	484	138	
6	0	0	0	0	483	139	
7	0	0	0	0	483	139	
8	0	0	0	0	483	138	
9	0	0	0	0	483	139	
10	0	0	0	0	481	139	
11	0	0	0	0	480	139	
12	0	0	0	0	480	138	
13	0	0	0	0	482	139	
14	0	0	0	0	483	139	
15	0	0	0	0	484	138	
0	0	0	0	0	486	139	
1	0	0	0	0	486	138	
2	0	0	0	0	486	138	
3	0	0	0	0	487	139	
4	0	0	0	0	488	139	
5	0	0	0	0	489	139	
6	0	0	0	0	488	138	
7	0	0	0	0	487	139	
8	0	0	0	0	487	139	
9	0	0	0	0	486	138	
10	0	0	0	0	487	139	
11	0	0	0	0	487	138	
12	0	0	0	0	488	139	
13	0	0	0	0	488	139	
14	0	0	0	0	489	138	
15	0	0	0	0	490	139	
0	0	0	0	0	490	139	
1	0	0	0	0	491	138	
2	0	0	0	0	492	139	
3	0	0	0	0	495	139	
4	0	0	0	0	498	138	
5	0	0	0	0	498	139	
6	0	0	0	0	495	139	
7	0	0	0	0	494	139	
8	0	0	0	0	495	138	
9	0	0	0	0	496	139	
10	0	0	0	0	498	139	
11	0	0	0	0	500	138	
12	0	0	0	0	501	138	
13	0	0	0	0	503	139	
14	0	0	0	0	505	138	
15	0	0	0	0	507	138	
0	0	0	0	0	507	139	
1	0	0	0	0	507	137	
2	0	0	0	0	506	138	
3	0	0	0	0	507	139	
4	0	0	0	0	509	138	
5	0	0	0	0	510	138	
6	0	0	0	0	511	139	
7	0	0	0	0	513	138	
8	0	0	0	0	515	138	
9	0	0	0	0	516	139	
10	0	0	0	0	516	137	
11	0	0	0	0	518	139	
12	0	0	0	0	519	139	
13	0	0	0	0	522	138	
14	0	0	0	0	524	139	
15	0	0	0	0	526	139	
0	0	0	0	0	529	137	
1	0	0	0	0	531	139	
2	0	0	0	0	534	138	
3	0	0	0	0	534	138	
4	0	0	0	0	533	139	
5	0	0	0	0	535	138	
6	0	0	0	0	534	137	
7	0	0	0	0	533	139	
8	0	0	0	0	531	139	
9	0	0	0	0	532	138	
10	0	0	0	0	532	138	
11	0	0	0	0	528	139	
12	0	0	0	0	523	139	
13	0	0	0	0	519	138	
14	0	0	0	0	514	138	
15	0	0	0	0	511	139	
0	0	0	0	0	512	139	
1	0	0	0	0	511	138	
2	0	0	0	0	509	139	
3	0	0	0	0	508	139	
4	0	0	0	0	505	137	
5	0	0	0	0	500	138	
6	0	0	0	0	497	139	
7	0	0	0	0	494	139	
8	0	0	0	0	490	138	
9	0	0	0	0	487	139	
10	0	0	0	0	487	139	
11	0	0	0	0	486	138	
12	0	0	0	0	484	139	
13	0	0	0	0	483	139	
14	0	0	0	0	482	138	
15	0	0	0	0	478	139	
0	0	0	0	0	475	139	
1	0	0	0	0	472	138	
2	0	0	0	0	471	138	
3	0	0	0	0	470	139	
4	0	0	0	0	469	139	
5	0	0	0	0	470	139	
6	0	0	0	0	471	138	
7	0	0	0	0	472	138	
8	0	0	0	0	475	139	
9	0	0	0	0	479	139	
10	0	0	0	0	483	139	
11	0	0	0	0	487	138	
12	0	0	0	0	488	139	
13	0	0	0	0	492	139	
14	0	0	0	0	496	138	
15	0	0	0	0	499	139	
0	0	0	0	0	501	139	
1	0	0	0	0	503	139	
2	0	0	0	0	507	138	
3	0	0	0	0	510	139	
4	0	0	0	0	513	138	
5	0	0	0	0	516	138	
6	0	0	0	0	518	138	
7	0	0	0	0	522	138	
8	0	0	0	0	523	137	
9	0	0	0	0	523	138	
10	0	0	0	0	526	138	
11	0	0	0	0	528	137	
12	0	0	0	0	529	138	
13	0	0	0	0	529	139	
14	0	0	0	0	530	138	
15	0	0	0	0	532	139	
0	0	0	0	0	535	137	
1	0	0	0	0	536	138	
2	0	0	0	0	535	138	
3	0	0	0	0	534	138	
4	0	0	0	0	534	137	
5	0	0	0	0	535	138	
6	0	0	0	0	536	139	
7	0	0	0	0	536	137	
8	0	0	0	0	538	137	
9	0	0	0	0	540	138	
10	0	0	0	0	540	139	
11	0	0	0	0	540	137	
12	0	0	0	0	538	138	
13	0	0	0	0	539	138	
14	0	0	0	0	538	139	
15	0	0	0	0	538	137	
0	0	0	0	0	538	137	
1	0	0	0	0	537	138	
2	0	0	0	0	537	137	
3	0	0	0	0	538	138	
4	0	0	0	0	538	138	
5	0	0	0	0	538	137	
6	0	0	0	0	537	138	
7	0	0	0	0	538	138	
8	0	0	0	0	538	138	
9	0	0	0	0	538	138	
10	0	0	0	0	539	139	
11	0	0	0	0	541	137	
12	0	0	0	0	540	138	
13	0	0	0	0	540	137	
14	0	0	0	0	541	138	
15	0	0	0	0	542	139	
0	0	0	0	0	543	137	
1	0	0	0	0	542	138	
2	0	0	0	0	540	139	
3	0	0	0	0	539	137	
4	0	0	0	0	540	137	
5	0	0	0	0	539	138	
6	0	0	0	0	540	138	
7	0	0	0	0	543	137	
8	0	0	0	0	543	138	
9	0	0	0	0	545	138	
10	0	0	0	0	545	138	
11	0	0	0	0	543	137	
12	0	0	0	0	542	138	
13	0	0	0	0	541	139	
14	0	0	0	0	540	137	
15	0	0	0	0	538	138	
0	0	0	0	0	536	139	
1	0	0	0	0	536	137	
2	0	0	0	0	539	137	
3	0	0	0	0	541	138	
4	0	0	0	0	540	138	
5	0	0	0	0	537	137	
6	0	0	0	0	537	138	
7	0	0	0	0	537	139	
8	0	0	0	0	538	137	
9	0	0	0	0	537	138	
10	0	0	0	0	537	138	
11	0	0	0	0	537	137	
12	0	0	0	0	537	138	
13	0	0	0	0	536	139	
14	0	0	0	0	536	137	
15	0	0	0	0	535	137	
0	0	0	0	0	535	138	
1	0	0	0	0	537	138	
2	0	0	0	0	538	137	
3	0	0	0	0	537	138	
4	0	0	0	0	536	138	
5	0	0	0	0	536	137	
6	0	0	0	0	537	138	
7	0	0	0	0	540	139	
8	0	0	0	0	540	137	
9	0	0	0	0	538	138	
10	0	0	0	0	538	138	
11	0	0	0	0	538	137	
12	0	0	0	0	540	138	
13	0	0	0	0	540	138	
14	0	0	0	0	539	137	
15	0	0	0	0	538	138	
0	0	0	0	0	536	138	
1	0	0	0	0	536	138	
2	0	0	0	0	536	137	
3	0	0	0	0	536	137	
4	0	0	0	0	537	138	
5	0	0	0	0	539	138	
6	0	0	0	0	541	137	
7	0	0	0	0	541	138	
8	0	0	0	0	541	138	
9	0	0	0	0	542	137	
10	0	0	0	0	544	138	
11	0	0	0	0	545	138	
12	0	0	0	0	544	137	
13	0	0	0	0	543	138	
14	0	0	0	0	542	138	
15	0	0	0	0	542	138	
0	0	0	0	0	543	137	
1	0	0	0	0	543	137	
2	0	0	0	0	544	138	
3	0	0	0	0	543	139	
4	0	0	0	0	543	137	
5	0	0	0	0	544	138	
6	0	0	0	0	545	138	
7	0	0	0	0	545	137	
8	0	0	0	0	545	137	
9	0	0	0	0	546	138	
10	0	0	0	0	548	138	
11	0	0	0	0	550	137	
12	0	0	0	0	550	137	
13	0	0	0	0	550	138	
14	0	0	0	0	549	137	
15	0	0	0	0	547	137	
0	0	0	0	0	546	138	
1	0	0	0	0	546	138	
2	0	0	0	0	547	137	
3	0	0	0	0	548	137	
4	0	0	0	0	549	138	
5	0	0	0	0	548	138	
6	0	0	0	0	549	138	
7	0	0	0	0	549	137	
8	0	0	0	0	548	138	
9	0	0	0	0	548	138	
10	0	0	0	0	547	137	
11	0	0	0	0	548	137	
12	0	0	0	0	549	138	
13	0	0	0	0	549	138	
14	0	0	0	0	550	138	
15	0	0	0	0	550	137	
0	0	0	0	0	550	138	
1	0	0	0	0	551	138	
2	0	0	0	0	551	137	
3	0	0	0	0	553	137	
4	0	0	0	0	553	137	
5	0	0	0	0	555	138	
6	0	0	0	0	555	138	
7	0	0	0	0	555	137	
8	0	0	0	0	555	138	
9	0	0	0	0	557	138	
10	0	0	0	0	560	137	
11	0	0	0	0	561	137	
12	0	0	0	0	560	138	
13	0	0	0	0	559	138	
14	0	0	0	0	557	137	
15	0	0	0	0	556	137	
0	0	0	0	0	556	138	
1	0	0	0	0	556	138	
2	0	0	0	0	556	137	
3	0	0	0	0	557	138	
4	0	0	0	0	558	138	
5	0	0	0	0	558	137	
6	0	0	0	0	559	138	
7	0	0	0	0	559	138	
8	0	0	0	0	559	137	
9	0	0	0	0	559	137	
10	0	0	0	0	558	138	
11	0	0	0	0	559	138	
12	0	0	0	0	559	137	
13	0	0	0	0	559	138	
14	0	0	0	0	561	138	
15	0	0	0	0	561	137	
0	0	0	0	0	559	137	
1	0	0	0	0	559	138	
2	0	0	0	0	558	138	
3	0	0	0	0	557	137	
4	0	0	0	0	558	138	
5	0	0	0	0	558	138	
6	0	0	0	0	558	137	
7	0	0	0	0	558	138	
8	0	0	0	0	558	138	
9	0	0	0	0	557	137	
10	0	0	0	0	558	137	
11	0	0	0	0	560	138	
12	0	0	0	0	558	138	
13	0	0	0	0	559	137	
14	0	0	0	0	559	138	
15	0	0	0	0	558	138	
0	0	0	0	0	557	137	
1	0	0	0	0	555	137	
2	0	0	0	0	554	138	
3	0	0	0	0	554	137	
4	0	0	0	0	555	137	
5	0	0	0	0	556	138	
6	0	0	0	0	556	138	
7	0	0	0	0	557	137	
8	0	0	0	0	556	137	
9	0	0	0	0	556	138	
10	0	0	0	0	557	138	
11	0	0	0	0	557	138	
12	0	0	0	0	556	137	
13	0	0	0	0	556	136	
14	0	0	0	0	556	137	
15	0	0	0	0	556	138	
0	0	0	0	0	556	138	
1	0	0	0	0	556	136	
2	0	0	0	0	555	137	
3	0	0	0	0	556	138	
4	0	0	0	0	556	137	
5	0	0	0	0	553	137	
6	0	0	0	0	551	137	
7	0	0	0	0	552	138	
8	0	0	0	0	552	138	
9	0	0	0	0	553	137	
10	0	0	0	0	554	137	
11	0	0	0	0	554	138	
12	0	0	0	0	552	138	
13	0	0	0	0	550	136	
14	0	0	0	0	549	137	
15	0	0	0	0	548	138	
0	0	0	0	0	546	137	
1	0	0	0	0	547	137	
2	0	0	0	0	548	137	
3	0	0	0	0	549	137	
4	0	0	0	0	551	138	
5	0	0	0	0	551	138	
6	0	0	0	0	548	137	
7	0	0	0	0	546	138	
8	0	0	0	0	545	138	
9	0	0	0	0	545	137	
10	0	0	0	0	545	137	
11	0	0	0	0	545	138	
12	0	0	0	0	543	137	
13	0	0	0	0	543	137	
14	0	0	0	0	544	138	
15	0	0	0	0	543	137	
0	0	0	0	0	543	137	
1	0	0	0	0	542	138	
2	0	0	0	0	544	138	
3	0	0	0	0	544	137	
4	0	0	0	0	542	137	
5	0	0	0	0	540	138	
6	0	0	0	0	538	138	
7	0	0	0	0	538	137	
8	0	0	0	0	539	138	
9	0	0	0	0	539	138	
10	0	0	0	0	537	137	
11	0	0	0	0	536	137	
12	0	0	0	0	536	138	
13	0	0	0	0	535	136	
14	0	0	0	0	534	137	
15	0	0	0	0	534	138	
0	0	0	0	0	534	136	
1	0	0	0	0	535	138	
2	0	0	0	0	534	138	
3	0	0	0	0	532	137	
4	0	0	0	0	532	138	
5	0	0	0	0	531	138	
6	0	0	0	0	530	138	
7	0	0	0	0	531	137	
8	0	0	0	0	531	137	
9	0	0	0	0	529	138	
10	0	0	0	0	528	138	
11	0	0	0	0	527	137	
12	0	0	0	0	526	138	
13	0	0	0	0	526	138	
14	0	0	0	0	527	137	
15	0	0	0	0	527	138	
0	0	0	0	0	528	136	
1	0	0	0	0	529	137	
2	0	0	0	0	531	138	
3	0	0	0	0	530	137	
4	0	0	0	0	527	138	
5	0	0	0	0	527	138	
6	0	0	0	0	527	137	
7	0	0	0	0	527	138	
8	0	0	0	0	526	138	
9	0	0	0	0	526	137	
10	0	0	0	0	525	137	
11	0	0	0	0	524	138	
12	0	0	0	0	524	137	
13	0	0	0	0	525	137	
14	0	0	0	0	524	138	
15	0	0	0	0	523	136	
0	0	0	0	0	522	137	
1	0	0	0	0	522	138	
2	0	0	0	0	521	137	
3	0	0	0	0	521	137	
4	0	0	0	0	522	138	
5	0	0	0	0	522	137	
6	0	0	0	0	521	137	
7	0	0	0	0	519	138	
8	0	0	0	0	521	138	
9	0	0	0	0	523	137	
10	0	0	0	0	521	138	
11	0	0	0	0	519	137	
12	0	0	0	0	518	137	
13	0	0	0	0	519	138	
14	0	0	0	0	520	138	
15	0	0	0	0	519	136	
0	0	0	0	0	516	137	
1	0	0	0	0	514	138	
2	0	0	0	0	513	137	
3	0	0	0	0	513	137	
4	0	0	0	0	513	138	
5	0	0	0	0	513	138	
6	0	0	0	0	512	137	
7	0	0	0	0	511	138	
8	0	0	0	0	509	138	
9	0	0	0	0	508	137	
10	0	0	0	0	509	138	
11	0	0	0	0	508	138	
12	0	0	0	0	508	137	
13	0	0	0	0	509	137	
14	0	0	0	0	510	138	
15	0	0	0	0	511	137	
0	0	0	0	0	511	137	
1	0	0	0	0	510	138	
2	0	0	0	0	510	136	
3	0	0	0	0	510	137	
4	0	0	0	0	509	138	
5	0	0	0	0	508	136	
6	0	0	0	0	508	137	
7	0	0	0	0	509	138	
8	0	0	0	0	508	137	
9	0	0	0	0	507	137	
10	0	0	0	0	507	138	
11	0	0	0	0	506	137	
12	0	0	0	0	505	137	
13	0	0	0	0	504	138	
14	0	0	0	0	504	137	
15	0	0	0	0	504	137	
0	0	0	0	0	504	137	
1	0	0	0	0	504	136	
2	0	0	0	0	503	137	
3	0	0	0	0	501	137	
4	0	0	0	0	499	137	
5	0	0	0	0	499	137	
6	0	0	0	0	499	137	
7	0	0	0	0	499	137	
8	0	0	0	0	499	138	
9	0	0	0	0	499	137	
10	0	0	0	0	499	137	
11	0	0	0	0	499	138	
12	0	0	0	0	498	137	
13	0	0	0	0	497	137	
14	0	0	0	0	497	138	
15	0	0	0	0	497	136	
0	0	0	0	0	497	137	
1	0	0	0	0	497	138	
2	0	0	0	0	497	137	
3	0	0	0	0	497	137	
4	0	0	0	0	498	138	
5	0	0	0	0	499	136	
6	0	0	0	0	496	137	
7	0	0	0	0	493	138	
8	0	0	0	0	491	137	
9	0	0	0	0	491	137	
10	0	0	0	0	490	137	
11	0	0	0	0	489	137	
12	0	0	0	0	490	137	
13	0	0	0	0	489	138	
14	0	0	0	0	487	137	
15	0	0	0	0	488	137	
0	0	0	0	0	489	138	
1	0	0	0	0	490	137	
2	0	0	0	0	491	137	
3	0	0	0	0	490	138	
4	0	0	0	0	489	137	
5	0	0	0	0	489	137	
6	0	0	0	0	490	138	
7	0	0	0	0	490	137	
8	0	0	0	0	489	137	
9	0	0	0	0	488	137	
10	0	0	0	0	487	137	
11	0	0	0	0	487	137	
12	0	0	0	0	487	138	
13	0	0	0	0	487	137	
14	0	0	0	0	487	137	
15	0	0	0	0	487	138	
0	0	0	0	0	487	137	
1	0	0	0	0	487	137	
2	0	0	0	0	487	138	
3	0	0	0	0	489	137	
4	0	0	0	0	489	137	
5	0	0	0	0	489	136	
6	0	0	0	0	489	137	
7	0	0	0	0	489	137	
8	0	0	0	0	491	138	
9	0	0	0	0	491	136	
10	0	0	0	0	491	137	
11	0	0	0	0	489	137	
12	0	0	0	0	490	136	
13	0	0	0	0	489	137	
14	0	0	0	0	487	137	
15	0	0	0	0	487	137	
0	0	0	0	0	491	137	
1	0	0	0	0	493	137	
2	0	0	0	0	492	136	
3	0	0	0	0	491	137	
4	0	0	0	0	489	137	
5	0	0	0	0	489	138	
6	0	0	0	0	488	136	
7	0	0	0	0	489	137	
8	0	0	0	0	487	138	
9	0	0	0	0	487	137	
10	0	0	0	0	488	137	
11	0	0	0	0	489	137	
12	0	0	0	0	488	137	
13	0	0	0	0	487	137	
14	0	0	0	0	487	137	
15	0	0	0	0	487	136	
0	0	0	0	0	487	137	
1	0	0	0	0	487	137	
2	0	0	0	0	486	136	
3	0	0	0	0	486	137	
4	0	0	0	0	486	137	
5	0	0	0	0	487	137	
6	0	0	0	0	489	136	
7	0	0	0	0	489	137	
8	0	0	0	0	489	138	
9	0	0	0	0	490	136	
10	0	0	0	0	490	136	
11	0	0	0	0	492	137	
12	0	0	0	0	491	137	
13	0	0	0	0	490	136	
14	0	0	0	0	489	137	
15	0	0	0	0	489	137	
0	0	0	0	0	488	136	
1	0	0	0	0	487	137	
2	0	0	0	0	487	137	
