# OpenSignals Text File Format. Version 1
# {"98:D3:B1:FD:3D:90": {"position": 0, "device": "bitalino_rev", "device name": "98:D3:B1:FD:3D:90", "device connection": "/dev/tty.BITalino-DevB", "sampling rate": 1000, "resolution": [4, 1, 1, 1, 1, 10, 10], "firmware version": 1281, "comments": "", "keywords": "", "mode": 0, "sync interval": 2, "date": "2022-4-10", "time": "22:47:53.628", "channels": [2, 3], "sensor": ["ECGBIT", "EDABITREV"], "label": ["A2", "A3"], "column": ["nSeq", "I1", "I2", "O1", "O2", "A2", "A3"], "special": [{}, {}], "digital IO": [0, 0, 1, 1]}}
# EndOfHeader
0	0	0	0	0	508	140	
1	0	0	0	0	507	140	
2	0	0	0	0	505	140	
3	0	0	0	0	504	140	
4	0	0	0	0	504	140	
5	0	0	0	0	506	140	
6	0	0	0	0	507	140	
7	0	0	0	0	511	140	
8	0	0	0	0	514	140	
9	0	0	0	0	518	140	
10	0	0	0	0	519	140	
11	0	0	0	0	519	140	
12	0	0	0	0	518	140	
13	0	0	0	0	515	140	
14	0	0	0	0	511	140	
15	0	0	0	0	507	140	
0	0	0	0	0	504	140	
1	0	0	0	0	500	140	
2	0	0	0	0	496	140	
3	0	0	0	0	493	140	
4	0	0	0	0	491	140	
5	0	0	0	0	489	140	
6	0	0	0	0	489	140	
7	0	0	0	0	491	140	
8	0	0	0	0	493	141	
9	0	0	0	0	497	140	
10	0	0	0	0	501	140	
11	0	0	0	0	506	140	
12	0	0	0	0	514	140	
13	0	0	0	0	522	140	
14	0	0	0	0	528	140	
15	0	0	0	0	528	140	
0	0	0	0	0	519	140	
1	0	0	0	0	506	140	
2	0	0	0	0	493	140	
3	0	0	0	0	484	140	
4	0	0	0	0	479	140	
5	0	0	0	0	475	140	
6	0	0	0	0	475	140	
7	0	0	0	0	478	141	
8	0	0	0	0	486	140	
9	0	0	0	0	497	140	
10	0	0	0	0	509	140	
11	0	0	0	0	519	140	
12	0	0	0	0	527	140	
13	0	0	0	0	534	140	
14	0	0	0	0	540	140	
15	0	0	0	0	543	140	
0	0	0	0	0	543	140	
1	0	0	0	0	538	140	
2	0	0	0	0	534	140	
3	0	0	0	0	529	140	
4	0	0	0	0	523	140	
5	0	0	0	0	517	140	
6	0	0	0	0	511	140	
7	0	0	0	0	505	140	
8	0	0	0	0	500	141	
9	0	0	0	0	496	140	
10	0	0	0	0	493	140	
11	0	0	0	0	491	140	
12	0	0	0	0	491	140	
13	0	0	0	0	491	140	
14	0	0	0	0	492	140	
15	0	0	0	0	494	140	
0	0	0	0	0	496	140	
1	0	0	0	0	498	140	
2	0	0	0	0	500	141	
3	0	0	0	0	502	140	
4	0	0	0	0	501	140	
5	0	0	0	0	498	140	
6	0	0	0	0	496	141	
7	0	0	0	0	495	141	
8	0	0	0	0	496	140	
9	0	0	0	0	496	140	
10	0	0	0	0	498	140	
11	0	0	0	0	501	141	
12	0	0	0	0	502	140	
13	0	0	0	0	503	140	
14	0	0	0	0	505	140	
15	0	0	0	0	506	140	
0	0	0	0	0	507	141	
1	0	0	0	0	507	140	
2	0	0	0	0	506	140	
3	0	0	0	0	505	140	
4	0	0	0	0	503	141	
5	0	0	0	0	502	141	
6	0	0	0	0	500	140	
7	0	0	0	0	499	140	
8	0	0	0	0	501	140	
9	0	0	0	0	502	140	
10	0	0	0	0	504	140	
11	0	0	0	0	507	141	
12	0	0	0	0	508	140	
13	0	0	0	0	509	140	
14	0	0	0	0	508	140	
15	0	0	0	0	510	140	
0	0	0	0	0	508	141	
1	0	0	0	0	505	141	
2	0	0	0	0	501	140	
3	0	0	0	0	497	140	
4	0	0	0	0	495	140	
5	0	0	0	0	493	140	
6	0	0	0	0	491	141	
7	0	0	0	0	489	141	
8	0	0	0	0	489	140	
9	0	0	0	0	489	140	
10	0	0	0	0	488	140	
11	0	0	0	0	489	140	
12	0	0	0	0	491	141	
13	0	0	0	0	495	141	
14	0	0	0	0	498	140	
15	0	0	0	0	501	140	
0	0	0	0	0	504	140	
1	0	0	0	0	504	140	
2	0	0	0	0	505	141	
3	0	0	0	0	504	140	
4	0	0	0	0	502	140	
5	0	0	0	0	499	140	
6	0	0	0	0	496	141	
7	0	0	0	0	492	141	
8	0	0	0	0	491	141	
9	0	0	0	0	488	140	
10	0	0	0	0	487	140	
11	0	0	0	0	488	141	
12	0	0	0	0	491	141	
13	0	0	0	0	495	141	
14	0	0	0	0	497	140	
15	0	0	0	0	500	140	
0	0	0	0	0	503	140	
1	0	0	0	0	503	140	
2	0	0	0	0	502	141	
3	0	0	0	0	499	141	
4	0	0	0	0	495	141	
5	0	0	0	0	493	140	
6	0	0	0	0	492	140	
7	0	0	0	0	494	140	
8	0	0	0	0	498	140	
9	0	0	0	0	499	141	
10	0	0	0	0	497	141	
11	0	0	0	0	494	141	
12	0	0	0	0	491	140	
13	0	0	0	0	490	140	
14	0	0	0	0	492	141	
15	0	0	0	0	494	141	
0	0	0	0	0	494	141	
1	0	0	0	0	493	141	
2	0	0	0	0	492	140	
3	0	0	0	0	489	140	
4	0	0	0	0	487	140	
5	0	0	0	0	482	141	
6	0	0	0	0	478	141	
7	0	0	0	0	476	140	
8	0	0	0	0	474	140	
9	0	0	0	0	475	141	
10	0	0	0	0	475	141	
11	0	0	0	0	476	141	
12	0	0	0	0	478	140	
13	0	0	0	0	481	140	
14	0	0	0	0	484	140	
15	0	0	0	0	485	141	
0	0	0	0	0	484	141	
1	0	0	0	0	481	141	
2	0	0	0	0	476	140	
3	0	0	0	0	472	140	
4	0	0	0	0	468	140	
5	0	0	0	0	464	141	
6	0	0	0	0	461	141	
7	0	0	0	0	460	140	
8	0	0	0	0	460	140	
9	0	0	0	0	460	140	
10	0	0	0	0	460	141	
11	0	0	0	0	462	141	
12	0	0	0	0	466	141	
13	0	0	0	0	471	140	
14	0	0	0	0	473	140	
15	0	0	0	0	475	141	
0	0	0	0	0	477	141	
1	0	0	0	0	476	141	
2	0	0	0	0	474	140	
3	0	0	0	0	471	140	
4	0	0	0	0	467	141	
5	0	0	0	0	460	141	
6	0	0	0	0	450	141	
7	0	0	0	0	438	140	
8	0	0	0	0	427	141	
9	0	0	0	0	419	141	
10	0	0	0	0	415	141	
11	0	0	0	0	414	141	
12	0	0	0	0	416	141	
13	0	0	0	0	420	141	
14	0	0	0	0	425	141	
15	0	0	0	0	429	141	
0	0	0	0	0	432	141	
1	0	0	0	0	437	141	
2	0	0	0	0	442	140	
3	0	0	0	0	446	141	
4	0	0	0	0	447	141	
5	0	0	0	0	447	141	
6	0	0	0	0	446	141	
7	0	0	0	0	444	141	
8	0	0	0	0	444	140	
9	0	0	0	0	443	141	
10	0	0	0	0	441	141	
11	0	0	0	0	440	141	
12	0	0	0	0	441	141	
13	0	0	0	0	444	140	
14	0	0	0	0	448	141	
15	0	0	0	0	452	141	
0	0	0	0	0	456	141	
1	0	0	0	0	460	141	
2	0	0	0	0	465	141	
3	0	0	0	0	467	141	
4	0	0	0	0	468	141	
5	0	0	0	0	469	140	
6	0	0	0	0	467	140	
7	0	0	0	0	466	141	
8	0	0	0	0	463	141	
9	0	0	0	0	461	141	
10	0	0	0	0	460	141	
11	0	0	0	0	460	140	
12	0	0	0	0	460	141	
13	0	0	0	0	459	141	
14	0	0	0	0	462	141	
15	0	0	0	0	466	140	
0	0	0	0	0	471	140	
1	0	0	0	0	475	140	
2	0	0	0	0	480	141	
3	0	0	0	0	485	141	
4	0	0	0	0	488	141	
5	0	0	0	0	490	140	
6	0	0	0	0	487	141	
7	0	0	0	0	484	141	
8	0	0	0	0	480	141	
9	0	0	0	0	476	141	
10	0	0	0	0	474	140	
11	0	0	0	0	473	141	
12	0	0	0	0	472	141	
13	0	0	0	0	472	141	
14	0	0	0	0	473	141	
15	0	0	0	0	477	140	
0	0	0	0	0	484	140	
1	0	0	0	0	494	141	
2	0	0	0	0	502	141	
3	0	0	0	0	507	141	
4	0	0	0	0	510	141	
5	0	0	0	0	509	140	
6	0	0	0	0	505	140	
7	0	0	0	0	502	141	
8	0	0	0	0	497	141	
9	0	0	0	0	491	141	
10	0	0	0	0	487	141	
11	0	0	0	0	483	140	
12	0	0	0	0	479	141	
13	0	0	0	0	477	141	
14	0	0	0	0	476	141	
15	0	0	0	0	477	141	
0	0	0	0	0	483	140	
1	0	0	0	0	492	140	
2	0	0	0	0	502	140	
3	0	0	0	0	508	141	
4	0	0	0	0	513	141	
5	0	0	0	0	515	141	
6	0	0	0	0	519	140	
7	0	0	0	0	524	140	
8	0	0	0	0	526	141	
9	0	0	0	0	523	141	
10	0	0	0	0	515	141	
11	0	0	0	0	503	140	
12	0	0	0	0	496	140	
13	0	0	0	0	491	140	
14	0	0	0	0	488	141	
15	0	0	0	0	489	141	
0	0	0	0	0	491	141	
1	0	0	0	0	495	141	
2	0	0	0	0	499	140	
3	0	0	0	0	504	141	
4	0	0	0	0	509	141	
5	0	0	0	0	513	141	
6	0	0	0	0	518	141	
7	0	0	0	0	519	140	
8	0	0	0	0	518	140	
9	0	0	0	0	515	141	
10	0	0	0	0	510	141	
11	0	0	0	0	505	142	
12	0	0	0	0	502	140	
13	0	0	0	0	504	141	
14	0	0	0	0	505	141	
15	0	0	0	0	507	141	
0	0	0	0	0	508	142	
1	0	0	0	0	507	140	
2	0	0	0	0	508	141	
3	0	0	0	0	509	141	
4	0	0	0	0	512	141	
5	0	0	0	0	516	141	
6	0	0	0	0	520	141	
7	0	0	0	0	520	141	
8	0	0	0	0	519	140	
9	0	0	0	0	520	140	
10	0	0	0	0	519	141	
11	0	0	0	0	519	141	
12	0	0	0	0	517	141	
13	0	0	0	0	515	140	
14	0	0	0	0	512	140	
15	0	0	0	0	510	141	
0	0	0	0	0	508	141	
1	0	0	0	0	508	142	
2	0	0	0	0	510	140	
3	0	0	0	0	512	140	
4	0	0	0	0	516	141	
5	0	0	0	0	524	141	
6	0	0	0	0	531	141	
7	0	0	0	0	537	141	
8	0	0	0	0	541	141	
9	0	0	0	0	541	140	
10	0	0	0	0	538	140	
11	0	0	0	0	533	141	
12	0	0	0	0	526	141	
13	0	0	0	0	523	141	
14	0	0	0	0	519	141	
15	0	0	0	0	518	140	
0	0	0	0	0	515	140	
1	0	0	0	0	513	141	
2	0	0	0	0	513	141	
3	0	0	0	0	515	141	
4	0	0	0	0	518	141	
5	0	0	0	0	523	140	
6	0	0	0	0	527	140	
7	0	0	0	0	532	141	
8	0	0	0	0	535	141	
9	0	0	0	0	535	141	
10	0	0	0	0	534	141	
11	0	0	0	0	532	141	
12	0	0	0	0	531	141	
13	0	0	0	0	530	140	
14	0	0	0	0	528	140	
15	0	0	0	0	527	141	
0	0	0	0	0	524	141	
1	0	0	0	0	523	142	
2	0	0	0	0	523	140	
3	0	0	0	0	525	140	
4	0	0	0	0	529	141	
5	0	0	0	0	536	141	
6	0	0	0	0	543	142	
7	0	0	0	0	549	140	
8	0	0	0	0	553	140	
9	0	0	0	0	557	141	
10	0	0	0	0	557	141	
11	0	0	0	0	556	141	
12	0	0	0	0	554	140	
13	0	0	0	0	552	141	
14	0	0	0	0	552	141	
15	0	0	0	0	553	141	
0	0	0	0	0	555	141	
1	0	0	0	0	558	140	
2	0	0	0	0	563	140	
3	0	0	0	0	567	141	
4	0	0	0	0	572	141	
5	0	0	0	0	577	141	
6	0	0	0	0	584	140	
7	0	0	0	0	590	140	
8	0	0	0	0	591	141	
9	0	0	0	0	590	141	
10	0	0	0	0	588	141	
11	0	0	0	0	580	141	
12	0	0	0	0	571	140	
13	0	0	0	0	561	140	
14	0	0	0	0	550	141	
15	0	0	0	0	541	141	
0	0	0	0	0	533	142	
1	0	0	0	0	527	140	
2	0	0	0	0	526	141	
3	0	0	0	0	526	141	
4	0	0	0	0	527	141	
5	0	0	0	0	527	141	
6	0	0	0	0	527	140	
7	0	0	0	0	527	141	
8	0	0	0	0	526	141	
9	0	0	0	0	522	142	
10	0	0	0	0	520	141	
11	0	0	0	0	517	141	
12	0	0	0	0	513	141	
13	0	0	0	0	508	141	
14	0	0	0	0	503	142	
15	0	0	0	0	495	141	
0	0	0	0	0	486	142	
1	0	0	0	0	479	141	
2	0	0	0	0	471	141	
3	0	0	0	0	464	142	
4	0	0	0	0	463	142	
5	0	0	0	0	464	142	
6	0	0	0	0	468	141	
7	0	0	0	0	474	141	
8	0	0	0	0	481	142	
9	0	0	0	0	486	142	
10	0	0	0	0	488	141	
11	0	0	0	0	491	141	
12	0	0	0	0	494	141	
13	0	0	0	0	495	141	
14	0	0	0	0	495	142	
15	0	0	0	0	494	142	
0	0	0	0	0	495	141	
1	0	0	0	0	496	141	
2	0	0	0	0	499	141	
3	0	0	0	0	502	141	
4	0	0	0	0	505	141	
5	0	0	0	0	511	142	
6	0	0	0	0	516	142	
7	0	0	0	0	522	141	
8	0	0	0	0	527	140	
9	0	0	0	0	533	140	
10	0	0	0	0	540	140	
11	0	0	0	0	544	141	
12	0	0	0	0	546	141	
13	0	0	0	0	547	141	
14	0	0	0	0	545	141	
15	0	0	0	0	542	142	
0	0	0	0	0	539	141	
1	0	0	0	0	536	140	
2	0	0	0	0	535	141	
3	0	0	0	0	534	141	
4	0	0	0	0	534	141	
5	0	0	0	0	535	141	
6	0	0	0	0	538	141	
7	0	0	0	0	542	142	
8	0	0	0	0	545	142	
9	0	0	0	0	548	141	
10	0	0	0	0	552	140	
11	0	0	0	0	554	140	
12	0	0	0	0	556	141	
13	0	0	0	0	556	141	
14	0	0	0	0	558	141	
15	0	0	0	0	557	142	
0	0	0	0	0	555	141	
1	0	0	0	0	551	140	
2	0	0	0	0	547	141	
3	0	0	0	0	543	141	
4	0	0	0	0	539	141	
5	0	0	0	0	536	142	
6	0	0	0	0	535	141	
7	0	0	0	0	536	141	
8	0	0	0	0	539	141	
9	0	0	0	0	540	141	
10	0	0	0	0	541	141	
11	0	0	0	0	543	142	
12	0	0	0	0	544	141	
13	0	0	0	0	543	141	
14	0	0	0	0	542	141	
15	0	0	0	0	540	141	
0	0	0	0	0	537	142	
1	0	0	0	0	532	141	
2	0	0	0	0	528	141	
3	0	0	0	0	524	141	
4	0	0	0	0	522	142	
5	0	0	0	0	520	142	
6	0	0	0	0	519	141	
7	0	0	0	0	522	141	
8	0	0	0	0	524	141	
9	0	0	0	0	529	142	
10	0	0	0	0	531	142	
11	0	0	0	0	533	142	
12	0	0	0	0	534	141	
13	0	0	0	0	534	141	
14	0	0	0	0	531	141	
15	0	0	0	0	527	142	
0	0	0	0	0	524	142	
1	0	0	0	0	520	141	
2	0	0	0	0	516	141	
3	0	0	0	0	512	141	
4	0	0	0	0	508	142	
5	0	0	0	0	505	142	
6	0	0	0	0	505	141	
7	0	0	0	0	507	141	
8	0	0	0	0	510	141	
9	0	0	0	0	511	141	
10	0	0	0	0	513	142	
11	0	0	0	0	516	142	
12	0	0	0	0	518	141	
13	0	0	0	0	519	141	
14	0	0	0	0	522	141	
15	0	0	0	0	522	141	
0	0	0	0	0	520	142	
1	0	0	0	0	518	142	
2	0	0	0	0	514	141	
3	0	0	0	0	511	141	
4	0	0	0	0	507	141	
5	0	0	0	0	504	142	
6	0	0	0	0	501	142	
7	0	0	0	0	501	142	
8	0	0	0	0	502	142	
9	0	0	0	0	502	142	
10	0	0	0	0	505	141	
11	0	0	0	0	508	141	
12	0	0	0	0	510	141	
13	0	0	0	0	512	142	
14	0	0	0	0	513	142	
15	0	0	0	0	514	141	
0	0	0	0	0	515	141	
1	0	0	0	0	513	141	
2	0	0	0	0	511	142	
3	0	0	0	0	508	142	
4	0	0	0	0	505	142	
5	0	0	0	0	504	142	
6	0	0	0	0	504	141	
7	0	0	0	0	503	141	
8	0	0	0	0	503	141	
9	0	0	0	0	504	142	
10	0	0	0	0	507	142	
11	0	0	0	0	509	142	
12	0	0	0	0	511	141	
13	0	0	0	0	514	141	
14	0	0	0	0	518	142	
15	0	0	0	0	519	142	
0	0	0	0	0	519	142	
1	0	0	0	0	518	141	
2	0	0	0	0	515	141	
3	0	0	0	0	514	142	
4	0	0	0	0	512	142	
5	0	0	0	0	510	142	
6	0	0	0	0	508	141	
7	0	0	0	0	506	141	
8	0	0	0	0	507	142	
9	0	0	0	0	507	142	
10	0	0	0	0	509	142	
11	0	0	0	0	511	141	
12	0	0	0	0	512	141	
13	0	0	0	0	516	142	
14	0	0	0	0	517	142	
15	0	0	0	0	518	142	
0	0	0	0	0	518	141	
1	0	0	0	0	516	141	
2	0	0	0	0	515	141	
3	0	0	0	0	513	142	
4	0	0	0	0	511	142	
5	0	0	0	0	508	142	
6	0	0	0	0	505	141	
7	0	0	0	0	504	141	
8	0	0	0	0	504	141	
9	0	0	0	0	503	142	
10	0	0	0	0	503	142	
11	0	0	0	0	503	141	
12	0	0	0	0	506	141	
13	0	0	0	0	509	141	
14	0	0	0	0	512	142	
15	0	0	0	0	514	142	
0	0	0	0	0	515	142	
1	0	0	0	0	518	141	
2	0	0	0	0	519	141	
3	0	0	0	0	519	142	
4	0	0	0	0	518	142	
5	0	0	0	0	515	142	
6	0	0	0	0	513	141	
7	0	0	0	0	510	141	
8	0	0	0	0	509	142	
9	0	0	0	0	509	142	
10	0	0	0	0	511	141	
11	0	0	0	0	513	141	
12	0	0	0	0	515	142	
13	0	0	0	0	518	142	
14	0	0	0	0	521	142	
15	0	0	0	0	524	142	
0	0	0	0	0	527	141	
1	0	0	0	0	528	141	
2	0	0	0	0	529	142	
3	0	0	0	0	530	142	
4	0	0	0	0	529	142	
5	0	0	0	0	527	141	
6	0	0	0	0	525	141	
7	0	0	0	0	524	142	
8	0	0	0	0	522	142	
9	0	0	0	0	521	142	
10	0	0	0	0	521	141	
11	0	0	0	0	521	141	
12	0	0	0	0	522	141	
13	0	0	0	0	524	142	
14	0	0	0	0	527	142	
15	0	0	0	0	530	141	
0	0	0	0	0	532	141	
1	0	0	0	0	535	141	
2	0	0	0	0	537	142	
3	0	0	0	0	537	142	
4	0	0	0	0	537	142	
5	0	0	0	0	537	141	
6	0	0	0	0	535	141	
7	0	0	0	0	532	141	
8	0	0	0	0	530	142	
9	0	0	0	0	529	142	
10	0	0	0	0	528	141	
11	0	0	0	0	529	141	
12	0	0	0	0	531	142	
13	0	0	0	0	535	142	
14	0	0	0	0	537	142	
15	0	0	0	0	540	141	
0	0	0	0	0	542	141	
1	0	0	0	0	544	141	
2	0	0	0	0	544	142	
3	0	0	0	0	545	142	
4	0	0	0	0	543	141	
5	0	0	0	0	540	141	
6	0	0	0	0	535	142	
7	0	0	0	0	530	142	
8	0	0	0	0	526	142	
9	0	0	0	0	522	141	
10	0	0	0	0	519	141	
11	0	0	0	0	517	142	
12	0	0	0	0	518	142	
13	0	0	0	0	521	142	
14	0	0	0	0	529	141	
15	0	0	0	0	537	141	
0	0	0	0	0	546	141	
1	0	0	0	0	552	142	
2	0	0	0	0	556	142	
3	0	0	0	0	556	141	
4	0	0	0	0	558	141	
5	0	0	0	0	561	141	
6	0	0	0	0	562	142	
7	0	0	0	0	558	142	
8	0	0	0	0	549	142	
9	0	0	0	0	540	141	
10	0	0	0	0	532	141	
11	0	0	0	0	527	142	
12	0	0	0	0	524	142	
13	0	0	0	0	522	142	
14	0	0	0	0	522	142	
15	0	0	0	0	524	141	
0	0	0	0	0	526	141	
1	0	0	0	0	528	142	
2	0	0	0	0	529	142	
3	0	0	0	0	529	142	
4	0	0	0	0	530	142	
5	0	0	0	0	529	141	
6	0	0	0	0	527	141	
7	0	0	0	0	525	142	
8	0	0	0	0	521	142	
9	0	0	0	0	519	142	
10	0	0	0	0	514	141	
11	0	0	0	0	513	141	
12	0	0	0	0	512	142	
13	0	0	0	0	512	142	
14	0	0	0	0	513	142	
15	0	0	0	0	515	142	
0	0	0	0	0	516	142	
1	0	0	0	0	519	142	
2	0	0	0	0	523	141	
3	0	0	0	0	525	141	
4	0	0	0	0	527	141	
5	0	0	0	0	527	142	
6	0	0	0	0	527	142	
7	0	0	0	0	524	142	
8	0	0	0	0	521	142	
9	0	0	0	0	519	141	
10	0	0	0	0	515	141	
11	0	0	0	0	512	141	
12	0	0	0	0	511	142	
13	0	0	0	0	510	142	
14	0	0	0	0	509	142	
15	0	0	0	0	512	142	
0	0	0	0	0	515	142	
1	0	0	0	0	516	142	
2	0	0	0	0	519	141	
3	0	0	0	0	521	141	
4	0	0	0	0	524	141	
5	0	0	0	0	524	142	
6	0	0	0	0	523	142	
7	0	0	0	0	523	142	
8	0	0	0	0	520	141	
9	0	0	0	0	519	141	
10	0	0	0	0	516	142	
11	0	0	0	0	513	142	
12	0	0	0	0	511	142	
13	0	0	0	0	510	142	
14	0	0	0	0	510	141	
15	0	0	0	0	511	141	
0	0	0	0	0	513	141	
1	0	0	0	0	513	142	
2	0	0	0	0	516	142	
3	0	0	0	0	519	142	
4	0	0	0	0	520	141	
5	0	0	0	0	522	141	
6	0	0	0	0	523	142	
7	0	0	0	0	523	142	
8	0	0	0	0	523	142	
9	0	0	0	0	522	141	
10	0	0	0	0	520	141	
11	0	0	0	0	519	141	
12	0	0	0	0	515	142	
13	0	0	0	0	513	142	
14	0	0	0	0	511	142	
15	0	0	0	0	510	141	
0	0	0	0	0	511	141	
1	0	0	0	0	512	142	
2	0	0	0	0	515	142	
3	0	0	0	0	519	142	
4	0	0	0	0	523	142	
5	0	0	0	0	525	141	
6	0	0	0	0	527	141	
7	0	0	0	0	528	142	
8	0	0	0	0	528	142	
9	0	0	0	0	527	142	
10	0	0	0	0	526	141	
11	0	0	0	0	524	141	
12	0	0	0	0	522	141	
13	0	0	0	0	520	142	
14	0	0	0	0	519	142	
15	0	0	0	0	519	141	
0	0	0	0	0	520	141	
1	0	0	0	0	521	142	
2	0	0	0	0	523	142	
3	0	0	0	0	526	142	
4	0	0	0	0	529	142	
5	0	0	0	0	531	141	
6	0	0	0	0	534	141	
7	0	0	0	0	537	141	
8	0	0	0	0	537	142	
9	0	0	0	0	537	142	
10	0	0	0	0	536	142	
11	0	0	0	0	534	142	
12	0	0	0	0	532	142	
13	0	0	0	0	529	141	
14	0	0	0	0	527	141	
15	0	0	0	0	524	142	
0	0	0	0	0	524	142	
1	0	0	0	0	525	142	
2	0	0	0	0	527	142	
3	0	0	0	0	528	141	
4	0	0	0	0	531	142	
5	0	0	0	0	535	142	
6	0	0	0	0	536	142	
7	0	0	0	0	537	142	
8	0	0	0	0	538	141	
9	0	0	0	0	536	141	
10	0	0	0	0	535	141	
11	0	0	0	0	532	142	
12	0	0	0	0	530	142	
13	0	0	0	0	529	142	
14	0	0	0	0	527	141	
15	0	0	0	0	524	141	
0	0	0	0	0	522	142	
1	0	0	0	0	521	142	
2	0	0	0	0	522	142	
3	0	0	0	0	523	141	
4	0	0	0	0	525	142	
5	0	0	0	0	528	142	
6	0	0	0	0	531	142	
7	0	0	0	0	535	142	
8	0	0	0	0	536	141	
9	0	0	0	0	537	141	
10	0	0	0	0	538	142	
11	0	0	0	0	537	142	
12	0	0	0	0	534	142	
13	0	0	0	0	530	141	
14	0	0	0	0	528	141	
15	0	0	0	0	526	142	
0	0	0	0	0	524	142	
1	0	0	0	0	524	142	
2	0	0	0	0	523	142	
3	0	0	0	0	524	141	
4	0	0	0	0	524	142	
5	0	0	0	0	526	142	
6	0	0	0	0	527	142	
7	0	0	0	0	530	142	
8	0	0	0	0	534	141	
9	0	0	0	0	536	141	
10	0	0	0	0	536	142	
11	0	0	0	0	537	142	
12	0	0	0	0	535	142	
13	0	0	0	0	532	141	
14	0	0	0	0	530	141	
15	0	0	0	0	528	142	
0	0	0	0	0	527	142	
1	0	0	0	0	526	142	
2	0	0	0	0	526	142	
3	0	0	0	0	528	141	
4	0	0	0	0	531	141	
5	0	0	0	0	534	142	
6	0	0	0	0	537	142	
7	0	0	0	0	541	142	
8	0	0	0	0	544	142	
9	0	0	0	0	545	142	
10	0	0	0	0	545	141	
11	0	0	0	0	543	141	
12	0	0	0	0	542	141	
13	0	0	0	0	539	142	
14	0	0	0	0	536	142	
15	0	0	0	0	534	142	
0	0	0	0	0	532	142	
1	0	0	0	0	530	141	
2	0	0	0	0	529	141	
3	0	0	0	0	528	141	
4	0	0	0	0	527	141	
5	0	0	0	0	526	142	
6	0	0	0	0	527	142	
7	0	0	0	0	529	142	
8	0	0	0	0	531	142	
9	0	0	0	0	533	142	
10	0	0	0	0	534	142	
11	0	0	0	0	534	142	
12	0	0	0	0	532	141	
13	0	0	0	0	528	141	
14	0	0	0	0	524	141	
15	0	0	0	0	519	141	
0	0	0	0	0	516	141	
1	0	0	0	0	512	142	
2	0	0	0	0	510	142	
3	0	0	0	0	508	142	
4	0	0	0	0	507	142	
5	0	0	0	0	509	142	
6	0	0	0	0	510	142	
7	0	0	0	0	513	141	
8	0	0	0	0	516	142	
9	0	0	0	0	518	142	
10	0	0	0	0	520	142	
11	0	0	0	0	522	142	
12	0	0	0	0	524	142	
13	0	0	0	0	524	141	
14	0	0	0	0	521	141	
15	0	0	0	0	519	141	
0	0	0	0	0	514	142	
1	0	0	0	0	510	142	
2	0	0	0	0	506	142	
3	0	0	0	0	503	142	
4	0	0	0	0	501	141	
5	0	0	0	0	500	142	
6	0	0	0	0	501	142	
7	0	0	0	0	502	142	
8	0	0	0	0	506	142	
9	0	0	0	0	508	142	
10	0	0	0	0	510	141	
11	0	0	0	0	513	142	
12	0	0	0	0	516	142	
13	0	0	0	0	517	142	
14	0	0	0	0	516	142	
15	0	0	0	0	515	141	
0	0	0	0	0	512	142	
1	0	0	0	0	508	142	
2	0	0	0	0	504	142	
3	0	0	0	0	501	142	
4	0	0	0	0	500	141	
5	0	0	0	0	499	142	
6	0	0	0	0	499	142	
7	0	0	0	0	500	142	
8	0	0	0	0	503	142	
9	0	0	0	0	505	141	
10	0	0	0	0	507	142	
11	0	0	0	0	509	142	
12	0	0	0	0	511	142	
13	0	0	0	0	513	142	
14	0	0	0	0	512	141	
15	0	0	0	0	511	142	
0	0	0	0	0	508	142	
1	0	0	0	0	505	142	
2	0	0	0	0	503	142	
3	0	0	0	0	499	142	
4	0	0	0	0	496	142	
5	0	0	0	0	493	142	
6	0	0	0	0	493	142	
7	0	0	0	0	494	142	
8	0	0	0	0	495	142	
9	0	0	0	0	499	142	
10	0	0	0	0	502	142	
11	0	0	0	0	503	141	
12	0	0	0	0	505	142	
13	0	0	0	0	506	142	
14	0	0	0	0	505	142	
15	0	0	0	0	505	142	
0	0	0	0	0	504	142	
1	0	0	0	0	502	142	
2	0	0	0	0	499	142	
3	0	0	0	0	495	142	
4	0	0	0	0	493	143	
5	0	0	0	0	491	142	
6	0	0	0	0	490	142	
7	0	0	0	0	490	142	
8	0	0	0	0	491	142	
9	0	0	0	0	492	142	
10	0	0	0	0	494	142	
11	0	0	0	0	497	142	
12	0	0	0	0	499	142	
13	0	0	0	0	500	142	
14	0	0	0	0	500	142	
15	0	0	0	0	499	142	
0	0	0	0	0	499	141	
1	0	0	0	0	498	142	
2	0	0	0	0	496	142	
3	0	0	0	0	494	142	
4	0	0	0	0	492	143	
5	0	0	0	0	488	142	
6	0	0	0	0	487	142	
7	0	0	0	0	486	142	
8	0	0	0	0	486	142	
9	0	0	0	0	488	142	
10	0	0	0	0	491	142	
11	0	0	0	0	494	142	
12	0	0	0	0	496	142	
13	0	0	0	0	499	142	
14	0	0	0	0	502	142	
15	0	0	0	0	503	142	
0	0	0	0	0	502	142	
1	0	0	0	0	500	142	
2	0	0	0	0	498	142	
3	0	0	0	0	496	142	
4	0	0	0	0	494	142	
5	0	0	0	0	493	142	
6	0	0	0	0	492	142	
7	0	0	0	0	491	142	
8	0	0	0	0	491	142	
9	0	0	0	0	493	142	
10	0	0	0	0	494	142	
11	0	0	0	0	496	142	
12	0	0	0	0	499	142	
13	0	0	0	0	501	142	
14	0	0	0	0	502	142	
15	0	0	0	0	503	142	
0	0	0	0	0	502	142	
1	0	0	0	0	499	142	
2	0	0	0	0	497	142	
3	0	0	0	0	494	142	
4	0	0	0	0	491	142	
5	0	0	0	0	489	142	
6	0	0	0	0	486	142	
7	0	0	0	0	485	142	
8	0	0	0	0	485	142	
9	0	0	0	0	485	142	
10	0	0	0	0	487	142	
11	0	0	0	0	489	142	
12	0	0	0	0	493	142	
13	0	0	0	0	497	142	
14	0	0	0	0	500	142	
15	0	0	0	0	503	142	
0	0	0	0	0	504	142	
1	0	0	0	0	505	142	
2	0	0	0	0	504	142	
3	0	0	0	0	502	142	
4	0	0	0	0	500	142	
5	0	0	0	0	497	142	
6	0	0	0	0	494	142	
7	0	0	0	0	492	142	
8	0	0	0	0	490	142	
9	0	0	0	0	489	142	
10	0	0	0	0	490	143	
11	0	0	0	0	492	142	
12	0	0	0	0	495	142	
13	0	0	0	0	497	142	
14	0	0	0	0	500	142	
15	0	0	0	0	503	143	
0	0	0	0	0	504	142	
1	0	0	0	0	505	142	
2	0	0	0	0	504	142	
3	0	0	0	0	503	142	
4	0	0	0	0	503	142	
5	0	0	0	0	500	142	
6	0	0	0	0	498	142	
7	0	0	0	0	494	142	
8	0	0	0	0	492	142	
9	0	0	0	0	490	142	
10	0	0	0	0	490	142	
11	0	0	0	0	493	143	
12	0	0	0	0	494	143	
13	0	0	0	0	497	142	
14	0	0	0	0	502	142	
15	0	0	0	0	504	142	
0	0	0	0	0	505	142	
1	0	0	0	0	504	143	
2	0	0	0	0	504	142	
3	0	0	0	0	502	142	
4	0	0	0	0	499	142	
5	0	0	0	0	497	142	
6	0	0	0	0	494	142	
7	0	0	0	0	492	142	
8	0	0	0	0	491	143	
9	0	0	0	0	491	142	
10	0	0	0	0	490	142	
11	0	0	0	0	490	142	
12	0	0	0	0	492	142	
13	0	0	0	0	494	142	
14	0	0	0	0	497	142	
15	0	0	0	0	501	142	
0	0	0	0	0	504	142	
1	0	0	0	0	506	142	
2	0	0	0	0	507	142	
3	0	0	0	0	505	142	
4	0	0	0	0	502	142	
5	0	0	0	0	498	142	
6	0	0	0	0	495	142	
7	0	0	0	0	492	142	
8	0	0	0	0	488	142	
9	0	0	0	0	487	143	
10	0	0	0	0	486	142	
11	0	0	0	0	485	142	
12	0	0	0	0	486	142	
13	0	0	0	0	489	142	
14	0	0	0	0	492	143	
15	0	0	0	0	495	142	
0	0	0	0	0	497	142	
1	0	0	0	0	501	142	
2	0	0	0	0	503	142	
3	0	0	0	0	503	142	
4	0	0	0	0	501	143	
5	0	0	0	0	498	142	
6	0	0	0	0	496	142	
7	0	0	0	0	494	142	
8	0	0	0	0	491	142	
9	0	0	0	0	489	142	
10	0	0	0	0	487	142	
11	0	0	0	0	484	143	
12	0	0	0	0	484	142	
13	0	0	0	0	485	142	
14	0	0	0	0	486	142	
15	0	0	0	0	489	142	
0	0	0	0	0	492	143	
1	0	0	0	0	495	142	
2	0	0	0	0	499	142	
3	0	0	0	0	499	142	
4	0	0	0	0	499	142	
5	0	0	0	0	498	143	
6	0	0	0	0	495	142	
7	0	0	0	0	492	142	
8	0	0	0	0	489	142	
9	0	0	0	0	487	142	
10	0	0	0	0	485	142	
11	0	0	0	0	483	142	
12	0	0	0	0	483	142	
13	0	0	0	0	484	142	
14	0	0	0	0	486	142	
15	0	0	0	0	488	142	
0	0	0	0	0	492	142	
1	0	0	0	0	495	142	
2	0	0	0	0	497	142	
3	0	0	0	0	499	142	
4	0	0	0	0	500	142	
5	0	0	0	0	502	142	
6	0	0	0	0	504	142	
7	0	0	0	0	503	142	
8	0	0	0	0	501	142	
9	0	0	0	0	498	142	
10	0	0	0	0	494	142	
11	0	0	0	0	492	142	
12	0	0	0	0	491	143	
13	0	0	0	0	491	142	
14	0	0	0	0	490	142	
15	0	0	0	0	493	142	
0	0	0	0	0	496	142	
1	0	0	0	0	498	142	
2	0	0	0	0	500	142	
3	0	0	0	0	502	142	
4	0	0	0	0	504	142	
5	0	0	0	0	504	142	
6	0	0	0	0	503	142	
7	0	0	0	0	502	142	
8	0	0	0	0	499	143	
9	0	0	0	0	496	142	
10	0	0	0	0	495	142	
11	0	0	0	0	494	142	
12	0	0	0	0	495	142	
13	0	0	0	0	496	142	
14	0	0	0	0	496	143	
15	0	0	0	0	499	142	
0	0	0	0	0	500	142	
1	0	0	0	0	502	142	
2	0	0	0	0	503	142	
3	0	0	0	0	504	142	
4	0	0	0	0	505	142	
5	0	0	0	0	507	142	
6	0	0	0	0	507	142	
7	0	0	0	0	507	142	
8	0	0	0	0	507	142	
9	0	0	0	0	504	143	
10	0	0	0	0	500	142	
11	0	0	0	0	497	142	
12	0	0	0	0	496	142	
13	0	0	0	0	494	142	
14	0	0	0	0	492	142	
15	0	0	0	0	491	142	
0	0	0	0	0	491	143	
1	0	0	0	0	493	142	
2	0	0	0	0	495	142	
3	0	0	0	0	499	142	
4	0	0	0	0	502	142	
5	0	0	0	0	504	142	
6	0	0	0	0	505	142	
7	0	0	0	0	505	142	
8	0	0	0	0	504	142	
9	0	0	0	0	500	142	
10	0	0	0	0	497	143	
11	0	0	0	0	492	142	
12	0	0	0	0	488	142	
13	0	0	0	0	484	142	
14	0	0	0	0	482	142	
15	0	0	0	0	482	142	
0	0	0	0	0	483	143	
1	0	0	0	0	485	143	
2	0	0	0	0	488	142	
3	0	0	0	0	493	142	
4	0	0	0	0	498	142	
5	0	0	0	0	502	142	
6	0	0	0	0	505	143	
7	0	0	0	0	504	142	
8	0	0	0	0	499	142	
9	0	0	0	0	494	142	
10	0	0	0	0	490	142	
11	0	0	0	0	487	143	
12	0	0	0	0	486	143	
13	0	0	0	0	483	142	
14	0	0	0	0	482	142	
15	0	0	0	0	481	142	
0	0	0	0	0	481	142	
1	0	0	0	0	483	142	
2	0	0	0	0	485	143	
3	0	0	0	0	489	142	
4	0	0	0	0	493	142	
5	0	0	0	0	497	142	
6	0	0	0	0	501	142	
7	0	0	0	0	503	142	
8	0	0	0	0	504	143	
9	0	0	0	0	504	142	
10	0	0	0	0	502	142	
11	0	0	0	0	500	142	
12	0	0	0	0	498	142	
13	0	0	0	0	496	143	
14	0	0	0	0	493	142	
15	0	0	0	0	490	142	
0	0	0	0	0	489	142	
1	0	0	0	0	488	142	
2	0	0	0	0	488	143	
3	0	0	0	0	491	142	
4	0	0	0	0	493	142	
5	0	0	0	0	496	142	
6	0	0	0	0	498	142	
7	0	0	0	0	500	142	
8	0	0	0	0	503	142	
9	0	0	0	0	504	142	
10	0	0	0	0	503	142	
11	0	0	0	0	503	142	
12	0	0	0	0	501	142	
13	0	0	0	0	497	142	
14	0	0	0	0	495	143	
15	0	0	0	0	494	142	
0	0	0	0	0	492	142	
1	0	0	0	0	492	142	
2	0	0	0	0	493	143	
3	0	0	0	0	495	143	
4	0	0	0	0	497	142	
5	0	0	0	0	500	142	
6	0	0	0	0	504	142	
7	0	0	0	0	506	142	
8	0	0	0	0	508	142	
9	0	0	0	0	508	143	
10	0	0	0	0	506	142	
11	0	0	0	0	505	142	
12	0	0	0	0	503	142	
13	0	0	0	0	500	142	
14	0	0	0	0	497	143	
15	0	0	0	0	495	143	
0	0	0	0	0	493	142	
1	0	0	0	0	492	142	
2	0	0	0	0	492	142	
3	0	0	0	0	492	142	
4	0	0	0	0	491	142	
5	0	0	0	0	492	143	
6	0	0	0	0	493	142	
7	0	0	0	0	494	142	
8	0	0	0	0	495	142	
9	0	0	0	0	495	142	
10	0	0	0	0	494	143	
11	0	0	0	0	493	142	
12	0	0	0	0	491	142	
13	0	0	0	0	488	142	
14	0	0	0	0	485	143	
15	0	0	0	0	483	143	
0	0	0	0	0	481	142	
1	0	0	0	0	481	142	
2	0	0	0	0	481	142	
3	0	0	0	0	484	142	
4	0	0	0	0	487	142	
5	0	0	0	0	490	143	
6	0	0	0	0	492	142	
7	0	0	0	0	494	142	
8	0	0	0	0	496	142	
9	0	0	0	0	498	142	
10	0	0	0	0	499	143	
11	0	0	0	0	499	142	
12	0	0	0	0	498	142	
13	0	0	0	0	496	142	
14	0	0	0	0	493	142	
15	0	0	0	0	491	142	
0	0	0	0	0	487	143	
1	0	0	0	0	485	142	
2	0	0	0	0	482	142	
3	0	0	0	0	480	142	
4	0	0	0	0	480	142	
5	0	0	0	0	481	142	
6	0	0	0	0	481	142	
7	0	0	0	0	483	142	
8	0	0	0	0	485	142	
9	0	0	0	0	487	142	
10	0	0	0	0	488	142	
11	0	0	0	0	489	142	
12	0	0	0	0	489	142	
13	0	0	0	0	489	142	
14	0	0	0	0	489	142	
15	0	0	0	0	487	143	
0	0	0	0	0	486	142	
1	0	0	0	0	485	142	
2	0	0	0	0	483	142	
3	0	0	0	0	483	142	
4	0	0	0	0	483	143	
5	0	0	0	0	483	142	
6	0	0	0	0	484	142	
7	0	0	0	0	486	142	
8	0	0	0	0	489	142	
9	0	0	0	0	492	142	
10	0	0	0	0	494	142	
11	0	0	0	0	495	142	
12	0	0	0	0	496	142	
13	0	0	0	0	496	142	
14	0	0	0	0	496	142	
15	0	0	0	0	494	142	
0	0	0	0	0	492	143	
1	0	0	0	0	492	142	
2	0	0	0	0	492	142	
3	0	0	0	0	491	142	
4	0	0	0	0	491	142	
5	0	0	0	0	489	143	
6	0	0	0	0	489	142	
7	0	0	0	0	490	142	
8	0	0	0	0	492	142	
9	0	0	0	0	495	142	
10	0	0	0	0	497	143	
11	0	0	0	0	499	142	
12	0	0	0	0	500	142	
13	0	0	0	0	500	142	
14	0	0	0	0	500	142	
15	0	0	0	0	498	142	
0	0	0	0	0	496	143	
1	0	0	0	0	494	142	
2	0	0	0	0	491	142	
3	0	0	0	0	491	142	
4	0	0	0	0	492	142	
5	0	0	0	0	494	142	
6	0	0	0	0	496	143	
7	0	0	0	0	497	142	
8	0	0	0	0	500	142	
9	0	0	0	0	504	142	
10	0	0	0	0	508	142	
11	0	0	0	0	511	142	
12	0	0	0	0	514	142	
13	0	0	0	0	518	142	
14	0	0	0	0	519	142	
15	0	0	0	0	520	142	
0	0	0	0	0	519	142	
1	0	0	0	0	515	142	
2	0	0	0	0	513	142	
3	0	0	0	0	509	142	
4	0	0	0	0	508	143	
5	0	0	0	0	507	142	
6	0	0	0	0	507	142	
7	0	0	0	0	509	142	
8	0	0	0	0	511	142	
9	0	0	0	0	513	142	
10	0	0	0	0	516	143	
11	0	0	0	0	518	142	
12	0	0	0	0	521	142	
13	0	0	0	0	524	142	
14	0	0	0	0	525	142	
15	0	0	0	0	524	142	
0	0	0	0	0	523	142	
1	0	0	0	0	520	142	
2	0	0	0	0	516	142	
3	0	0	0	0	513	142	
4	0	0	0	0	510	142	
5	0	0	0	0	507	142	
6	0	0	0	0	505	143	
7	0	0	0	0	505	142	
8	0	0	0	0	508	142	
9	0	0	0	0	510	142	
10	0	0	0	0	512	142	
11	0	0	0	0	515	143	
12	0	0	0	0	517	142	
13	0	0	0	0	521	142	
14	0	0	0	0	524	142	
15	0	0	0	0	527	142	
0	0	0	0	0	529	142	
1	0	0	0	0	528	142	
2	0	0	0	0	524	142	
3	0	0	0	0	520	142	
4	0	0	0	0	514	142	
5	0	0	0	0	510	142	
6	0	0	0	0	506	142	
7	0	0	0	0	503	142	
8	0	0	0	0	503	142	
9	0	0	0	0	504	142	
10	0	0	0	0	507	142	
11	0	0	0	0	508	142	
12	0	0	0	0	510	142	
13	0	0	0	0	512	142	
14	0	0	0	0	513	142	
15	0	0	0	0	514	142	
0	0	0	0	0	514	142	
1	0	0	0	0	513	142	
2	0	0	0	0	510	142	
3	0	0	0	0	507	142	
4	0	0	0	0	505	142	
5	0	0	0	0	503	143	
6	0	0	0	0	501	142	
7	0	0	0	0	501	142	
8	0	0	0	0	502	142	
9	0	0	0	0	504	142	
10	0	0	0	0	505	143	
11	0	0	0	0	508	142	
12	0	0	0	0	512	142	
13	0	0	0	0	515	142	
14	0	0	0	0	517	142	
15	0	0	0	0	520	142	
0	0	0	0	0	520	143	
1	0	0	0	0	518	142	
2	0	0	0	0	515	142	
3	0	0	0	0	512	142	
4	0	0	0	0	507	142	
5	0	0	0	0	504	143	
6	0	0	0	0	503	142	
7	0	0	0	0	502	142	
8	0	0	0	0	504	142	
9	0	0	0	0	508	142	
10	0	0	0	0	512	142	
11	0	0	0	0	518	142	
12	0	0	0	0	523	142	
13	0	0	0	0	527	142	
14	0	0	0	0	528	142	
15	0	0	0	0	530	142	
0	0	0	0	0	531	143	
1	0	0	0	0	531	142	
2	0	0	0	0	531	142	
3	0	0	0	0	531	142	
4	0	0	0	0	529	142	
5	0	0	0	0	528	142	
6	0	0	0	0	527	142	
7	0	0	0	0	528	143	
8	0	0	0	0	529	141	
9	0	0	0	0	531	142	
10	0	0	0	0	535	142	
11	0	0	0	0	539	142	
12	0	0	0	0	546	143	
13	0	0	0	0	553	141	
14	0	0	0	0	559	142	
15	0	0	0	0	564	142	
0	0	0	0	0	571	142	
1	0	0	0	0	575	142	
2	0	0	0	0	575	142	
3	0	0	0	0	576	141	
4	0	0	0	0	575	141	
5	0	0	0	0	572	142	
6	0	0	0	0	567	142	
7	0	0	0	0	562	142	
8	0	0	0	0	558	141	
9	0	0	0	0	554	142	
10	0	0	0	0	550	142	
11	0	0	0	0	548	142	
12	0	0	0	0	545	142	
13	0	0	0	0	543	141	
14	0	0	0	0	540	142	
15	0	0	0	0	537	142	
0	0	0	0	0	535	143	
1	0	0	0	0	534	141	
2	0	0	0	0	533	142	
3	0	0	0	0	529	142	
4	0	0	0	0	522	143	
5	0	0	0	0	515	143	
6	0	0	0	0	506	143	
7	0	0	0	0	498	142	
8	0	0	0	0	493	142	
9	0	0	0	0	488	142	
10	0	0	0	0	486	143	
11	0	0	0	0	485	142	
12	0	0	0	0	487	142	
13	0	0	0	0	487	142	
14	0	0	0	0	488	142	
15	0	0	0	0	491	143	
0	0	0	0	0	492	142	
1	0	0	0	0	491	142	
2	0	0	0	0	489	142	
3	0	0	0	0	485	142	
4	0	0	0	0	480	143	
5	0	0	0	0	475	143	
6	0	0	0	0	471	142	
7	0	0	0	0	468	142	
8	0	0	0	0	466	142	
9	0	0	0	0	466	143	
10	0	0	0	0	468	143	
11	0	0	0	0	471	142	
12	0	0	0	0	476	143	
13	0	0	0	0	481	142	
14	0	0	0	0	487	142	
15	0	0	0	0	494	142	
0	0	0	0	0	500	142	
1	0	0	0	0	507	142	
2	0	0	0	0	512	142	
3	0	0	0	0	515	142	
4	0	0	0	0	517	142	
5	0	0	0	0	517	142	
6	0	0	0	0	516	142	
7	0	0	0	0	515	142	
8	0	0	0	0	513	142	
9	0	0	0	0	512	142	
10	0	0	0	0	512	142	
11	0	0	0	0	513	142	
12	0	0	0	0	515	143	
13	0	0	0	0	518	141	
14	0	0	0	0	522	142	
15	0	0	0	0	526	142	
0	0	0	0	0	527	142	
1	0	0	0	0	529	143	
2	0	0	0	0	531	141	
3	0	0	0	0	532	142	
4	0	0	0	0	532	142	
5	0	0	0	0	531	142	
6	0	0	0	0	530	143	
7	0	0	0	0	527	141	
8	0	0	0	0	524	142	
9	0	0	0	0	521	142	
10	0	0	0	0	519	142	
11	0	0	0	0	515	142	
12	0	0	0	0	515	142	
13	0	0	0	0	515	142	
14	0	0	0	0	515	142	
15	0	0	0	0	516	142	
0	0	0	0	0	518	143	
1	0	0	0	0	520	142	
2	0	0	0	0	521	142	
3	0	0	0	0	523	142	
4	0	0	0	0	523	142	
5	0	0	0	0	520	142	
6	0	0	0	0	519	143	
7	0	0	0	0	515	142	
8	0	0	0	0	511	142	
9	0	0	0	0	507	142	
10	0	0	0	0	504	142	
11	0	0	0	0	504	142	
12	0	0	0	0	502	142	
13	0	0	0	0	503	142	
14	0	0	0	0	504	143	
15	0	0	0	0	504	142	
0	0	0	0	0	506	142	
1	0	0	0	0	507	142	
2	0	0	0	0	507	142	
3	0	0	0	0	508	142	
4	0	0	0	0	511	142	
5	0	0	0	0	511	142	
6	0	0	0	0	510	142	
7	0	0	0	0	508	142	
8	0	0	0	0	504	142	
9	0	0	0	0	501	142	
10	0	0	0	0	499	142	
11	0	0	0	0	495	142	
12	0	0	0	0	493	142	
13	0	0	0	0	491	142	
14	0	0	0	0	491	142	
15	0	0	0	0	492	142	
0	0	0	0	0	494	142	
1	0	0	0	0	497	142	
2	0	0	0	0	501	142	
3	0	0	0	0	504	142	
4	0	0	0	0	506	142	
5	0	0	0	0	507	143	
6	0	0	0	0	506	142	
7	0	0	0	0	505	142	
8	0	0	0	0	502	142	
9	0	0	0	0	498	142	
10	0	0	0	0	495	142	
11	0	0	0	0	492	143	
12	0	0	0	0	491	142	
13	0	0	0	0	489	142	
14	0	0	0	0	490	142	
15	0	0	0	0	492	142	
0	0	0	0	0	494	142	
1	0	0	0	0	497	142	
2	0	0	0	0	500	142	
3	0	0	0	0	502	142	
4	0	0	0	0	505	142	
5	0	0	0	0	507	142	
6	0	0	0	0	507	143	
7	0	0	0	0	505	143	
8	0	0	0	0	504	142	
9	0	0	0	0	503	142	
10	0	0	0	0	501	142	
11	0	0	0	0	499	142	
12	0	0	0	0	496	142	
13	0	0	0	0	496	143	
14	0	0	0	0	497	142	
15	0	0	0	0	497	142	
0	0	0	0	0	497	142	
1	0	0	0	0	499	142	
2	0	0	0	0	499	142	
3	0	0	0	0	502	142	
4	0	0	0	0	505	142	
5	0	0	0	0	508	142	
6	0	0	0	0	509	142	
7	0	0	0	0	510	142	
8	0	0	0	0	510	143	
9	0	0	0	0	509	142	
10	0	0	0	0	506	142	
11	0	0	0	0	502	142	
12	0	0	0	0	500	142	
13	0	0	0	0	497	142	
14	0	0	0	0	495	143	
15	0	0	0	0	494	142	
0	0	0	0	0	493	142	
1	0	0	0	0	495	142	
2	0	0	0	0	497	142	
3	0	0	0	0	500	142	
4	0	0	0	0	503	143	
5	0	0	0	0	504	142	
6	0	0	0	0	506	142	
7	0	0	0	0	507	142	
8	0	0	0	0	507	142	
9	0	0	0	0	506	142	
10	0	0	0	0	504	143	
11	0	0	0	0	501	142	
12	0	0	0	0	497	142	
13	0	0	0	0	495	142	
14	0	0	0	0	494	142	
15	0	0	0	0	493	142	
0	0	0	0	0	492	143	
1	0	0	0	0	493	143	
2	0	0	0	0	494	142	
3	0	0	0	0	495	142	
4	0	0	0	0	497	142	
5	0	0	0	0	500	142	
6	0	0	0	0	502	142	
7	0	0	0	0	503	143	
8	0	0	0	0	504	142	
9	0	0	0	0	504	142	
10	0	0	0	0	502	142	
11	0	0	0	0	498	142	
12	0	0	0	0	495	142	
13	0	0	0	0	493	142	
14	0	0	0	0	488	142	
15	0	0	0	0	486	142	
0	0	0	0	0	482	142	
1	0	0	0	0	481	143	
2	0	0	0	0	483	142	
3	0	0	0	0	486	142	
4	0	0	0	0	488	142	
5	0	0	0	0	491	142	
6	0	0	0	0	496	143	
7	0	0	0	0	501	142	
8	0	0	0	0	507	142	
9	0	0	0	0	511	142	
10	0	0	0	0	513	142	
11	0	0	0	0	515	142	
12	0	0	0	0	515	142	
13	0	0	0	0	511	142	
14	0	0	0	0	508	142	
15	0	0	0	0	505	142	
0	0	0	0	0	503	142	
1	0	0	0	0	502	142	
2	0	0	0	0	500	142	
3	0	0	0	0	499	142	
4	0	0	0	0	499	142	
5	0	0	0	0	500	142	
6	0	0	0	0	503	142	
7	0	0	0	0	507	142	
8	0	0	0	0	512	142	
9	0	0	0	0	515	142	
10	0	0	0	0	517	142	
11	0	0	0	0	518	142	
12	0	0	0	0	515	142	
13	0	0	0	0	513	142	
14	0	0	0	0	509	142	
15	0	0	0	0	506	142	
0	0	0	0	0	504	143	
1	0	0	0	0	503	143	
2	0	0	0	0	502	142	
3	0	0	0	0	503	142	
4	0	0	0	0	504	142	
5	0	0	0	0	506	142	
6	0	0	0	0	509	142	
7	0	0	0	0	511	142	
8	0	0	0	0	512	143	
9	0	0	0	0	513	142	
10	0	0	0	0	515	142	
11	0	0	0	0	518	142	
12	0	0	0	0	519	142	
13	0	0	0	0	517	142	
14	0	0	0	0	515	142	
15	0	0	0	0	512	142	
0	0	0	0	0	508	142	
1	0	0	0	0	505	142	
2	0	0	0	0	503	143	
3	0	0	0	0	501	142	
4	0	0	0	0	503	142	
5	0	0	0	0	504	142	
6	0	0	0	0	507	142	
7	0	0	0	0	511	143	
8	0	0	0	0	513	141	
9	0	0	0	0	516	142	
10	0	0	0	0	519	142	
11	0	0	0	0	521	142	
12	0	0	0	0	519	142	
13	0	0	0	0	516	143	
14	0	0	0	0	513	142	
15	0	0	0	0	510	142	
0	0	0	0	0	509	142	
1	0	0	0	0	506	142	
2	0	0	0	0	504	142	
3	0	0	0	0	505	143	
4	0	0	0	0	505	142	
5	0	0	0	0	506	142	
6	0	0	0	0	505	142	
7	0	0	0	0	505	142	
8	0	0	0	0	504	142	
9	0	0	0	0	504	143	
10	0	0	0	0	506	142	
11	0	0	0	0	508	142	
12	0	0	0	0	510	142	
13	0	0	0	0	510	142	
14	0	0	0	0	509	143	
15	0	0	0	0	508	142	
0	0	0	0	0	506	142	
1	0	0	0	0	504	142	
2	0	0	0	0	503	142	
3	0	0	0	0	502	142	
4	0	0	0	0	500	142	
5	0	0	0	0	500	143	
6	0	0	0	0	501	142	
7	0	0	0	0	502	142	
8	0	0	0	0	503	142	
9	0	0	0	0	506	142	
10	0	0	0	0	510	142	
11	0	0	0	0	512	143	
12	0	0	0	0	513	142	
13	0	0	0	0	514	141	
14	0	0	0	0	513	142	
15	0	0	0	0	511	142	
0	0	0	0	0	508	142	
1	0	0	0	0	507	143	
2	0	0	0	0	504	142	
3	0	0	0	0	502	142	
4	0	0	0	0	500	142	
5	0	0	0	0	500	142	
6	0	0	0	0	502	142	
7	0	0	0	0	505	143	
8	0	0	0	0	508	142	
9	0	0	0	0	511	142	
10	0	0	0	0	512	142	
11	0	0	0	0	512	142	
12	0	0	0	0	512	142	
13	0	0	0	0	511	142	
14	0	0	0	0	511	142	
15	0	0	0	0	510	142	
0	0	0	0	0	508	142	
1	0	0	0	0	506	142	
2	0	0	0	0	504	143	
3	0	0	0	0	500	142	
4	0	0	0	0	499	142	
5	0	0	0	0	498	142	
6	0	0	0	0	497	142	
7	0	0	0	0	496	142	
8	0	0	0	0	497	142	
9	0	0	0	0	499	142	
10	0	0	0	0	502	143	
11	0	0	0	0	505	142	
12	0	0	0	0	509	141	
13	0	0	0	0	511	142	
14	0	0	0	0	511	142	
15	0	0	0	0	508	142	
0	0	0	0	0	502	143	
1	0	0	0	0	496	142	
2	0	0	0	0	491	142	
3	0	0	0	0	488	142	
4	0	0	0	0	488	142	
5	0	0	0	0	489	143	
6	0	0	0	0	489	142	
7	0	0	0	0	488	142	
8	0	0	0	0	489	142	
9	0	0	0	0	490	142	
10	0	0	0	0	492	142	
11	0	0	0	0	494	143	
12	0	0	0	0	494	143	
13	0	0	0	0	496	142	
14	0	0	0	0	498	142	
15	0	0	0	0	498	142	
0	0	0	0	0	497	142	
1	0	0	0	0	494	142	
2	0	0	0	0	489	143	
3	0	0	0	0	486	142	
4	0	0	0	0	482	142	
5	0	0	0	0	481	142	
6	0	0	0	0	481	142	
7	0	0	0	0	483	142	
8	0	0	0	0	486	142	
9	0	0	0	0	488	142	
10	0	0	0	0	492	142	
11	0	0	0	0	495	142	
12	0	0	0	0	497	142	
13	0	0	0	0	499	142	
14	0	0	0	0	499	142	
15	0	0	0	0	498	142	
0	0	0	0	0	499	143	
1	0	0	0	0	499	142	
2	0	0	0	0	499	142	
3	0	0	0	0	498	142	
4	0	0	0	0	498	142	
5	0	0	0	0	499	142	
6	0	0	0	0	499	142	
7	0	0	0	0	500	142	
8	0	0	0	0	503	142	
9	0	0	0	0	507	142	
10	0	0	0	0	509	142	
11	0	0	0	0	511	142	
12	0	0	0	0	514	142	
13	0	0	0	0	514	142	
14	0	0	0	0	515	142	
15	0	0	0	0	515	142	
0	0	0	0	0	514	142	
1	0	0	0	0	511	142	
2	0	0	0	0	507	142	
3	0	0	0	0	503	142	
4	0	0	0	0	499	142	
5	0	0	0	0	497	142	
6	0	0	0	0	495	142	
7	0	0	0	0	492	142	
8	0	0	0	0	492	142	
9	0	0	0	0	494	143	
10	0	0	0	0	496	142	
11	0	0	0	0	498	142	
12	0	0	0	0	500	142	
13	0	0	0	0	503	142	
14	0	0	0	0	506	142	
15	0	0	0	0	510	142	
0	0	0	0	0	513	142	
1	0	0	0	0	512	142	
2	0	0	0	0	510	142	
3	0	0	0	0	508	142	
4	0	0	0	0	505	142	
5	0	0	0	0	503	143	
6	0	0	0	0	499	142	
7	0	0	0	0	496	142	
8	0	0	0	0	493	142	
9	0	0	0	0	492	142	
10	0	0	0	0	492	142	
11	0	0	0	0	494	142	
12	0	0	0	0	496	143	
13	0	0	0	0	499	142	
14	0	0	0	0	502	142	
15	0	0	0	0	506	142	
0	0	0	0	0	509	142	
1	0	0	0	0	510	142	
2	0	0	0	0	510	142	
3	0	0	0	0	508	142	
4	0	0	0	0	506	142	
5	0	0	0	0	504	142	
6	0	0	0	0	502	142	
7	0	0	0	0	500	142	
8	0	0	0	0	499	142	
9	0	0	0	0	498	142	
10	0	0	0	0	498	142	
11	0	0	0	0	499	142	
12	0	0	0	0	501	142	
13	0	0	0	0	504	142	
14	0	0	0	0	507	142	
15	0	0	0	0	508	142	
0	0	0	0	0	510	142	
1	0	0	0	0	511	142	
2	0	0	0	0	510	142	
3	0	0	0	0	508	142	
4	0	0	0	0	507	142	
5	0	0	0	0	504	142	
6	0	0	0	0	502	142	
7	0	0	0	0	500	142	
8	0	0	0	0	498	143	
9	0	0	0	0	494	142	
10	0	0	0	0	493	142	
11	0	0	0	0	492	142	
12	0	0	0	0	493	142	
13	0	0	0	0	494	142	
14	0	0	0	0	495	142	
15	0	0	0	0	499	142	
0	0	0	0	0	501	143	
1	0	0	0	0	503	142	
2	0	0	0	0	505	142	
3	0	0	0	0	504	142	
4	0	0	0	0	503	142	
5	0	0	0	0	501	142	
6	0	0	0	0	498	142	
7	0	0	0	0	496	142	
8	0	0	0	0	496	142	
9	0	0	0	0	496	143	
10	0	0	0	0	494	142	
11	0	0	0	0	493	142	
12	0	0	0	0	491	142	
13	0	0	0	0	490	142	
14	0	0	0	0	490	142	
15	0	0	0	0	492	142	
0	0	0	0	0	494	142	
1	0	0	0	0	496	142	
2	0	0	0	0	497	142	
3	0	0	0	0	497	142	
4	0	0	0	0	496	142	
5	0	0	0	0	496	142	
6	0	0	0	0	494	142	
7	0	0	0	0	493	142	
8	0	0	0	0	493	142	
9	0	0	0	0	491	142	
10	0	0	0	0	491	142	
11	0	0	0	0	490	142	
12	0	0	0	0	489	142	
13	0	0	0	0	488	142	
14	0	0	0	0	488	142	
15	0	0	0	0	490	143	
0	0	0	0	0	491	142	
1	0	0	0	0	492	142	
2	0	0	0	0	494	142	
3	0	0	0	0	495	142	
4	0	0	0	0	495	142	
5	0	0	0	0	495	142	
6	0	0	0	0	494	142	
7	0	0	0	0	492	142	
8	0	0	0	0	490	142	
9	0	0	0	0	491	142	
10	0	0	0	0	492	142	
11	0	0	0	0	493	143	
12	0	0	0	0	494	142	
13	0	0	0	0	495	142	
14	0	0	0	0	496	142	
15	0	0	0	0	499	142	
0	0	0	0	0	501	142	
1	0	0	0	0	504	142	
2	0	0	0	0	506	142	
3	0	0	0	0	507	142	
4	0	0	0	0	504	142	
5	0	0	0	0	501	142	
6	0	0	0	0	499	143	
7	0	0	0	0	497	142	
8	0	0	0	0	494	142	
9	0	0	0	0	492	142	
10	0	0	0	0	491	142	
11	0	0	0	0	491	142	
12	0	0	0	0	491	142	
13	0	0	0	0	493	142	
14	0	0	0	0	495	142	
15	0	0	0	0	496	142	
0	0	0	0	0	497	142	
1	0	0	0	0	499	142	
2	0	0	0	0	504	142	
3	0	0	0	0	510	142	
4	0	0	0	0	515	142	
5	0	0	0	0	517	142	
6	0	0	0	0	515	142	
7	0	0	0	0	512	142	
8	0	0	0	0	507	142	
9	0	0	0	0	503	142	
10	0	0	0	0	499	142	
11	0	0	0	0	495	142	
12	0	0	0	0	493	142	
13	0	0	0	0	491	142	
14	0	0	0	0	489	142	
15	0	0	0	0	490	142	
0	0	0	0	0	491	142	
1	0	0	0	0	493	142	
2	0	0	0	0	494	142	
3	0	0	0	0	497	142	
4	0	0	0	0	500	142	
5	0	0	0	0	502	142	
6	0	0	0	0	501	142	
7	0	0	0	0	499	142	
8	0	0	0	0	496	142	
9	0	0	0	0	493	142	
10	0	0	0	0	489	142	
11	0	0	0	0	486	142	
12	0	0	0	0	483	142	
13	0	0	0	0	481	143	
14	0	0	0	0	481	142	
15	0	0	0	0	482	142	
0	0	0	0	0	483	142	
1	0	0	0	0	487	142	
2	0	0	0	0	490	142	
3	0	0	0	0	494	142	
4	0	0	0	0	497	142	
5	0	0	0	0	500	142	
6	0	0	0	0	502	142	
7	0	0	0	0	502	142	
8	0	0	0	0	501	142	
9	0	0	0	0	499	142	
10	0	0	0	0	496	142	
11	0	0	0	0	495	142	
12	0	0	0	0	492	142	
13	0	0	0	0	491	142	
14	0	0	0	0	490	142	
15	0	0	0	0	490	142	
0	0	0	0	0	491	142	
1	0	0	0	0	493	142	
2	0	0	0	0	496	142	
3	0	0	0	0	499	142	
4	0	0	0	0	502	142	
5	0	0	0	0	505	142	
6	0	0	0	0	508	142	
7	0	0	0	0	508	142	
8	0	0	0	0	509	142	
9	0	0	0	0	507	142	
10	0	0	0	0	503	142	
11	0	0	0	0	499	142	
12	0	0	0	0	496	142	
13	0	0	0	0	492	142	
14	0	0	0	0	490	142	
15	0	0	0	0	490	142	
0	0	0	0	0	491	142	
1	0	0	0	0	492	142	
2	0	0	0	0	494	142	
3	0	0	0	0	497	142	
4	0	0	0	0	501	142	
5	0	0	0	0	504	142	
6	0	0	0	0	507	142	
7	0	0	0	0	507	142	
8	0	0	0	0	506	142	
9	0	0	0	0	505	142	
10	0	0	0	0	504	142	
11	0	0	0	0	500	142	
12	0	0	0	0	498	142	
13	0	0	0	0	496	142	
14	0	0	0	0	494	142	
15	0	0	0	0	493	142	
0	0	0	0	0	492	142	
1	0	0	0	0	493	142	
2	0	0	0	0	494	142	
3	0	0	0	0	496	142	
4	0	0	0	0	499	142	
5	0	0	0	0	503	142	
6	0	0	0	0	507	142	
7	0	0	0	0	509	142	
8	0	0	0	0	510	142	
9	0	0	0	0	509	142	
10	0	0	0	0	509	142	
11	0	0	0	0	508	142	
12	0	0	0	0	506	142	
13	0	0	0	0	503	143	
14	0	0	0	0	499	142	
15	0	0	0	0	496	142	
0	0	0	0	0	495	142	
1	0	0	0	0	494	142	
2	0	0	0	0	495	142	
3	0	0	0	0	495	142	
4	0	0	0	0	497	142	
5	0	0	0	0	500	142	
6	0	0	0	0	504	142	
7	0	0	0	0	507	142	
8	0	0	0	0	509	142	
9	0	0	0	0	510	142	
10	0	0	0	0	510	142	
11	0	0	0	0	509	141	
12	0	0	0	0	508	142	
13	0	0	0	0	506	142	
14	0	0	0	0	504	141	
15	0	0	0	0	503	141	
0	0	0	0	0	503	142	
1	0	0	0	0	504	142	
2	0	0	0	0	505	142	
3	0	0	0	0	506	142	
4	0	0	0	0	508	142	
5	0	0	0	0	512	142	
6	0	0	0	0	514	142	
7	0	0	0	0	517	142	
8	0	0	0	0	519	141	
9	0	0	0	0	519	142	
10	0	0	0	0	520	142	
11	0	0	0	0	519	142	
12	0	0	0	0	517	141	
13	0	0	0	0	515	142	
14	0	0	0	0	511	142	
15	0	0	0	0	508	142	
0	0	0	0	0	507	142	
1	0	0	0	0	505	142	
2	0	0	0	0	505	141	
3	0	0	0	0	506	142	
4	0	0	0	0	508	142	
5	0	0	0	0	510	142	
6	0	0	0	0	512	142	
7	0	0	0	0	515	142	
8	0	0	0	0	517	142	
9	0	0	0	0	519	142	
10	0	0	0	0	518	142	
11	0	0	0	0	516	142	
12	0	0	0	0	514	141	
13	0	0	0	0	512	142	
14	0	0	0	0	511	142	
15	0	0	0	0	511	142	
0	0	0	0	0	511	142	
1	0	0	0	0	511	141	
2	0	0	0	0	512	142	
3	0	0	0	0	512	142	
4	0	0	0	0	513	142	
5	0	0	0	0	515	142	
6	0	0	0	0	519	142	
7	0	0	0	0	522	141	
8	0	0	0	0	525	142	
9	0	0	0	0	527	142	
10	0	0	0	0	528	142	
11	0	0	0	0	529	142	
12	0	0	0	0	528	141	
13	0	0	0	0	526	141	
14	0	0	0	0	524	141	
15	0	0	0	0	521	142	
0	0	0	0	0	520	142	
1	0	0	0	0	517	142	
2	0	0	0	0	515	142	
3	0	0	0	0	515	141	
4	0	0	0	0	516	142	
5	0	0	0	0	518	142	
6	0	0	0	0	520	142	
7	0	0	0	0	524	142	
8	0	0	0	0	527	142	
9	0	0	0	0	530	141	
10	0	0	0	0	532	142	
11	0	0	0	0	534	142	
12	0	0	0	0	535	142	
13	0	0	0	0	536	142	
14	0	0	0	0	536	142	
15	0	0	0	0	534	142	
0	0	0	0	0	529	142	
1	0	0	0	0	522	141	
2	0	0	0	0	516	142	
3	0	0	0	0	510	142	
4	0	0	0	0	507	142	
5	0	0	0	0	505	142	
6	0	0	0	0	505	142	
7	0	0	0	0	507	141	
8	0	0	0	0	508	142	
9	0	0	0	0	510	142	
10	0	0	0	0	512	142	
11	0	0	0	0	516	142	
12	0	0	0	0	519	142	
13	0	0	0	0	521	142	
14	0	0	0	0	525	142	
15	0	0	0	0	527	141	
0	0	0	0	0	526	141	
1	0	0	0	0	524	142	
2	0	0	0	0	521	142	
3	0	0	0	0	523	142	
4	0	0	0	0	526	142	
5	0	0	0	0	530	141	
6	0	0	0	0	533	142	
7	0	0	0	0	536	142	
8	0	0	0	0	536	142	
9	0	0	0	0	536	142	
10	0	0	0	0	537	142	
11	0	0	0	0	539	141	
12	0	0	0	0	539	141	
13	0	0	0	0	537	141	
14	0	0	0	0	535	142	
15	0	0	0	0	530	142	
0	0	0	0	0	523	142	
1	0	0	0	0	514	142	
2	0	0	0	0	508	142	
3	0	0	0	0	503	142	
4	0	0	0	0	503	142	
5	0	0	0	0	501	142	
6	0	0	0	0	502	141	
7	0	0	0	0	506	142	
8	0	0	0	0	512	142	
9	0	0	0	0	522	141	
10	0	0	0	0	533	141	
11	0	0	0	0	541	141	
12	0	0	0	0	545	141	
13	0	0	0	0	543	142	
14	0	0	0	0	539	142	
15	0	0	0	0	535	142	
0	0	0	0	0	531	142	
1	0	0	0	0	528	142	
2	0	0	0	0	524	142	
3	0	0	0	0	521	141	
4	0	0	0	0	520	141	
5	0	0	0	0	519	142	
6	0	0	0	0	520	142	
7	0	0	0	0	520	142	
8	0	0	0	0	520	142	
9	0	0	0	0	521	141	
10	0	0	0	0	521	141	
11	0	0	0	0	524	141	
12	0	0	0	0	524	142	
13	0	0	0	0	525	142	
14	0	0	0	0	526	142	
15	0	0	0	0	526	142	
0	0	0	0	0	524	141	
1	0	0	0	0	522	142	
2	0	0	0	0	519	142	
3	0	0	0	0	516	142	
4	0	0	0	0	513	142	
5	0	0	0	0	512	141	
6	0	0	0	0	512	141	
7	0	0	0	0	514	141	
8	0	0	0	0	516	142	
9	0	0	0	0	518	142	
10	0	0	0	0	521	142	
11	0	0	0	0	524	142	
12	0	0	0	0	525	141	
13	0	0	0	0	526	141	
14	0	0	0	0	526	142	
15	0	0	0	0	527	142	
0	0	0	0	0	526	142	
1	0	0	0	0	525	142	
2	0	0	0	0	523	142	
3	0	0	0	0	519	141	
4	0	0	0	0	515	142	
5	0	0	0	0	512	142	
6	0	0	0	0	510	142	
7	0	0	0	0	508	142	
8	0	0	0	0	507	141	
9	0	0	0	0	508	141	
10	0	0	0	0	510	142	
11	0	0	0	0	512	142	
12	0	0	0	0	515	142	
13	0	0	0	0	519	142	
14	0	0	0	0	522	142	
15	0	0	0	0	524	142	
0	0	0	0	0	526	141	
1	0	0	0	0	526	142	
2	0	0	0	0	524	142	
3	0	0	0	0	523	142	
4	0	0	0	0	520	142	
5	0	0	0	0	517	142	
6	0	0	0	0	514	141	
7	0	0	0	0	513	141	
8	0	0	0	0	512	142	
9	0	0	0	0	511	142	
10	0	0	0	0	513	142	
11	0	0	0	0	515	142	
12	0	0	0	0	517	142	
13	0	0	0	0	520	142	
14	0	0	0	0	523	141	
15	0	0	0	0	525	141	
0	0	0	0	0	526	141	
1	0	0	0	0	524	142	
2	0	0	0	0	523	142	
3	0	0	0	0	521	142	
4	0	0	0	0	519	142	
5	0	0	0	0	517	142	
6	0	0	0	0	514	142	
7	0	0	0	0	513	142	
8	0	0	0	0	512	141	
9	0	0	0	0	513	141	
10	0	0	0	0	514	142	
11	0	0	0	0	516	142	
12	0	0	0	0	519	142	
13	0	0	0	0	522	142	
14	0	0	0	0	525	142	
15	0	0	0	0	526	141	
0	0	0	0	0	529	141	
1	0	0	0	0	530	141	
2	0	0	0	0	530	142	
3	0	0	0	0	529	142	
4	0	0	0	0	529	142	
5	0	0	0	0	528	142	
6	0	0	0	0	527	141	
7	0	0	0	0	524	141	
8	0	0	0	0	523	142	
9	0	0	0	0	521	142	
10	0	0	0	0	521	142	
11	0	0	0	0	522	141	
12	0	0	0	0	526	141	
13	0	0	0	0	530	142	
14	0	0	0	0	534	142	
15	0	0	0	0	538	142	
0	0	0	0	0	542	142	
1	0	0	0	0	545	141	
2	0	0	0	0	546	141	
3	0	0	0	0	545	142	
4	0	0	0	0	543	142	
5	0	0	0	0	540	142	
6	0	0	0	0	537	141	
7	0	0	0	0	535	141	
8	0	0	0	0	534	142	
9	0	0	0	0	531	142	
10	0	0	0	0	530	142	
11	0	0	0	0	529	142	
12	0	0	0	0	530	142	
13	0	0	0	0	532	142	
14	0	0	0	0	533	141	
15	0	0	0	0	536	141	
0	0	0	0	0	540	142	
1	0	0	0	0	542	142	
2	0	0	0	0	542	142	
3	0	0	0	0	540	142	
4	0	0	0	0	538	141	
5	0	0	0	0	534	141	
6	0	0	0	0	529	142	
7	0	0	0	0	524	142	
8	0	0	0	0	519	142	
9	0	0	0	0	517	142	
10	0	0	0	0	515	141	
11	0	0	0	0	514	141	
12	0	0	0	0	515	142	
13	0	0	0	0	516	142	
14	0	0	0	0	518	142	
15	0	0	0	0	518	142	
0	0	0	0	0	519	141	
1	0	0	0	0	521	142	
2	0	0	0	0	523	142	
3	0	0	0	0	523	142	
4	0	0	0	0	523	142	
5	0	0	0	0	522	141	
6	0	0	0	0	519	141	
7	0	0	0	0	517	141	
8	0	0	0	0	515	141	
9	0	0	0	0	513	142	
10	0	0	0	0	512	142	
11	0	0	0	0	513	142	
12	0	0	0	0	514	142	
13	0	0	0	0	515	142	
14	0	0	0	0	517	141	
15	0	0	0	0	520	141	
0	0	0	0	0	524	142	
1	0	0	0	0	526	142	
2	0	0	0	0	527	142	
3	0	0	0	0	528	141	
4	0	0	0	0	528	141	
5	0	0	0	0	526	142	
6	0	0	0	0	524	142	
7	0	0	0	0	521	142	
8	0	0	0	0	517	142	
9	0	0	0	0	514	142	
10	0	0	0	0	512	142	
11	0	0	0	0	511	141	
12	0	0	0	0	511	141	
13	0	0	0	0	511	142	
14	0	0	0	0	512	142	
15	0	0	0	0	515	142	
0	0	0	0	0	516	142	
1	0	0	0	0	519	141	
2	0	0	0	0	521	141	
3	0	0	0	0	521	142	
4	0	0	0	0	523	142	
5	0	0	0	0	522	142	
6	0	0	0	0	520	142	
7	0	0	0	0	518	141	
8	0	0	0	0	516	141	
9	0	0	0	0	514	142	
10	0	0	0	0	511	142	
11	0	0	0	0	509	142	
12	0	0	0	0	508	142	
13	0	0	0	0	508	141	
14	0	0	0	0	508	141	
15	0	0	0	0	508	141	
0	0	0	0	0	511	142	
1	0	0	0	0	514	142	
2	0	0	0	0	517	142	
3	0	0	0	0	521	142	
4	0	0	0	0	524	141	
5	0	0	0	0	525	141	
6	0	0	0	0	524	142	
7	0	0	0	0	524	142	
8	0	0	0	0	522	142	
9	0	0	0	0	520	141	
10	0	0	0	0	519	141	
11	0	0	0	0	517	142	
12	0	0	0	0	516	142	
13	0	0	0	0	517	142	
14	0	0	0	0	516	141	
15	0	0	0	0	516	141	
0	0	0	0	0	516	142	
1	0	0	0	0	518	142	
2	0	0	0	0	521	142	
3	0	0	0	0	524	141	
4	0	0	0	0	527	142	
5	0	0	0	0	528	142	
6	0	0	0	0	529	142	
7	0	0	0	0	529	142	
8	0	0	0	0	529	142	
9	0	0	0	0	528	141	
10	0	0	0	0	528	142	
11	0	0	0	0	527	142	
12	0	0	0	0	525	142	
13	0	0	0	0	524	142	
14	0	0	0	0	523	141	
15	0	0	0	0	522	141	
0	0	0	0	0	522	141	
1	0	0	0	0	524	142	
2	0	0	0	0	527	142	
3	0	0	0	0	530	142	
4	0	0	0	0	532	141	
5	0	0	0	0	534	141	
6	0	0	0	0	535	142	
7	0	0	0	0	536	142	
8	0	0	0	0	536	142	
9	0	0	0	0	533	141	
10	0	0	0	0	528	141	
11	0	0	0	0	526	142	
12	0	0	0	0	524	142	
13	0	0	0	0	521	142	
14	0	0	0	0	518	142	
15	0	0	0	0	516	141	
0	0	0	0	0	514	141	
1	0	0	0	0	516	141	
2	0	0	0	0	519	142	
3	0	0	0	0	519	142	
4	0	0	0	0	521	142	
5	0	0	0	0	524	142	
6	0	0	0	0	525	141	
7	0	0	0	0	524	141	
8	0	0	0	0	524	142	
9	0	0	0	0	522	142	
10	0	0	0	0	519	142	
11	0	0	0	0	518	142	
12	0	0	0	0	515	141	
13	0	0	0	0	513	141	
14	0	0	0	0	511	142	
15	0	0	0	0	508	142	
0	0	0	0	0	507	142	
1	0	0	0	0	507	141	
2	0	0	0	0	508	141	
3	0	0	0	0	511	142	
4	0	0	0	0	514	142	
5	0	0	0	0	517	142	
6	0	0	0	0	520	141	
7	0	0	0	0	522	141	
8	0	0	0	0	522	142	
9	0	0	0	0	521	142	
10	0	0	0	0	520	142	
11	0	0	0	0	519	141	
12	0	0	0	0	516	142	
13	0	0	0	0	515	142	
14	0	0	0	0	513	142	
15	0	0	0	0	511	142	
0	0	0	0	0	511	141	
1	0	0	0	0	511	141	
2	0	0	0	0	513	142	
3	0	0	0	0	517	142	
4	0	0	0	0	519	142	
5	0	0	0	0	523	141	
6	0	0	0	0	526	141	
7	0	0	0	0	528	141	
8	0	0	0	0	529	142	
9	0	0	0	0	529	142	
10	0	0	0	0	528	142	
11	0	0	0	0	527	141	
12	0	0	0	0	524	141	
13	0	0	0	0	521	142	
14	0	0	0	0	520	142	
15	0	0	0	0	519	142	
0	0	0	0	0	518	141	
1	0	0	0	0	517	141	
2	0	0	0	0	518	142	
3	0	0	0	0	518	142	
4	0	0	0	0	519	142	
5	0	0	0	0	520	142	
6	0	0	0	0	523	141	
7	0	0	0	0	526	141	
8	0	0	0	0	527	142	
9	0	0	0	0	527	142	
10	0	0	0	0	525	142	
11	0	0	0	0	524	141	
12	0	0	0	0	521	141	
13	0	0	0	0	520	142	
14	0	0	0	0	519	142	
15	0	0	0	0	519	142	
0	0	0	0	0	521	142	
1	0	0	0	0	524	141	
2	0	0	0	0	528	141	
3	0	0	0	0	532	142	
4	0	0	0	0	536	142	
5	0	0	0	0	539	142	
6	0	0	0	0	540	141	
7	0	0	0	0	540	141	
8	0	0	0	0	539	141	
9	0	0	0	0	537	141	
10	0	0	0	0	536	142	
11	0	0	0	0	533	142	
12	0	0	0	0	531	142	
13	0	0	0	0	529	142	
14	0	0	0	0	526	141	
15	0	0	0	0	524	141	
0	0	0	0	0	524	141	
1	0	0	0	0	524	142	
2	0	0	0	0	527	142	
3	0	0	0	0	532	142	
4	0	0	0	0	540	141	
5	0	0	0	0	553	141	
6	0	0	0	0	567	142	
7	0	0	0	0	578	142	
8	0	0	0	0	583	141	
9	0	0	0	0	583	141	
10	0	0	0	0	576	142	
11	0	0	0	0	570	142	
12	0	0	0	0	566	142	
13	0	0	0	0	562	141	
14	0	0	0	0	558	141	
15	0	0	0	0	553	142	
0	0	0	0	0	551	142	
1	0	0	0	0	548	142	
2	0	0	0	0	545	141	
3	0	0	0	0	542	141	
4	0	0	0	0	541	142	
5	0	0	0	0	542	142	
6	0	0	0	0	542	142	
7	0	0	0	0	540	142	
8	0	0	0	0	537	142	
9	0	0	0	0	535	141	
10	0	0	0	0	536	141	
11	0	0	0	0	539	142	
12	0	0	0	0	540	142	
13	0	0	0	0	538	142	
14	0	0	0	0	535	141	
15	0	0	0	0	528	141	
0	0	0	0	0	519	142	
1	0	0	0	0	508	142	
2	0	0	0	0	496	142	
3	0	0	0	0	486	141	
4	0	0	0	0	481	142	
5	0	0	0	0	479	142	
6	0	0	0	0	478	142	
7	0	0	0	0	478	142	
8	0	0	0	0	477	141	
9	0	0	0	0	476	142	
10	0	0	0	0	473	142	
11	0	0	0	0	470	142	
12	0	0	0	0	467	141	
13	0	0	0	0	465	142	
14	0	0	0	0	463	142	
15	0	0	0	0	460	142	
0	0	0	0	0	460	142	
1	0	0	0	0	462	141	
2	0	0	0	0	464	142	
3	0	0	0	0	467	142	
4	0	0	0	0	472	142	
5	0	0	0	0	476	142	
6	0	0	0	0	481	141	
7	0	0	0	0	486	142	
8	0	0	0	0	491	142	
9	0	0	0	0	496	142	
10	0	0	0	0	503	142	
11	0	0	0	0	509	141	
12	0	0	0	0	513	141	
13	0	0	0	0	514	141	
14	0	0	0	0	515	142	
15	0	0	0	0	515	142	
0	0	0	0	0	515	141	
1	0	0	0	0	514	141	
2	0	0	0	0	514	142	
3	0	0	0	0	515	142	
4	0	0	0	0	515	142	
5	0	0	0	0	517	142	
6	0	0	0	0	520	141	
7	0	0	0	0	523	141	
8	0	0	0	0	527	142	
9	0	0	0	0	531	142	
10	0	0	0	0	535	142	
11	0	0	0	0	536	142	
12	0	0	0	0	537	141	
13	0	0	0	0	537	141	
14	0	0	0	0	535	142	
15	0	0	0	0	533	142	
0	0	0	0	0	529	142	
1	0	0	0	0	526	142	
2	0	0	0	0	525	142	
3	0	0	0	0	524	141	
4	0	0	0	0	521	141	
5	0	0	0	0	520	142	
6	0	0	0	0	520	142	
7	0	0	0	0	521	142	
8	0	0	0	0	523	142	
9	0	0	0	0	527	141	
10	0	0	0	0	529	141	
11	0	0	0	0	531	142	
12	0	0	0	0	534	142	
13	0	0	0	0	536	141	
14	0	0	0	0	536	141	
15	0	0	0	0	536	141	
0	0	0	0	0	534	142	
1	0	0	0	0	530	142	
2	0	0	0	0	527	142	
3	0	0	0	0	524	142	
4	0	0	0	0	521	141	
5	0	0	0	0	518	141	
6	0	0	0	0	517	141	
7	0	0	0	0	519	142	
8	0	0	0	0	521	142	
9	0	0	0	0	524	142	
10	0	0	0	0	527	142	
11	0	0	0	0	529	141	
12	0	0	0	0	531	141	
13	0	0	0	0	531	141	
14	0	0	0	0	532	142	
15	0	0	0	0	532	142	
0	0	0	0	0	531	142	
1	0	0	0	0	528	142	
2	0	0	0	0	526	142	
3	0	0	0	0	523	141	
4	0	0	0	0	521	141	
5	0	0	0	0	519	141	
6	0	0	0	0	518	141	
7	0	0	0	0	519	142	
8	0	0	0	0	520	142	
9	0	0	0	0	521	142	
10	0	0	0	0	524	142	
11	0	0	0	0	527	142	
12	0	0	0	0	528	142	
13	0	0	0	0	531	141	
14	0	0	0	0	532	141	
15	0	0	0	0	532	142	
0	0	0	0	0	531	142	
1	0	0	0	0	531	141	
2	0	0	0	0	529	141	
3	0	0	0	0	526	142	
4	0	0	0	0	522	142	
5	0	0	0	0	517	142	
6	0	0	0	0	515	141	
7	0	0	0	0	515	141	
8	0	0	0	0	514	142	
9	0	0	0	0	516	142	
10	0	0	0	0	519	142	
11	0	0	0	0	523	142	
12	0	0	0	0	527	141	
13	0	0	0	0	530	141	
14	0	0	0	0	534	142	
15	0	0	0	0	536	142	
0	0	0	0	0	537	141	
1	0	0	0	0	536	141	
2	0	0	0	0	534	142	
3	0	0	0	0	530	142	
4	0	0	0	0	527	142	
5	0	0	0	0	526	142	
6	0	0	0	0	524	141	
7	0	0	0	0	522	141	
8	0	0	0	0	520	142	
9	0	0	0	0	520	142	
10	0	0	0	0	523	141	
11	0	0	0	0	526	141	
12	0	0	0	0	528	142	
13	0	0	0	0	532	142	
14	0	0	0	0	535	142	
15	0	0	0	0	536	141	
0	0	0	0	0	538	141	
1	0	0	0	0	538	142	
2	0	0	0	0	536	142	
3	0	0	0	0	534	142	
4	0	0	0	0	530	141	
5	0	0	0	0	528	141	
6	0	0	0	0	525	142	
7	0	0	0	0	523	142	
8	0	0	0	0	521	142	
9	0	0	0	0	519	142	
10	0	0	0	0	520	141	
11	0	0	0	0	521	141	
12	0	0	0	0	524	142	
13	0	0	0	0	526	142	
14	0	0	0	0	529	142	
15	0	0	0	0	529	141	
0	0	0	0	0	531	141	
1	0	0	0	0	531	142	
2	0	0	0	0	529	142	
3	0	0	0	0	528	142	
4	0	0	0	0	527	141	
5	0	0	0	0	523	141	
6	0	0	0	0	519	142	
7	0	0	0	0	517	142	
8	0	0	0	0	515	142	
9	0	0	0	0	514	141	
10	0	0	0	0	513	141	
11	0	0	0	0	514	142	
12	0	0	0	0	516	142	
13	0	0	0	0	519	142	
14	0	0	0	0	519	142	
15	0	0	0	0	522	142	
0	0	0	0	0	525	141	
1	0	0	0	0	527	141	
2	0	0	0	0	528	141	
3	0	0	0	0	527	142	
4	0	0	0	0	524	142	
5	0	0	0	0	522	142	
6	0	0	0	0	520	141	
7	0	0	0	0	518	141	
8	0	0	0	0	517	142	
9	0	0	0	0	515	142	
10	0	0	0	0	515	142	
11	0	0	0	0	514	142	
12	0	0	0	0	514	141	
13	0	0	0	0	516	141	
14	0	0	0	0	518	142	
15	0	0	0	0	521	142	
0	0	0	0	0	524	142	
1	0	0	0	0	525	141	
2	0	0	0	0	524	141	
3	0	0	0	0	523	142	
4	0	0	0	0	521	142	
5	0	0	0	0	519	142	
6	0	0	0	0	516	142	
7	0	0	0	0	514	142	
8	0	0	0	0	513	141	
9	0	0	0	0	513	141	
10	0	0	0	0	511	142	
11	0	0	0	0	511	142	
12	0	0	0	0	511	142	
13	0	0	0	0	512	141	
14	0	0	0	0	514	141	
15	0	0	0	0	517	142	
0	0	0	0	0	518	142	
1	0	0	0	0	518	141	
2	0	0	0	0	520	141	
3	0	0	0	0	521	142	
4	0	0	0	0	521	142	
5	0	0	0	0	522	142	
6	0	0	0	0	520	142	
7	0	0	0	0	519	141	
8	0	0	0	0	516	141	
9	0	0	0	0	515	141	
10	0	0	0	0	515	142	
11	0	0	0	0	515	142	
12	0	0	0	0	515	142	
13	0	0	0	0	515	141	
14	0	0	0	0	518	141	
15	0	0	0	0	522	142	
0	0	0	0	0	525	142	
1	0	0	0	0	527	142	
2	0	0	0	0	529	141	
3	0	0	0	0	529	141	
4	0	0	0	0	528	141	
5	0	0	0	0	526	142	
6	0	0	0	0	522	142	
7	0	0	0	0	518	142	
8	0	0	0	0	515	141	
9	0	0	0	0	511	141	
10	0	0	0	0	509	141	
11	0	0	0	0	507	142	
12	0	0	0	0	507	142	
13	0	0	0	0	507	141	
14	0	0	0	0	509	141	
15	0	0	0	0	512	141	
0	0	0	0	0	513	142	
1	0	0	0	0	515	142	
2	0	0	0	0	515	142	
3	0	0	0	0	516	141	
4	0	0	0	0	517	141	
5	0	0	0	0	517	142	
6	0	0	0	0	517	142	
7	0	0	0	0	513	142	
8	0	0	0	0	511	141	
9	0	0	0	0	507	141	
10	0	0	0	0	504	142	
11	0	0	0	0	500	142	
12	0	0	0	0	497	142	
13	0	0	0	0	497	141	
14	0	0	0	0	498	141	
15	0	0	0	0	499	141	
0	0	0	0	0	501	142	
1	0	0	0	0	502	142	
2	0	0	0	0	504	142	
3	0	0	0	0	507	141	
4	0	0	0	0	508	141	
5	0	0	0	0	508	142	
6	0	0	0	0	508	142	
7	0	0	0	0	506	142	
8	0	0	0	0	504	142	
9	0	0	0	0	501	141	
10	0	0	0	0	499	141	
11	0	0	0	0	497	142	
12	0	0	0	0	495	142	
13	0	0	0	0	495	142	
14	0	0	0	0	496	142	
15	0	0	0	0	497	141	
0	0	0	0	0	500	141	
1	0	0	0	0	502	142	
2	0	0	0	0	504	142	
3	0	0	0	0	506	142	
4	0	0	0	0	508	142	
5	0	0	0	0	508	141	
6	0	0	0	0	507	141	
7	0	0	0	0	505	142	
8	0	0	0	0	502	142	
9	0	0	0	0	499	142	
10	0	0	0	0	496	142	
11	0	0	0	0	495	141	
12	0	0	0	0	495	141	
13	0	0	0	0	494	142	
14	0	0	0	0	495	142	
15	0	0	0	0	496	142	
0	0	0	0	0	497	141	
1	0	0	0	0	500	141	
2	0	0	0	0	502	142	
3	0	0	0	0	505	142	
4	0	0	0	0	508	142	
5	0	0	0	0	510	141	
6	0	0	0	0	509	141	
7	0	0	0	0	507	142	
8	0	0	0	0	504	142	
9	0	0	0	0	502	142	
10	0	0	0	0	498	141	
11	0	0	0	0	495	141	
12	0	0	0	0	492	142	
13	0	0	0	0	489	142	
14	0	0	0	0	487	141	
15	0	0	0	0	487	141	
0	0	0	0	0	487	142	
1	0	0	0	0	489	142	
2	0	0	0	0	491	142	
3	0	0	0	0	494	142	
4	0	0	0	0	498	141	
5	0	0	0	0	499	142	
6	0	0	0	0	499	142	
7	0	0	0	0	499	142	
8	0	0	0	0	498	142	
9	0	0	0	0	496	141	
10	0	0	0	0	494	141	
11	0	0	0	0	492	142	
12	0	0	0	0	491	142	
13	0	0	0	0	489	141	
14	0	0	0	0	487	141	
15	0	0	0	0	486	142	
0	0	0	0	0	487	142	
1	0	0	0	0	489	142	
2	0	0	0	0	492	142	
3	0	0	0	0	495	141	
4	0	0	0	0	500	141	
5	0	0	0	0	504	141	
6	0	0	0	0	506	142	
7	0	0	0	0	508	142	
8	0	0	0	0	508	142	
9	0	0	0	0	508	141	
10	0	0	0	0	506	141	
11	0	0	0	0	503	142	
12	0	0	0	0	497	142	
13	0	0	0	0	494	142	
14	0	0	0	0	491	141	
15	0	0	0	0	489	141	
0	0	0	0	0	491	141	
1	0	0	0	0	494	142	
2	0	0	0	0	498	142	
3	0	0	0	0	502	142	
4	0	0	0	0	505	141	
5	0	0	0	0	509	141	
6	0	0	0	0	511	141	
7	0	0	0	0	512	142	
8	0	0	0	0	510	142	
9	0	0	0	0	509	142	
10	0	0	0	0	507	141	
11	0	0	0	0	504	141	
12	0	0	0	0	501	141	
13	0	0	0	0	498	142	
14	0	0	0	0	496	142	
15	0	0	0	0	493	142	
0	0	0	0	0	492	142	
1	0	0	0	0	492	141	
2	0	0	0	0	492	141	
3	0	0	0	0	493	142	
4	0	0	0	0	495	142	
5	0	0	0	0	498	142	
6	0	0	0	0	500	141	
7	0	0	0	0	502	141	
8	0	0	0	0	502	142	
9	0	0	0	0	502	142	
10	0	0	0	0	501	142	
11	0	0	0	0	499	141	
12	0	0	0	0	498	141	
13	0	0	0	0	495	141	
14	0	0	0	0	493	142	
15	0	0	0	0	490	142	
0	0	0	0	0	489	141	
1	0	0	0	0	489	141	
2	0	0	0	0	490	141	
3	0	0	0	0	492	142	
4	0	0	0	0	494	142	
5	0	0	0	0	496	142	
6	0	0	0	0	499	141	
7	0	0	0	0	501	141	
8	0	0	0	0	503	142	
9	0	0	0	0	504	142	
10	0	0	0	0	504	142	
11	0	0	0	0	502	142	
12	0	0	0	0	499	141	
13	0	0	0	0	496	141	
14	0	0	0	0	494	142	
15	0	0	0	0	492	142	
0	0	0	0	0	489	142	
1	0	0	0	0	488	141	
2	0	0	0	0	488	141	
3	0	0	0	0	489	141	
4	0	0	0	0	491	142	
5	0	0	0	0	495	142	
6	0	0	0	0	498	142	
7	0	0	0	0	502	142	
8	0	0	0	0	504	142	
9	0	0	0	0	505	141	
10	0	0	0	0	504	141	
11	0	0	0	0	504	142	
12	0	0	0	0	502	142	
13	0	0	0	0	499	142	
14	0	0	0	0	495	141	
15	0	0	0	0	493	141	
0	0	0	0	0	492	142	
1	0	0	0	0	491	142	
2	0	0	0	0	490	142	
3	0	0	0	0	490	142	
4	0	0	0	0	491	142	
5	0	0	0	0	493	141	
6	0	0	0	0	496	141	
7	0	0	0	0	498	141	
8	0	0	0	0	502	142	
9	0	0	0	0	503	142	
10	0	0	0	0	505	142	
11	0	0	0	0	506	142	
12	0	0	0	0	505	141	
13	0	0	0	0	503	141	
14	0	0	0	0	500	142	
15	0	0	0	0	497	142	
0	0	0	0	0	495	142	
1	0	0	0	0	492	141	
2	0	0	0	0	490	141	
3	0	0	0	0	489	142	
4	0	0	0	0	488	142	
5	0	0	0	0	490	142	
6	0	0	0	0	494	142	
7	0	0	0	0	497	141	
8	0	0	0	0	500	141	
9	0	0	0	0	502	141	
10	0	0	0	0	504	142	
11	0	0	0	0	505	142	
12	0	0	0	0	505	142	
13	0	0	0	0	505	141	
14	0	0	0	0	505	141	
15	0	0	0	0	503	142	
0	0	0	0	0	500	142	
1	0	0	0	0	498	142	
2	0	0	0	0	497	142	
3	0	0	0	0	496	141	
4	0	0	0	0	495	141	
5	0	0	0	0	496	142	
6	0	0	0	0	499	142	
7	0	0	0	0	502	141	
8	0	0	0	0	505	141	
9	0	0	0	0	508	142	
10	0	0	0	0	511	142	
11	0	0	0	0	513	142	
12	0	0	0	0	513	141	
13	0	0	0	0	512	141	
14	0	0	0	0	510	142	
15	0	0	0	0	505	142	
0	0	0	0	0	502	142	
1	0	0	0	0	499	142	
2	0	0	0	0	496	141	
3	0	0	0	0	495	141	
4	0	0	0	0	493	142	
5	0	0	0	0	494	142	
6	0	0	0	0	496	142	
7	0	0	0	0	499	141	
8	0	0	0	0	502	141	
9	0	0	0	0	503	142	
10	0	0	0	0	505	142	
11	0	0	0	0	506	142	
12	0	0	0	0	507	141	
13	0	0	0	0	507	141	
14	0	0	0	0	506	142	
15	0	0	0	0	507	142	
0	0	0	0	0	505	142	
1	0	0	0	0	505	141	
2	0	0	0	0	504	141	
3	0	0	0	0	502	141	
4	0	0	0	0	499	142	
5	0	0	0	0	499	142	
6	0	0	0	0	500	141	
7	0	0	0	0	500	141	
8	0	0	0	0	500	142	
9	0	0	0	0	500	142	
10	0	0	0	0	501	142	
11	0	0	0	0	502	141	
12	0	0	0	0	504	141	
13	0	0	0	0	504	142	
14	0	0	0	0	503	142	
15	0	0	0	0	501	141	
0	0	0	0	0	499	141	
1	0	0	0	0	497	142	
2	0	0	0	0	493	142	
3	0	0	0	0	490	141	
4	0	0	0	0	489	141	
5	0	0	0	0	488	142	
6	0	0	0	0	490	142	
7	0	0	0	0	492	142	
8	0	0	0	0	495	141	
9	0	0	0	0	498	141	
10	0	0	0	0	501	142	
11	0	0	0	0	504	142	
12	0	0	0	0	507	142	
13	0	0	0	0	510	142	
14	0	0	0	0	510	141	
15	0	0	0	0	511	141	
0	0	0	0	0	511	141	
1	0	0	0	0	510	142	
2	0	0	0	0	506	142	
3	0	0	0	0	503	142	
4	0	0	0	0	498	141	
5	0	0	0	0	496	141	
6	0	0	0	0	492	141	
7	0	0	0	0	492	142	
8	0	0	0	0	494	142	
9	0	0	0	0	496	142	
10	0	0	0	0	501	141	
11	0	0	0	0	504	141	
12	0	0	0	0	509	142	
13	0	0	0	0	513	142	
14	0	0	0	0	515	142	
15	0	0	0	0	514	141	
0	0	0	0	0	513	141	
1	0	0	0	0	510	142	
2	0	0	0	0	507	142	
3	0	0	0	0	502	141	
4	0	0	0	0	499	141	
5	0	0	0	0	496	142	
6	0	0	0	0	494	142	
7	0	0	0	0	493	142	
8	0	0	0	0	492	141	
9	0	0	0	0	495	141	
10	0	0	0	0	499	142	
11	0	0	0	0	503	142	
12	0	0	0	0	507	141	
13	0	0	0	0	510	141	
14	0	0	0	0	513	142	
15	0	0	0	0	517	142	
0	0	0	0	0	520	142	
1	0	0	0	0	522	142	
2	0	0	0	0	523	141	
3	0	0	0	0	520	141	
4	0	0	0	0	516	142	
5	0	0	0	0	512	142	
6	0	0	0	0	507	141	
7	0	0	0	0	503	141	
8	0	0	0	0	502	141	
9	0	0	0	0	500	142	
10	0	0	0	0	500	142	
11	0	0	0	0	503	142	
12	0	0	0	0	505	141	
13	0	0	0	0	509	141	
14	0	0	0	0	511	142	
15	0	0	0	0	514	142	
0	0	0	0	0	516	142	
1	0	0	0	0	516	141	
2	0	0	0	0	515	141	
3	0	0	0	0	512	142	
4	0	0	0	0	509	142	
5	0	0	0	0	507	141	
6	0	0	0	0	504	141	
7	0	0	0	0	502	142	
8	0	0	0	0	501	142	
9	0	0	0	0	500	142	
10	0	0	0	0	500	141	
11	0	0	0	0	499	141	
12	0	0	0	0	501	141	
13	0	0	0	0	504	142	
14	0	0	0	0	506	142	
15	0	0	0	0	508	141	
0	0	0	0	0	509	141	
1	0	0	0	0	509	142	
2	0	0	0	0	509	142	
3	0	0	0	0	508	141	
4	0	0	0	0	505	141	
5	0	0	0	0	501	141	
6	0	0	0	0	497	142	
7	0	0	0	0	494	142	
8	0	0	0	0	493	141	
9	0	0	0	0	493	141	
10	0	0	0	0	492	142	
11	0	0	0	0	493	142	
12	0	0	0	0	494	142	
13	0	0	0	0	497	141	
14	0	0	0	0	500	141	
15	0	0	0	0	503	142	
0	0	0	0	0	506	142	
1	0	0	0	0	508	141	
2	0	0	0	0	508	141	
3	0	0	0	0	506	142	
4	0	0	0	0	503	142	
5	0	0	0	0	497	142	
6	0	0	0	0	494	141	
7	0	0	0	0	494	141	
8	0	0	0	0	494	142	
9	0	0	0	0	493	142	
10	0	0	0	0	495	142	
11	0	0	0	0	497	142	
12	0	0	0	0	502	141	
13	0	0	0	0	505	141	
14	0	0	0	0	505	142	
15	0	0	0	0	506	142	
0	0	0	0	0	508	142	
1	0	0	0	0	509	141	
2	0	0	0	0	509	141	
3	0	0	0	0	509	142	
4	0	0	0	0	508	142	
5	0	0	0	0	507	142	
6	0	0	0	0	504	141	
7	0	0	0	0	501	141	
8	0	0	0	0	497	141	
9	0	0	0	0	496	142	
10	0	0	0	0	494	142	
11	0	0	0	0	495	142	
12	0	0	0	0	498	142	
13	0	0	0	0	500	141	
14	0	0	0	0	504	141	
15	0	0	0	0	510	142	
0	0	0	0	0	513	142	
1	0	0	0	0	516	142	
2	0	0	0	0	519	141	
3	0	0	0	0	520	141	
4	0	0	0	0	519	142	
5	0	0	0	0	517	142	
6	0	0	0	0	515	141	
7	0	0	0	0	512	141	
8	0	0	0	0	508	142	
9	0	0	0	0	504	142	
10	0	0	0	0	499	142	
11	0	0	0	0	498	141	
12	0	0	0	0	500	141	
13	0	0	0	0	502	142	
14	0	0	0	0	503	142	
15	0	0	0	0	505	142	
0	0	0	0	0	507	141	
1	0	0	0	0	509	141	
2	0	0	0	0	511	142	
3	0	0	0	0	512	142	
4	0	0	0	0	513	142	
5	0	0	0	0	513	141	
6	0	0	0	0	511	141	
7	0	0	0	0	511	142	
8	0	0	0	0	510	142	
9	0	0	0	0	508	142	
10	0	0	0	0	507	141	
11	0	0	0	0	505	141	
12	0	0	0	0	505	142	
13	0	0	0	0	507	142	
14	0	0	0	0	508	141	
15	0	0	0	0	510	141	
0	0	0	0	0	511	142	
1	0	0	0	0	512	142	
2	0	0	0	0	512	141	
3	0	0	0	0	512	141	
4	0	0	0	0	513	141	
5	0	0	0	0	514	142	
6	0	0	0	0	513	142	
7	0	0	0	0	513	142	
8	0	0	0	0	510	141	
9	0	0	0	0	508	141	
10	0	0	0	0	506	142	
11	0	0	0	0	505	142	
12	0	0	0	0	504	141	
13	0	0	0	0	504	141	
14	0	0	0	0	504	142	
15	0	0	0	0	507	142	
0	0	0	0	0	511	142	
1	0	0	0	0	517	142	
2	0	0	0	0	520	142	
3	0	0	0	0	523	141	
4	0	0	0	0	525	141	
5	0	0	0	0	526	141	
6	0	0	0	0	524	142	
7	0	0	0	0	522	142	
8	0	0	0	0	519	141	
9	0	0	0	0	516	141	
10	0	0	0	0	513	142	
11	0	0	0	0	511	142	
12	0	0	0	0	511	142	
13	0	0	0	0	510	141	
14	0	0	0	0	512	141	
15	0	0	0	0	514	142	
0	0	0	0	0	517	142	
1	0	0	0	0	521	142	
2	0	0	0	0	524	141	
3	0	0	0	0	526	141	
4	0	0	0	0	529	142	
5	0	0	0	0	529	142	
6	0	0	0	0	530	142	
7	0	0	0	0	529	141	
8	0	0	0	0	529	141	
9	0	0	0	0	526	142	
10	0	0	0	0	522	142	
11	0	0	0	0	519	142	
12	0	0	0	0	517	141	
13	0	0	0	0	516	141	
14	0	0	0	0	518	142	
15	0	0	0	0	519	142	
0	0	0	0	0	520	142	
1	0	0	0	0	521	141	
2	0	0	0	0	523	141	
3	0	0	0	0	525	141	
4	0	0	0	0	526	142	
5	0	0	0	0	527	142	
6	0	0	0	0	528	141	
7	0	0	0	0	527	141	
8	0	0	0	0	525	142	
9	0	0	0	0	521	142	
10	0	0	0	0	518	142	
11	0	0	0	0	515	141	
12	0	0	0	0	513	141	
13	0	0	0	0	512	141	
14	0	0	0	0	511	141	
15	0	0	0	0	512	142	
0	0	0	0	0	513	142	
1	0	0	0	0	516	141	
2	0	0	0	0	519	141	
3	0	0	0	0	522	142	
4	0	0	0	0	524	142	
5	0	0	0	0	526	142	
6	0	0	0	0	527	141	
7	0	0	0	0	528	141	
8	0	0	0	0	527	142	
9	0	0	0	0	526	142	
10	0	0	0	0	525	141	
11	0	0	0	0	522	141	
12	0	0	0	0	519	141	
13	0	0	0	0	516	142	
14	0	0	0	0	515	142	
15	0	0	0	0	514	142	
0	0	0	0	0	514	141	
1	0	0	0	0	515	141	
2	0	0	0	0	516	141	
3	0	0	0	0	518	142	
4	0	0	0	0	520	142	
5	0	0	0	0	523	142	
6	0	0	0	0	526	142	
7	0	0	0	0	527	141	
8	0	0	0	0	527	141	
9	0	0	0	0	525	142	
10	0	0	0	0	522	142	
11	0	0	0	0	519	142	
12	0	0	0	0	515	141	
13	0	0	0	0	512	141	
14	0	0	0	0	510	142	
15	0	0	0	0	508	142	
0	0	0	0	0	507	142	
1	0	0	0	0	506	142	
2	0	0	0	0	505	142	
3	0	0	0	0	507	141	
4	0	0	0	0	509	141	
5	0	0	0	0	511	142	
6	0	0	0	0	512	142	
7	0	0	0	0	514	142	
8	0	0	0	0	514	141	
9	0	0	0	0	512	141	
10	0	0	0	0	512	142	
11	0	0	0	0	510	142	
12	0	0	0	0	508	142	
13	0	0	0	0	505	141	
14	0	0	0	0	504	141	
15	0	0	0	0	502	142	
0	0	0	0	0	501	142	
1	0	0	0	0	500	142	
2	0	0	0	0	500	142	
3	0	0	0	0	501	142	
4	0	0	0	0	503	141	
5	0	0	0	0	506	141	
6	0	0	0	0	508	141	
7	0	0	0	0	511	142	
8	0	0	0	0	512	142	
9	0	0	0	0	511	142	
10	0	0	0	0	510	141	
11	0	0	0	0	507	141	
12	0	0	0	0	504	142	
13	0	0	0	0	501	142	
14	0	0	0	0	498	142	
15	0	0	0	0	496	141	
0	0	0	0	0	494	141	
1	0	0	0	0	493	142	
2	0	0	0	0	493	142	
3	0	0	0	0	495	142	
4	0	0	0	0	497	141	
5	0	0	0	0	500	141	
6	0	0	0	0	502	141	
7	0	0	0	0	504	141	
8	0	0	0	0	505	142	
9	0	0	0	0	505	142	
10	0	0	0	0	505	141	
11	0	0	0	0	504	141	
12	0	0	0	0	504	141	
13	0	0	0	0	504	141	
14	0	0	0	0	502	142	
15	0	0	0	0	500	142	
0	0	0	0	0	498	142	
1	0	0	0	0	497	141	
2	0	0	0	0	497	141	
3	0	0	0	0	498	142	
4	0	0	0	0	499	142	
5	0	0	0	0	502	142	
6	0	0	0	0	505	142	
7	0	0	0	0	508	141	
8	0	0	0	0	509	141	
9	0	0	0	0	511	141	
10	0	0	0	0	511	141	
11	0	0	0	0	511	142	
12	0	0	0	0	510	142	
13	0	0	0	0	508	142	
14	0	0	0	0	505	141	
15	0	0	0	0	503	141	
0	0	0	0	0	501	141	
1	0	0	0	0	499	142	
2	0	0	0	0	498	142	
3	0	0	0	0	497	141	
4	0	0	0	0	499	141	
5	0	0	0	0	501	141	
6	0	0	0	0	503	142	
7	0	0	0	0	505	142	
8	0	0	0	0	508	142	
9	0	0	0	0	511	141	
10	0	0	0	0	513	141	
11	0	0	0	0	514	142	
12	0	0	0	0	513	142	
13	0	0	0	0	512	142	
14	0	0	0	0	511	141	
15	0	0	0	0	509	141	
0	0	0	0	0	508	141	
1	0	0	0	0	507	142	
2	0	0	0	0	506	142	
3	0	0	0	0	506	142	
4	0	0	0	0	508	141	
5	0	0	0	0	511	141	
6	0	0	0	0	513	141	
7	0	0	0	0	518	142	
8	0	0	0	0	521	142	
9	0	0	0	0	523	142	
10	0	0	0	0	526	141	
11	0	0	0	0	527	141	
12	0	0	0	0	528	142	
13	0	0	0	0	527	142	
14	0	0	0	0	524	142	
15	0	0	0	0	522	141	
0	0	0	0	0	520	141	
1	0	0	0	0	519	142	
2	0	0	0	0	517	142	
3	0	0	0	0	517	142	
4	0	0	0	0	517	141	
5	0	0	0	0	517	141	
6	0	0	0	0	518	142	
7	0	0	0	0	520	142	
8	0	0	0	0	522	142	
9	0	0	0	0	525	141	
10	0	0	0	0	527	141	
11	0	0	0	0	529	142	
12	0	0	0	0	530	142	
13	0	0	0	0	531	142	
14	0	0	0	0	531	141	
15	0	0	0	0	531	141	
0	0	0	0	0	528	142	
1	0	0	0	0	525	142	
2	0	0	0	0	522	141	
3	0	0	0	0	519	141	
4	0	0	0	0	519	142	
5	0	0	0	0	519	142	
6	0	0	0	0	519	142	
7	0	0	0	0	520	141	
8	0	0	0	0	523	141	
9	0	0	0	0	525	141	
10	0	0	0	0	528	142	
11	0	0	0	0	530	142	
12	0	0	0	0	530	142	
13	0	0	0	0	530	141	
14	0	0	0	0	527	141	
15	0	0	0	0	525	142	
0	0	0	0	0	520	142	
1	0	0	0	0	516	142	
2	0	0	0	0	512	142	
3	0	0	0	0	510	141	
4	0	0	0	0	507	141	
5	0	0	0	0	506	141	
6	0	0	0	0	508	142	
7	0	0	0	0	508	142	
8	0	0	0	0	510	142	
9	0	0	0	0	512	142	
10	0	0	0	0	514	141	
11	0	0	0	0	515	141	
12	0	0	0	0	517	142	
13	0	0	0	0	518	142	
14	0	0	0	0	517	142	
15	0	0	0	0	515	142	
0	0	0	0	0	513	141	
1	0	0	0	0	510	141	
2	0	0	0	0	507	142	
3	0	0	0	0	504	142	
4	0	0	0	0	503	142	
5	0	0	0	0	502	141	
6	0	0	0	0	503	141	
7	0	0	0	0	504	141	
8	0	0	0	0	507	142	
9	0	0	0	0	509	142	
10	0	0	0	0	511	142	
11	0	0	0	0	515	141	
12	0	0	0	0	516	141	
13	0	0	0	0	519	141	
14	0	0	0	0	519	142	
15	0	0	0	0	519	142	
0	0	0	0	0	518	142	
1	0	0	0	0	516	141	
2	0	0	0	0	513	141	
3	0	0	0	0	510	142	
4	0	0	0	0	508	142	
5	0	0	0	0	506	142	
6	0	0	0	0	505	141	
7	0	0	0	0	505	141	
8	0	0	0	0	506	141	
9	0	0	0	0	508	142	
10	0	0	0	0	512	142	
11	0	0	0	0	514	141	
12	0	0	0	0	516	141	
13	0	0	0	0	519	142	
14	0	0	0	0	519	142	
15	0	0	0	0	519	142	
0	0	0	0	0	518	141	
1	0	0	0	0	516	141	
2	0	0	0	0	514	142	
3	0	0	0	0	511	142	
4	0	0	0	0	508	142	
5	0	0	0	0	505	141	
6	0	0	0	0	503	141	
7	0	0	0	0	502	142	
8	0	0	0	0	501	142	
9	0	0	0	0	502	141	
10	0	0	0	0	504	141	
11	0	0	0	0	507	142	
12	0	0	0	0	509	142	
13	0	0	0	0	511	142	
14	0	0	0	0	514	141	
15	0	0	0	0	515	141	
0	0	0	0	0	514	142	
1	0	0	0	0	513	142	
2	0	0	0	0	512	142	
3	0	0	0	0	511	141	
4	0	0	0	0	508	141	
5	0	0	0	0	507	142	
6	0	0	0	0	504	142	
7	0	0	0	0	504	142	
8	0	0	0	0	505	141	
9	0	0	0	0	505	141	
10	0	0	0	0	507	142	
11	0	0	0	0	510	142	
12	0	0	0	0	513	142	
13	0	0	0	0	516	141	
14	0	0	0	0	518	141	
15	0	0	0	0	520	141	
0	0	0	0	0	521	141	
1	0	0	0	0	520	142	
2	0	0	0	0	518	142	
3	0	0	0	0	514	142	
4	0	0	0	0	511	141	
5	0	0	0	0	508	141	
6	0	0	0	0	505	141	
7	0	0	0	0	504	142	
8	0	0	0	0	501	142	
9	0	0	0	0	501	142	
10	0	0	0	0	503	141	
11	0	0	0	0	505	141	
12	0	0	0	0	510	142	
13	0	0	0	0	512	142	
14	0	0	0	0	514	142	
15	0	0	0	0	515	141	
0	0	0	0	0	518	141	
1	0	0	0	0	519	142	
2	0	0	0	0	519	142	
3	0	0	0	0	518	142	
4	0	0	0	0	515	141	
5	0	0	0	0	512	141	
6	0	0	0	0	511	142	
7	0	0	0	0	508	142	
8	0	0	0	0	507	142	
9	0	0	0	0	505	141	
10	0	0	0	0	505	141	
11	0	0	0	0	507	142	
12	0	0	0	0	508	142	
13	0	0	0	0	511	142	
14	0	0	0	0	515	142	
15	0	0	0	0	516	141	
0	0	0	0	0	517	141	
1	0	0	0	0	519	142	
2	0	0	0	0	519	142	
3	0	0	0	0	517	142	
4	0	0	0	0	514	141	
5	0	0	0	0	512	141	
6	0	0	0	0	508	142	
7	0	0	0	0	506	142	
8	0	0	0	0	504	142	
9	0	0	0	0	502	142	
10	0	0	0	0	503	141	
11	0	0	0	0	503	141	
12	0	0	0	0	505	142	
13	0	0	0	0	509	142	
14	0	0	0	0	513	142	
15	0	0	0	0	516	141	
0	0	0	0	0	519	141	
1	0	0	0	0	523	142	
2	0	0	0	0	524	142	
3	0	0	0	0	524	141	
4	0	0	0	0	523	141	
5	0	0	0	0	521	141	
6	0	0	0	0	519	142	
7	0	0	0	0	518	142	
8	0	0	0	0	516	142	
9	0	0	0	0	515	142	
10	0	0	0	0	515	141	
11	0	0	0	0	515	141	
12	0	0	0	0	517	141	
13	0	0	0	0	519	142	
14	0	0	0	0	522	142	
15	0	0	0	0	525	141	
0	0	0	0	0	528	141	
1	0	0	0	0	530	142	
2	0	0	0	0	531	142	
3	0	0	0	0	532	142	
4	0	0	0	0	532	141	
5	0	0	0	0	531	141	
6	0	0	0	0	528	142	
7	0	0	0	0	525	142	
8	0	0	0	0	524	142	
9	0	0	0	0	524	141	
10	0	0	0	0	524	142	
11	0	0	0	0	525	142	
12	0	0	0	0	527	142	
13	0	0	0	0	530	141	
14	0	0	0	0	532	141	
15	0	0	0	0	536	142	
0	0	0	0	0	539	142	
1	0	0	0	0	541	142	
2	0	0	0	0	542	141	
3	0	0	0	0	542	141	
4	0	0	0	0	541	142	
5	0	0	0	0	539	142	
6	0	0	0	0	537	142	
7	0	0	0	0	535	141	
8	0	0	0	0	532	141	
9	0	0	0	0	531	141	
10	0	0	0	0	530	142	
11	0	0	0	0	531	142	
12	0	0	0	0	534	142	
13	0	0	0	0	538	141	
14	0	0	0	0	542	141	
15	0	0	0	0	548	141	
0	0	0	0	0	553	142	
1	0	0	0	0	560	142	
2	0	0	0	0	566	141	
3	0	0	0	0	571	141	
4	0	0	0	0	574	141	
5	0	0	0	0	575	142	
6	0	0	0	0	574	142	
7	0	0	0	0	573	141	
8	0	0	0	0	571	141	
9	0	0	0	0	568	141	
10	0	0	0	0	565	141	
11	0	0	0	0	561	142	
12	0	0	0	0	556	142	
13	0	0	0	0	551	142	
14	0	0	0	0	548	142	
15	0	0	0	0	545	142	
0	0	0	0	0	542	141	
1	0	0	0	0	539	141	
2	0	0	0	0	537	142	
3	0	0	0	0	536	142	
4	0	0	0	0	536	142	
5	0	0	0	0	535	142	
6	0	0	0	0	531	141	
7	0	0	0	0	523	141	
8	0	0	0	0	515	142	
9	0	0	0	0	508	142	
10	0	0	0	0	501	142	
11	0	0	0	0	496	141	
12	0	0	0	0	493	141	
13	0	0	0	0	492	142	
14	0	0	0	0	491	142	
15	0	0	0	0	492	142	
0	0	0	0	0	492	141	
1	0	0	0	0	493	141	
2	0	0	0	0	492	142	
3	0	0	0	0	491	142	
4	0	0	0	0	488	142	
5	0	0	0	0	486	141	
6	0	0	0	0	483	141	
7	0	0	0	0	481	142	
8	0	0	0	0	480	142	
9	0	0	0	0	478	142	
10	0	0	0	0	475	141	
11	0	0	0	0	473	141	
12	0	0	0	0	473	142	
13	0	0	0	0	475	142	
14	0	0	0	0	478	142	
15	0	0	0	0	480	142	
0	0	0	0	0	484	141	
1	0	0	0	0	490	141	
2	0	0	0	0	495	142	
3	0	0	0	0	500	142	
4	0	0	0	0	504	142	
5	0	0	0	0	509	141	
6	0	0	0	0	513	141	
7	0	0	0	0	513	142	
8	0	0	0	0	513	142	
9	0	0	0	0	512	141	
10	0	0	0	0	512	141	
11	0	0	0	0	511	142	
12	0	0	0	0	510	142	
13	0	0	0	0	511	142	
14	0	0	0	0	512	142	
15	0	0	0	0	512	141	
0	0	0	0	0	513	141	
1	0	0	0	0	515	141	
2	0	0	0	0	519	142	
3	0	0	0	0	523	142	
4	0	0	0	0	527	142	
5	0	0	0	0	530	141	
6	0	0	0	0	531	141	
7	0	0	0	0	532	142	
8	0	0	0	0	532	142	
9	0	0	0	0	531	141	
10	0	0	0	0	528	141	
11	0	0	0	0	526	142	
12	0	0	0	0	524	142	
13	0	0	0	0	522	142	
14	0	0	0	0	521	141	
15	0	0	0	0	520	141	
0	0	0	0	0	519	141	
1	0	0	0	0	520	142	
2	0	0	0	0	522	142	
3	0	0	0	0	524	142	
4	0	0	0	0	526	141	
5	0	0	0	0	527	141	
6	0	0	0	0	529	142	
7	0	0	0	0	530	142	
8	0	0	0	0	531	142	
9	0	0	0	0	531	141	
10	0	0	0	0	530	141	
11	0	0	0	0	527	141	
12	0	0	0	0	525	142	
13	0	0	0	0	523	142	
14	0	0	0	0	521	142	
15	0	0	0	0	520	141	
0	0	0	0	0	519	141	
1	0	0	0	0	519	142	
2	0	0	0	0	520	142	
3	0	0	0	0	521	142	
4	0	0	0	0	522	142	
5	0	0	0	0	524	141	
6	0	0	0	0	525	141	
7	0	0	0	0	526	141	
8	0	0	0	0	527	142	
9	0	0	0	0	527	142	
10	0	0	0	0	527	142	
11	0	0	0	0	526	142	
12	0	0	0	0	525	142	
13	0	0	0	0	524	142	
14	0	0	0	0	522	141	
15	0	0	0	0	519	141	
0	0	0	0	0	518	141	
1	0	0	0	0	518	141	
2	0	0	0	0	519	142	
3	0	0	0	0	521	142	
4	0	0	0	0	524	142	
5	0	0	0	0	526	141	
6	0	0	0	0	528	141	
7	0	0	0	0	529	141	
8	0	0	0	0	530	142	
9	0	0	0	0	531	142	
10	0	0	0	0	530	142	
11	0	0	0	0	530	141	
12	0	0	0	0	528	141	
13	0	0	0	0	526	141	
14	0	0	0	0	524	141	
15	0	0	0	0	521	142	
0	0	0	0	0	520	142	
1	0	0	0	0	519	141	
2	0	0	0	0	518	141	
3	0	0	0	0	520	142	
4	0	0	0	0	523	142	
5	0	0	0	0	527	142	
6	0	0	0	0	529	141	
7	0	0	0	0	531	141	
8	0	0	0	0	531	141	
9	0	0	0	0	531	142	
10	0	0	0	0	529	142	
11	0	0	0	0	526	141	
12	0	0	0	0	522	141	
13	0	0	0	0	519	142	
14	0	0	0	0	518	142	
15	0	0	0	0	516	142	
0	0	0	0	0	515	141	
1	0	0	0	0	515	141	
2	0	0	0	0	515	142	
3	0	0	0	0	515	142	
4	0	0	0	0	516	142	
5	0	0	0	0	519	141	
6	0	0	0	0	520	141	
7	0	0	0	0	522	142	
8	0	0	0	0	523	142	
9	0	0	0	0	524	142	
10	0	0	0	0	524	141	
11	0	0	0	0	523	141	
12	0	0	0	0	521	141	
13	0	0	0	0	520	142	
14	0	0	0	0	516	142	
15	0	0	0	0	514	142	
0	0	0	0	0	511	142	
1	0	0	0	0	510	141	
2	0	0	0	0	509	142	
3	0	0	0	0	509	142	
4	0	0	0	0	511	142	
5	0	0	0	0	514	141	
6	0	0	0	0	516	141	
7	0	0	0	0	518	141	
8	0	0	0	0	520	142	
9	0	0	0	0	523	142	
10	0	0	0	0	525	142	
11	0	0	0	0	526	142	
12	0	0	0	0	524	141	
13	0	0	0	0	523	141	
14	0	0	0	0	521	142	
15	0	0	0	0	519	142	
0	0	0	0	0	516	142	
1	0	0	0	0	514	141	
2	0	0	0	0	512	141	
3	0	0	0	0	512	142	
4	0	0	0	0	512	142	
5	0	0	0	0	514	142	
6	0	0	0	0	516	141	
7	0	0	0	0	519	141	
8	0	0	0	0	520	142	
9	0	0	0	0	521	142	
10	0	0	0	0	524	142	
11	0	0	0	0	526	141	
12	0	0	0	0	526	141	
13	0	0	0	0	526	141	
14	0	0	0	0	524	142	
15	0	0	0	0	521	142	
0	0	0	0	0	518	141	
1	0	0	0	0	515	141	
2	0	0	0	0	513	141	
3	0	0	0	0	513	142	
4	0	0	0	0	513	142	
5	0	0	0	0	512	142	
6	0	0	0	0	514	142	
7	0	0	0	0	515	141	
8	0	0	0	0	517	141	
9	0	0	0	0	519	142	
10	0	0	0	0	520	142	
11	0	0	0	0	523	142	
12	0	0	0	0	522	141	
13	0	0	0	0	523	141	
14	0	0	0	0	524	142	
15	0	0	0	0	524	142	
0	0	0	0	0	523	142	
1	0	0	0	0	522	142	
2	0	0	0	0	520	141	
3	0	0	0	0	519	141	
4	0	0	0	0	518	142	
5	0	0	0	0	519	142	
6	0	0	0	0	519	141	
7	0	0	0	0	521	141	
8	0	0	0	0	522	142	
9	0	0	0	0	523	142	
10	0	0	0	0	525	142	
11	0	0	0	0	527	141	
12	0	0	0	0	529	141	
13	0	0	0	0	530	141	
14	0	0	0	0	529	142	
15	0	0	0	0	527	142	
0	0	0	0	0	525	142	
1	0	0	0	0	522	142	
2	0	0	0	0	521	141	
3	0	0	0	0	521	141	
4	0	0	0	0	521	142	
5	0	0	0	0	522	142	
6	0	0	0	0	523	142	
7	0	0	0	0	524	141	
8	0	0	0	0	524	141	
9	0	0	0	0	525	142	
10	0	0	0	0	528	142	
11	0	0	0	0	531	142	
12	0	0	0	0	534	141	
13	0	0	0	0	537	141	
14	0	0	0	0	536	142	
15	0	0	0	0	534	142	
0	0	0	0	0	531	141	
1	0	0	0	0	527	141	
2	0	0	0	0	524	141	
3	0	0	0	0	521	142	
4	0	0	0	0	520	142	
5	0	0	0	0	519	142	
6	0	0	0	0	519	142	
7	0	0	0	0	522	141	
8	0	0	0	0	525	141	
9	0	0	0	0	530	142	
10	0	0	0	0	535	142	
11	0	0	0	0	540	142	
12	0	0	0	0	543	141	
13	0	0	0	0	545	141	
14	0	0	0	0	545	142	
15	0	0	0	0	545	142	
0	0	0	0	0	543	142	
1	0	0	0	0	542	141	
2	0	0	0	0	537	141	
3	0	0	0	0	532	141	
4	0	0	0	0	527	142	
5	0	0	0	0	524	142	
6	0	0	0	0	524	142	
7	0	0	0	0	524	141	
8	0	0	0	0	524	141	
9	0	0	0	0	523	142	
10	0	0	0	0	525	142	
11	0	0	0	0	527	141	
12	0	0	0	0	530	141	
13	0	0	0	0	533	141	
14	0	0	0	0	533	142	
15	0	0	0	0	531	142	
0	0	0	0	0	528	142	
1	0	0	0	0	526	141	
2	0	0	0	0	522	141	
3	0	0	0	0	518	142	
4	0	0	0	0	514	142	
5	0	0	0	0	510	142	
6	0	0	0	0	505	141	
7	0	0	0	0	503	141	
8	0	0	0	0	504	142	
9	0	0	0	0	507	142	
10	0	0	0	0	508	141	
11	0	0	0	0	511	141	
12	0	0	0	0	513	142	
13	0	0	0	0	516	142	
14	0	0	0	0	519	141	
15	0	0	0	0	519	141	
0	0	0	0	0	519	142	
1	0	0	0	0	516	142	
2	0	0	0	0	512	142	
3	0	0	0	0	508	141	
4	0	0	0	0	504	141	
5	0	0	0	0	501	142	
6	0	0	0	0	497	142	
7	0	0	0	0	495	142	
8	0	0	0	0	493	141	
9	0	0	0	0	491	142	
10	0	0	0	0	489	142	
11	0	0	0	0	488	142	
12	0	0	0	0	489	141	
13	0	0	0	0	492	141	
14	0	0	0	0	494	142	
15	0	0	0	0	495	142	
0	0	0	0	0	495	141	
1	0	0	0	0	493	141	
2	0	0	0	0	491	142	
3	0	0	0	0	488	142	
4	0	0	0	0	486	142	
5	0	0	0	0	483	141	
6	0	0	0	0	482	141	
7	0	0	0	0	480	142	
8	0	0	0	0	477	142	
9	0	0	0	0	475	141	
10	0	0	0	0	474	141	
11	0	0	0	0	473	141	
12	0	0	0	0	476	142	
13	0	0	0	0	480	142	
14	0	0	0	0	484	142	
15	0	0	0	0	486	141	
0	0	0	0	0	487	142	
1	0	0	0	0	486	142	
2	0	0	0	0	483	142	
3	0	0	0	0	480	141	
4	0	0	0	0	477	142	
5	0	0	0	0	472	142	
6	0	0	0	0	470	142	
7	0	0	0	0	467	141	
8	0	0	0	0	465	142	
9	0	0	0	0	464	142	
10	0	0	0	0	464	142	
11	0	0	0	0	467	142	
12	0	0	0	0	468	141	
13	0	0	0	0	471	142	
14	0	0	0	0	472	142	
15	0	0	0	0	474	142	
0	0	0	0	0	476	141	
1	0	0	0	0	475	141	
2	0	0	0	0	474	142	
3	0	0	0	0	471	142	
4	0	0	0	0	467	142	
5	0	0	0	0	464	141	
6	0	0	0	0	461	142	
7	0	0	0	0	458	142	
8	0	0	0	0	456	142	
9	0	0	0	0	454	142	
10	0	0	0	0	454	142	
11	0	0	0	0	455	142	
12	0	0	0	0	457	142	
13	0	0	0	0	460	142	
14	0	0	0	0	462	142	
15	0	0	0	0	464	141	
0	0	0	0	0	466	141	
1	0	0	0	0	467	142	
2	0	0	0	0	467	142	
3	0	0	0	0	467	142	
4	0	0	0	0	466	141	
5	0	0	0	0	463	142	
6	0	0	0	0	460	142	
7	0	0	0	0	457	142	
8	0	0	0	0	455	142	
9	0	0	0	0	455	142	
10	0	0	0	0	454	141	
11	0	0	0	0	454	142	
12	0	0	0	0	455	142	
13	0	0	0	0	456	142	
14	0	0	0	0	460	141	
15	0	0	0	0	462	142	
0	0	0	0	0	465	142	
1	0	0	0	0	470	142	
2	0	0	0	0	472	142	
3	0	0	0	0	473	141	
4	0	0	0	0	473	141	
5	0	0	0	0	473	142	
6	0	0	0	0	472	142	
7	0	0	0	0	470	142	
8	0	0	0	0	467	142	
9	0	0	0	0	465	142	
10	0	0	0	0	465	142	
11	0	0	0	0	465	142	
12	0	0	0	0	467	142	
13	0	0	0	0	470	142	
14	0	0	0	0	472	142	
15	0	0	0	0	477	142	
0	0	0	0	0	480	142	
1	0	0	0	0	483	142	
2	0	0	0	0	486	142	
3	0	0	0	0	488	141	
4	0	0	0	0	488	141	
5	0	0	0	0	489	141	
6	0	0	0	0	488	141	
7	0	0	0	0	487	142	
8	0	0	0	0	484	142	
9	0	0	0	0	482	142	
10	0	0	0	0	480	142	
11	0	0	0	0	479	142	
12	0	0	0	0	480	141	
13	0	0	0	0	481	141	
14	0	0	0	0	484	141	
15	0	0	0	0	487	141	
0	0	0	0	0	492	141	
1	0	0	0	0	496	142	
2	0	0	0	0	499	142	
3	0	0	0	0	499	142	
4	0	0	0	0	499	142	
5	0	0	0	0	498	142	
6	0	0	0	0	496	142	
7	0	0	0	0	494	142	
8	0	0	0	0	491	141	
9	0	0	0	0	488	141	
10	0	0	0	0	485	141	
11	0	0	0	0	483	142	
12	0	0	0	0	482	142	
13	0	0	0	0	483	142	
14	0	0	0	0	484	142	
15	0	0	0	0	485	142	
0	0	0	0	0	488	142	
1	0	0	0	0	491	141	
2	0	0	0	0	494	141	
3	0	0	0	0	497	141	
4	0	0	0	0	499	141	
5	0	0	0	0	499	142	
6	0	0	0	0	499	142	
7	0	0	0	0	497	142	
8	0	0	0	0	495	142	
9	0	0	0	0	493	142	
10	0	0	0	0	492	142	
11	0	0	0	0	490	141	
12	0	0	0	0	489	141	
13	0	0	0	0	487	141	
14	0	0	0	0	488	142	
15	0	0	0	0	488	142	
0	0	0	0	0	489	142	
1	0	0	0	0	492	142	
2	0	0	0	0	493	142	
3	0	0	0	0	496	142	
4	0	0	0	0	497	141	
5	0	0	0	0	498	141	
6	0	0	0	0	497	141	
7	0	0	0	0	495	142	
8	0	0	0	0	492	142	
9	0	0	0	0	489	142	
10	0	0	0	0	487	142	
11	0	0	0	0	486	142	
12	0	0	0	0	485	141	
13	0	0	0	0	485	141	
14	0	0	0	0	487	142	
15	0	0	0	0	489	142	
0	0	0	0	0	493	142	
1	0	0	0	0	496	142	
2	0	0	0	0	499	141	
3	0	0	0	0	502	141	
4	0	0	0	0	504	142	
5	0	0	0	0	506	142	
6	0	0	0	0	508	142	
7	0	0	0	0	507	141	
8	0	0	0	0	505	141	
9	0	0	0	0	502	141	
10	0	0	0	0	499	142	
11	0	0	0	0	496	142	
12	0	0	0	0	495	142	
13	0	0	0	0	493	142	
14	0	0	0	0	492	142	
15	0	0	0	0	491	141	
0	0	0	0	0	493	141	
1	0	0	0	0	495	142	
2	0	0	0	0	499	142	
3	0	0	0	0	502	142	
4	0	0	0	0	505	141	
5	0	0	0	0	508	141	
6	0	0	0	0	510	141	
7	0	0	0	0	512	142	
8	0	0	0	0	511	142	
9	0	0	0	0	509	142	
10	0	0	0	0	507	142	
11	0	0	0	0	503	141	
12	0	0	0	0	501	142	
13	0	0	0	0	499	142	
14	0	0	0	0	497	142	
15	0	0	0	0	496	142	
0	0	0	0	0	496	141	
1	0	0	0	0	499	141	
2	0	0	0	0	503	141	
3	0	0	0	0	506	142	
4	0	0	0	0	509	142	
5	0	0	0	0	512	142	
6	0	0	0	0	514	142	
7	0	0	0	0	517	141	
8	0	0	0	0	518	141	
9	0	0	0	0	516	142	
10	0	0	0	0	512	142	
11	0	0	0	0	510	142	
12	0	0	0	0	507	142	
13	0	0	0	0	506	142	
14	0	0	0	0	504	142	
15	0	0	0	0	502	141	
0	0	0	0	0	503	142	
1	0	0	0	0	504	142	
2	0	0	0	0	505	142	
3	0	0	0	0	508	142	
4	0	0	0	0	511	142	
5	0	0	0	0	513	141	
6	0	0	0	0	516	141	
7	0	0	0	0	519	141	
8	0	0	0	0	519	141	
9	0	0	0	0	519	142	
10	0	0	0	0	518	142	
11	0	0	0	0	515	142	
12	0	0	0	0	512	141	
13	0	0	0	0	508	141	
14	0	0	0	0	505	141	
15	0	0	0	0	503	141	
0	0	0	0	0	502	142	
1	0	0	0	0	503	142	
2	0	0	0	0	504	142	
3	0	0	0	0	507	142	
4	0	0	0	0	510	141	
5	0	0	0	0	511	141	
6	0	0	0	0	513	141	
7	0	0	0	0	515	141	
8	0	0	0	0	517	142	
9	0	0	0	0	518	142	
10	0	0	0	0	518	142	
11	0	0	0	0	516	142	
12	0	0	0	0	514	141	
13	0	0	0	0	512	141	
14	0	0	0	0	510	142	
15	0	0	0	0	508	142	
0	0	0	0	0	507	142	
1	0	0	0	0	507	141	
2	0	0	0	0	508	141	
3	0	0	0	0	510	141	
4	0	0	0	0	512	142	
5	0	0	0	0	513	142	
6	0	0	0	0	516	142	
7	0	0	0	0	518	141	
8	0	0	0	0	520	141	
9	0	0	0	0	521	141	
10	0	0	0	0	521	142	
11	0	0	0	0	521	142	
12	0	0	0	0	519	142	
13	0	0	0	0	516	141	
14	0	0	0	0	513	141	
15	0	0	0	0	510	141	
0	0	0	0	0	508	141	
1	0	0	0	0	506	142	
2	0	0	0	0	505	142	
3	0	0	0	0	506	142	
4	0	0	0	0	507	141	
5	0	0	0	0	509	141	
6	0	0	0	0	510	142	
7	0	0	0	0	512	142	
8	0	0	0	0	512	142	
9	0	0	0	0	513	142	
10	0	0	0	0	513	141	
11	0	0	0	0	512	141	
12	0	0	0	0	510	141	
13	0	0	0	0	507	142	
14	0	0	0	0	504	142	
15	0	0	0	0	501	142	
0	0	0	0	0	499	141	
1	0	0	0	0	498	141	
2	0	0	0	0	496	142	
3	0	0	0	0	496	142	
4	0	0	0	0	497	142	
5	0	0	0	0	498	142	
6	0	0	0	0	499	141	
7	0	0	0	0	500	141	
8	0	0	0	0	501	141	
9	0	0	0	0	503	142	
10	0	0	0	0	504	142	
11	0	0	0	0	504	142	
12	0	0	0	0	504	142	
13	0	0	0	0	501	141	
14	0	0	0	0	499	141	
15	0	0	0	0	497	142	
0	0	0	0	0	496	142	
1	0	0	0	0	495	142	
2	0	0	0	0	495	141	
3	0	0	0	0	495	141	
4	0	0	0	0	496	142	
5	0	0	0	0	499	142	
6	0	0	0	0	502	142	
7	0	0	0	0	505	142	
8	0	0	0	0	508	141	
9	0	0	0	0	511	141	
10	0	0	0	0	512	142	
11	0	0	0	0	512	142	
12	0	0	0	0	511	142	
13	0	0	0	0	508	142	
14	0	0	0	0	504	141	
15	0	0	0	0	502	141	
0	0	0	0	0	499	142	
1	0	0	0	0	497	142	
2	0	0	0	0	496	142	
3	0	0	0	0	496	142	
4	0	0	0	0	497	141	
5	0	0	0	0	499	141	
6	0	0	0	0	501	141	
7	0	0	0	0	505	142	
8	0	0	0	0	508	142	
9	0	0	0	0	512	141	
10	0	0	0	0	514	141	
11	0	0	0	0	516	141	
12	0	0	0	0	518	142	
13	0	0	0	0	517	142	
14	0	0	0	0	515	141	
15	0	0	0	0	512	141	
0	0	0	0	0	508	141	
1	0	0	0	0	505	142	
2	0	0	0	0	502	142	
3	0	0	0	0	500	142	
4	0	0	0	0	499	141	
5	0	0	0	0	499	141	
6	0	0	0	0	500	142	
7	0	0	0	0	502	142	
8	0	0	0	0	505	142	
9	0	0	0	0	508	141	
10	0	0	0	0	511	141	
11	0	0	0	0	511	142	
12	0	0	0	0	512	142	
13	0	0	0	0	513	142	
14	0	0	0	0	511	141	
15	0	0	0	0	508	141	
0	0	0	0	0	507	141	
1	0	0	0	0	503	142	
2	0	0	0	0	499	142	
3	0	0	0	0	496	142	
4	0	0	0	0	492	141	
5	0	0	0	0	491	142	
6	0	0	0	0	491	142	
7	0	0	0	0	494	142	
8	0	0	0	0	495	141	
9	0	0	0	0	497	141	
10	0	0	0	0	499	141	
11	0	0	0	0	501	141	
12	0	0	0	0	503	141	
13	0	0	0	0	504	142	
14	0	0	0	0	503	142	
15	0	0	0	0	502	142	
0	0	0	0	0	500	141	
1	0	0	0	0	497	141	
2	0	0	0	0	496	142	
3	0	0	0	0	495	142	
4	0	0	0	0	494	142	
5	0	0	0	0	494	141	
6	0	0	0	0	494	141	
7	0	0	0	0	495	141	
8	0	0	0	0	496	142	
9	0	0	0	0	498	142	
10	0	0	0	0	501	142	
11	0	0	0	0	504	141	
12	0	0	0	0	507	141	
13	0	0	0	0	510	142	
14	0	0	0	0	511	142	
15	0	0	0	0	510	142	
0	0	0	0	0	509	142	
1	0	0	0	0	507	141	
2	0	0	0	0	506	141	
3	0	0	0	0	503	141	
4	0	0	0	0	500	142	
5	0	0	0	0	499	142	
6	0	0	0	0	498	142	
7	0	0	0	0	498	141	
8	0	0	0	0	500	141	
9	0	0	0	0	504	142	
10	0	0	0	0	508	142	
11	0	0	0	0	511	142	
12	0	0	0	0	513	141	
13	0	0	0	0	514	141	
14	0	0	0	0	515	142	
15	0	0	0	0	515	142	
0	0	0	0	0	514	142	
1	0	0	0	0	512	141	
2	0	0	0	0	510	142	
3	0	0	0	0	507	142	
4	0	0	0	0	505	142	
5	0	0	0	0	503	142	
6	0	0	0	0	501	142	
7	0	0	0	0	500	141	
8	0	0	0	0	499	142	
9	0	0	0	0	499	142	
10	0	0	0	0	501	142	
11	0	0	0	0	503	141	
12	0	0	0	0	504	141	
13	0	0	0	0	507	142	
14	0	0	0	0	508	142	
15	0	0	0	0	508	142	
0	0	0	0	0	508	141	
1	0	0	0	0	507	141	
2	0	0	0	0	506	141	
3	0	0	0	0	504	142	
4	0	0	0	0	503	142	
5	0	0	0	0	500	141	
6	0	0	0	0	498	141	
7	0	0	0	0	497	142	
8	0	0	0	0	497	142	
9	0	0	0	0	498	142	
10	0	0	0	0	498	142	
11	0	0	0	0	500	141	
12	0	0	0	0	502	141	
13	0	0	0	0	504	142	
14	0	0	0	0	506	142	
15	0	0	0	0	509	142	
0	0	0	0	0	509	141	
1	0	0	0	0	507	141	
2	0	0	0	0	504	142	
3	0	0	0	0	501	142	
4	0	0	0	0	499	142	
5	0	0	0	0	497	141	
6	0	0	0	0	494	141	
7	0	0	0	0	492	142	
8	0	0	0	0	490	142	
9	0	0	0	0	489	142	
10	0	0	0	0	491	141	
11	0	0	0	0	494	141	
12	0	0	0	0	498	141	
13	0	0	0	0	503	142	
14	0	0	0	0	508	142	
15	0	0	0	0	512	142	
0	0	0	0	0	514	142	
1	0	0	0	0	515	141	
2	0	0	0	0	515	141	
3	0	0	0	0	512	142	
4	0	0	0	0	510	142	
5	0	0	0	0	506	142	
6	0	0	0	0	503	141	
7	0	0	0	0	499	141	
8	0	0	0	0	497	142	
9	0	0	0	0	498	142	
10	0	0	0	0	499	142	
11	0	0	0	0	500	141	
12	0	0	0	0	502	141	
13	0	0	0	0	504	141	
14	0	0	0	0	508	142	
15	0	0	0	0	510	142	
0	0	0	0	0	511	141	
1	0	0	0	0	512	141	
2	0	0	0	0	512	142	
3	0	0	0	0	511	142	
4	0	0	0	0	509	142	
5	0	0	0	0	505	142	
6	0	0	0	0	502	141	
7	0	0	0	0	499	141	
8	0	0	0	0	498	142	
9	0	0	0	0	497	142	
10	0	0	0	0	498	142	
11	0	0	0	0	499	142	
12	0	0	0	0	502	141	
13	0	0	0	0	506	141	
14	0	0	0	0	510	142	
15	0	0	0	0	512	142	
0	0	0	0	0	515	141	
1	0	0	0	0	518	141	
2	0	0	0	0	519	141	
3	0	0	0	0	519	142	
4	0	0	0	0	518	142	
5	0	0	0	0	515	141	
6	0	0	0	0	515	141	
7	0	0	0	0	515	141	
8	0	0	0	0	513	142	
9	0	0	0	0	513	142	
10	0	0	0	0	513	142	
11	0	0	0	0	514	141	
12	0	0	0	0	516	141	
13	0	0	0	0	517	142	
14	0	0	0	0	519	142	
15	0	0	0	0	523	142	
0	0	0	0	0	525	142	
1	0	0	0	0	527	141	
2	0	0	0	0	527	141	
3	0	0	0	0	526	142	
4	0	0	0	0	524	142	
5	0	0	0	0	522	142	
6	0	0	0	0	519	141	
7	0	0	0	0	516	141	
8	0	0	0	0	513	142	
9	0	0	0	0	511	142	
10	0	0	0	0	510	142	
11	0	0	0	0	512	141	
12	0	0	0	0	512	141	
13	0	0	0	0	513	142	
14	0	0	0	0	515	142	
15	0	0	0	0	518	142	
0	0	0	0	0	520	141	
1	0	0	0	0	523	141	
2	0	0	0	0	525	142	
3	0	0	0	0	525	142	
4	0	0	0	0	524	142	
5	0	0	0	0	523	142	
6	0	0	0	0	520	141	
7	0	0	0	0	518	141	
8	0	0	0	0	513	142	
9	0	0	0	0	509	142	
10	0	0	0	0	504	142	
11	0	0	0	0	501	141	
12	0	0	0	0	499	141	
13	0	0	0	0	498	141	
14	0	0	0	0	498	142	
15	0	0	0	0	500	142	
0	0	0	0	0	502	142	
1	0	0	0	0	503	142	
2	0	0	0	0	504	141	
3	0	0	0	0	505	141	
4	0	0	0	0	506	142	
5	0	0	0	0	506	142	
6	0	0	0	0	504	142	
7	0	0	0	0	503	142	
8	0	0	0	0	501	141	
9	0	0	0	0	499	141	
10	0	0	0	0	498	142	
11	0	0	0	0	497	142	
12	0	0	0	0	497	142	
13	0	0	0	0	498	141	
14	0	0	0	0	499	141	
15	0	0	0	0	501	142	
0	0	0	0	0	504	142	
1	0	0	0	0	507	142	
2	0	0	0	0	509	141	
3	0	0	0	0	511	142	
4	0	0	0	0	511	142	
5	0	0	0	0	511	142	
6	0	0	0	0	509	141	
7	0	0	0	0	508	141	
8	0	0	0	0	507	141	
9	0	0	0	0	504	142	
10	0	0	0	0	502	142	
11	0	0	0	0	502	142	
12	0	0	0	0	503	141	
13	0	0	0	0	503	142	
14	0	0	0	0	504	142	
15	0	0	0	0	505	142	
0	0	0	0	0	508	141	
1	0	0	0	0	510	141	
2	0	0	0	0	513	141	
3	0	0	0	0	517	142	
4	0	0	0	0	521	142	
5	0	0	0	0	523	142	
6	0	0	0	0	523	141	
7	0	0	0	0	520	141	
8	0	0	0	0	518	142	
9	0	0	0	0	514	142	
10	0	0	0	0	510	142	
11	0	0	0	0	505	141	
12	0	0	0	0	502	141	
13	0	0	0	0	501	141	
14	0	0	0	0	501	142	
15	0	0	0	0	502	142	
0	0	0	0	0	504	142	
1	0	0	0	0	507	141	
2	0	0	0	0	512	141	
3	0	0	0	0	516	142	
4	0	0	0	0	520	142	
5	0	0	0	0	523	142	
6	0	0	0	0	523	141	
7	0	0	0	0	523	141	
8	0	0	0	0	522	141	
9	0	0	0	0	519	142	
10	0	0	0	0	516	142	
11	0	0	0	0	513	142	
12	0	0	0	0	511	141	
13	0	0	0	0	510	142	
14	0	0	0	0	508	142	
15	0	0	0	0	508	142	
0	0	0	0	0	508	141	
1	0	0	0	0	508	141	
2	0	0	0	0	510	141	
3	0	0	0	0	512	142	
4	0	0	0	0	513	142	
5	0	0	0	0	515	141	
6	0	0	0	0	518	141	
7	0	0	0	0	520	142	
8	0	0	0	0	520	142	
9	0	0	0	0	519	142	
10	0	0	0	0	516	141	
11	0	0	0	0	513	141	
12	0	0	0	0	511	142	
13	0	0	0	0	507	142	
14	0	0	0	0	504	142	
15	0	0	0	0	503	142	
0	0	0	0	0	502	142	
1	0	0	0	0	502	142	
2	0	0	0	0	503	141	
3	0	0	0	0	505	141	
4	0	0	0	0	508	141	
5	0	0	0	0	512	141	
6	0	0	0	0	514	141	
7	0	0	0	0	514	142	
8	0	0	0	0	513	142	
9	0	0	0	0	513	142	
10	0	0	0	0	511	142	
11	0	0	0	0	509	142	
12	0	0	0	0	505	141	
13	0	0	0	0	504	141	
14	0	0	0	0	502	141	
15	0	0	0	0	500	141	
0	0	0	0	0	501	142	
1	0	0	0	0	504	142	
2	0	0	0	0	505	142	
3	0	0	0	0	508	142	
4	0	0	0	0	512	142	
5	0	0	0	0	515	142	
6	0	0	0	0	517	142	
7	0	0	0	0	518	141	
8	0	0	0	0	517	141	
9	0	0	0	0	515	141	
10	0	0	0	0	513	141	
11	0	0	0	0	512	142	
12	0	0	0	0	510	142	
13	0	0	0	0	508	142	
14	0	0	0	0	505	142	
15	0	0	0	0	505	142	
0	0	0	0	0	505	141	
1	0	0	0	0	506	141	
2	0	0	0	0	507	141	
3	0	0	0	0	506	142	
4	0	0	0	0	507	142	
5	0	0	0	0	510	142	
6	0	0	0	0	512	141	
7	0	0	0	0	512	141	
8	0	0	0	0	513	142	
9	0	0	0	0	515	142	
10	0	0	0	0	515	142	
11	0	0	0	0	515	142	
12	0	0	0	0	514	141	
13	0	0	0	0	512	141	
14	0	0	0	0	510	142	
15	0	0	0	0	508	142	
0	0	0	0	0	508	142	
1	0	0	0	0	508	141	
2	0	0	0	0	509	141	
3	0	0	0	0	510	142	
4	0	0	0	0	512	142	
5	0	0	0	0	516	142	
6	0	0	0	0	519	142	
7	0	0	0	0	519	141	
8	0	0	0	0	519	141	
9	0	0	0	0	520	142	
10	0	0	0	0	519	142	
11	0	0	0	0	519	142	
12	0	0	0	0	517	141	
13	0	0	0	0	515	141	
14	0	0	0	0	513	141	
15	0	0	0	0	511	141	
0	0	0	0	0	511	142	
1	0	0	0	0	510	142	
2	0	0	0	0	511	142	
3	0	0	0	0	512	142	
4	0	0	0	0	513	141	
5	0	0	0	0	516	141	
6	0	0	0	0	520	142	
7	0	0	0	0	523	142	
8	0	0	0	0	523	141	
9	0	0	0	0	523	141	
10	0	0	0	0	523	142	
11	0	0	0	0	521	142	
12	0	0	0	0	521	142	
13	0	0	0	0	519	142	
14	0	0	0	0	518	141	
15	0	0	0	0	519	141	
0	0	0	0	0	519	142	
1	0	0	0	0	519	142	
2	0	0	0	0	517	142	
3	0	0	0	0	516	141	
4	0	0	0	0	518	141	
5	0	0	0	0	520	142	
6	0	0	0	0	523	142	
7	0	0	0	0	524	142	
8	0	0	0	0	527	141	
9	0	0	0	0	531	141	
10	0	0	0	0	534	142	
11	0	0	0	0	538	142	
12	0	0	0	0	540	141	
13	0	0	0	0	542	141	
14	0	0	0	0	543	142	
15	0	0	0	0	544	142	
0	0	0	0	0	545	142	
1	0	0	0	0	545	141	
2	0	0	0	0	546	141	
3	0	0	0	0	547	142	
4	0	0	0	0	547	142	
5	0	0	0	0	551	141	
6	0	0	0	0	556	141	
7	0	0	0	0	560	141	
8	0	0	0	0	564	141	
9	0	0	0	0	566	142	
10	0	0	0	0	568	142	
11	0	0	0	0	565	141	
12	0	0	0	0	561	141	
13	0	0	0	0	557	142	
14	0	0	0	0	552	142	
15	0	0	0	0	547	141	
0	0	0	0	0	540	141	
1	0	0	0	0	534	141	
2	0	0	0	0	528	142	
3	0	0	0	0	525	142	
4	0	0	0	0	522	141	
5	0	0	0	0	519	141	
6	0	0	0	0	516	141	
7	0	0	0	0	514	142	
8	0	0	0	0	513	142	
9	0	0	0	0	512	142	
10	0	0	0	0	512	141	
11	0	0	0	0	513	141	
12	0	0	0	0	512	142	
13	0	0	0	0	510	142	
14	0	0	0	0	506	141	
15	0	0	0	0	501	141	
0	0	0	0	0	495	141	
1	0	0	0	0	487	142	
2	0	0	0	0	480	142	
3	0	0	0	0	473	142	
4	0	0	0	0	467	141	
5	0	0	0	0	464	141	
6	0	0	0	0	463	142	
7	0	0	0	0	464	142	
8	0	0	0	0	466	142	
9	0	0	0	0	471	141	
10	0	0	0	0	476	141	
11	0	0	0	0	483	142	
12	0	0	0	0	487	142	
13	0	0	0	0	492	142	
14	0	0	0	0	494	142	
15	0	0	0	0	496	141	
0	0	0	0	0	496	141	
1	0	0	0	0	494	142	
2	0	0	0	0	492	142	
3	0	0	0	0	490	142	
4	0	0	0	0	489	141	
5	0	0	0	0	491	141	
6	0	0	0	0	493	142	
7	0	0	0	0	497	142	
8	0	0	0	0	503	142	
9	0	0	0	0	508	142	
10	0	0	0	0	512	142	
11	0	0	0	0	515	141	
12	0	0	0	0	518	141	
13	0	0	0	0	519	141	
14	0	0	0	0	519	142	
15	0	0	0	0	518	142	
0	0	0	0	0	516	141	
1	0	0	0	0	515	141	
2	0	0	0	0	513	141	
3	0	0	0	0	512	141	
4	0	0	0	0	511	142	
5	0	0	0	0	510	142	
6	0	0	0	0	510	141	
7	0	0	0	0	512	141	
8	0	0	0	0	513	142	
9	0	0	0	0	516	142	
10	0	0	0	0	520	141	
11	0	0	0	0	522	141	
12	0	0	0	0	524	142	
13	0	0	0	0	524	142	
14	0	0	0	0	523	142	
15	0	0	0	0	520	141	
0	0	0	0	0	518	141	
1	0	0	0	0	513	142	
2	0	0	0	0	510	142	
3	0	0	0	0	506	142	
4	0	0	0	0	503	141	
5	0	0	0	0	501	141	
6	0	0	0	0	502	141	
7	0	0	0	0	502	142	
8	0	0	0	0	504	142	
9	0	0	0	0	505	142	
10	0	0	0	0	509	141	
11	0	0	0	0	512	141	
12	0	0	0	0	513	141	
13	0	0	0	0	514	142	
14	0	0	0	0	515	142	
15	0	0	0	0	516	142	
0	0	0	0	0	515	141	
1	0	0	0	0	513	141	
2	0	0	0	0	511	142	
3	0	0	0	0	508	142	
4	0	0	0	0	505	142	
5	0	0	0	0	503	141	
6	0	0	0	0	502	141	
7	0	0	0	0	502	142	
8	0	0	0	0	503	142	
9	0	0	0	0	506	142	
10	0	0	0	0	509	142	
11	0	0	0	0	512	142	
12	0	0	0	0	514	141	
13	0	0	0	0	517	141	
14	0	0	0	0	519	142	
15	0	0	0	0	518	142	
0	0	0	0	0	518	142	
1	0	0	0	0	518	142	
2	0	0	0	0	515	141	
3	0	0	0	0	512	141	
4	0	0	0	0	511	142	
5	0	0	0	0	508	142	
6	0	0	0	0	506	142	
7	0	0	0	0	505	141	
8	0	0	0	0	507	141	
9	0	0	0	0	509	142	
10	0	0	0	0	511	142	
11	0	0	0	0	513	142	
12	0	0	0	0	517	142	
13	0	0	0	0	520	141	
14	0	0	0	0	522	141	
15	0	0	0	0	523	142	
0	0	0	0	0	523	142	
1	0	0	0	0	523	142	
2	0	0	0	0	521	141	
3	0	0	0	0	518	141	
4	0	0	0	0	515	141	
5	0	0	0	0	513	142	
6	0	0	0	0	511	142	
7	0	0	0	0	511	141	
8	0	0	0	0	510	141	
9	0	0	0	0	511	141	
10	0	0	0	0	512	142	
11	0	0	0	0	514	142	
12	0	0	0	0	517	142	
13	0	0	0	0	519	141	
14	0	0	0	0	521	141	
15	0	0	0	0	523	142	
0	0	0	0	0	524	142	
1	0	0	0	0	524	142	
2	0	0	0	0	523	141	
3	0	0	0	0	521	141	
4	0	0	0	0	517	141	
5	0	0	0	0	515	142	
6	0	0	0	0	512	142	
7	0	0	0	0	509	142	
8	0	0	0	0	507	141	
9	0	0	0	0	508	141	
10	0	0	0	0	509	141	
11	0	0	0	0	511	142	
12	0	0	0	0	513	142	
13	0	0	0	0	516	142	
14	0	0	0	0	520	141	
15	0	0	0	0	524	141	
0	0	0	0	0	527	141	
1	0	0	0	0	528	142	
2	0	0	0	0	528	142	
3	0	0	0	0	527	141	
4	0	0	0	0	525	141	
5	0	0	0	0	523	141	
6	0	0	0	0	519	142	
7	0	0	0	0	516	142	
8	0	0	0	0	514	142	
9	0	0	0	0	512	141	
10	0	0	0	0	513	141	
11	0	0	0	0	514	142	
12	0	0	0	0	516	142	
13	0	0	0	0	520	141	
14	0	0	0	0	523	141	
15	0	0	0	0	526	142	
0	0	0	0	0	528	142	
1	0	0	0	0	531	142	
2	0	0	0	0	532	141	
3	0	0	0	0	531	141	
4	0	0	0	0	530	141	
5	0	0	0	0	527	142	
6	0	0	0	0	524	141	
7	0	0	0	0	521	141	
8	0	0	0	0	517	141	
9	0	0	0	0	515	142	
10	0	0	0	0	514	142	
11	0	0	0	0	514	141	
12	0	0	0	0	516	141	
13	0	0	0	0	519	141	
14	0	0	0	0	521	141	
15	0	0	0	0	524	142	
0	0	0	0	0	527	142	
1	0	0	0	0	529	142	
2	0	0	0	0	530	141	
3	0	0	0	0	529	141	
4	0	0	0	0	529	141	
5	0	0	0	0	528	142	
6	0	0	0	0	525	142	
7	0	0	0	0	522	141	
8	0	0	0	0	520	141	
9	0	0	0	0	519	141	
10	0	0	0	0	517	142	
11	0	0	0	0	517	142	
12	0	0	0	0	517	142	
13	0	0	0	0	519	141	
14	0	0	0	0	522	141	
15	0	0	0	0	525	142	
0	0	0	0	0	528	142	
1	0	0	0	0	529	141	
2	0	0	0	0	531	141	
3	0	0	0	0	532	141	
4	0	0	0	0	532	142	
5	0	0	0	0	531	142	
6	0	0	0	0	528	142	
7	0	0	0	0	526	141	
8	0	0	0	0	523	141	
9	0	0	0	0	521	142	
10	0	0	0	0	520	142	
11	0	0	0	0	519	142	
12	0	0	0	0	519	141	
13	0	0	0	0	521	141	
14	0	0	0	0	523	142	
15	0	0	0	0	525	142	
0	0	0	0	0	528	142	
1	0	0	0	0	531	141	
2	0	0	0	0	532	141	
3	0	0	0	0	534	142	
4	0	0	0	0	534	142	
5	0	0	0	0	535	141	
6	0	0	0	0	533	141	
7	0	0	0	0	530	141	
8	0	0	0	0	527	142	
9	0	0	0	0	524	142	
10	0	0	0	0	523	142	
11	0	0	0	0	523	141	
12	0	0	0	0	522	141	
13	0	0	0	0	523	141	
14	0	0	0	0	524	142	
15	0	0	0	0	526	142	
0	0	0	0	0	529	141	
1	0	0	0	0	532	141	
2	0	0	0	0	534	141	
3	0	0	0	0	536	142	
4	0	0	0	0	538	142	
5	0	0	0	0	537	141	
6	0	0	0	0	535	141	
7	0	0	0	0	535	141	
8	0	0	0	0	532	142	
9	0	0	0	0	529	142	
10	0	0	0	0	527	142	
11	0	0	0	0	524	142	
12	0	0	0	0	523	141	
13	0	0	0	0	523	141	
14	0	0	0	0	523	142	
15	0	0	0	0	525	142	
0	0	0	0	0	528	142	
1	0	0	0	0	532	141	
2	0	0	0	0	536	141	
3	0	0	0	0	539	141	
4	0	0	0	0	541	142	
5	0	0	0	0	542	141	
6	0	0	0	0	540	142	
7	0	0	0	0	538	141	
8	0	0	0	0	535	141	
9	0	0	0	0	531	142	
10	0	0	0	0	529	142	
11	0	0	0	0	527	141	
12	0	0	0	0	525	141	
13	0	0	0	0	524	141	
14	0	0	0	0	523	141	
15	0	0	0	0	524	141	
0	0	0	0	0	526	142	
1	0	0	0	0	528	142	
2	0	0	0	0	531	141	
3	0	0	0	0	533	141	
4	0	0	0	0	535	142	
5	0	0	0	0	537	142	
6	0	0	0	0	538	142	
7	0	0	0	0	537	141	
8	0	0	0	0	535	141	
9	0	0	0	0	531	142	
10	0	0	0	0	528	142	
11	0	0	0	0	526	142	
12	0	0	0	0	522	141	
13	0	0	0	0	520	141	
14	0	0	0	0	519	141	
15	0	0	0	0	518	142	
0	0	0	0	0	519	142	
1	0	0	0	0	519	141	
2	0	0	0	0	521	141	
3	0	0	0	0	524	142	
4	0	0	0	0	526	142	
5	0	0	0	0	527	142	
6	0	0	0	0	528	141	
7	0	0	0	0	527	141	
8	0	0	0	0	526	141	
9	0	0	0	0	526	142	
10	0	0	0	0	523	142	
11	0	0	0	0	520	142	
12	0	0	0	0	517	142	
13	0	0	0	0	515	141	
14	0	0	0	0	514	141	
15	0	0	0	0	515	141	
0	0	0	0	0	515	142	
1	0	0	0	0	518	142	
2	0	0	0	0	519	142	
3	0	0	0	0	522	142	
4	0	0	0	0	525	141	
5	0	0	0	0	526	141	
6	0	0	0	0	528	141	
7	0	0	0	0	528	141	
8	0	0	0	0	527	142	
9	0	0	0	0	525	142	
10	0	0	0	0	522	142	
11	0	0	0	0	519	141	
12	0	0	0	0	515	141	
13	0	0	0	0	512	141	
14	0	0	0	0	511	142	
15	0	0	0	0	510	142	
0	0	0	0	0	511	142	
1	0	0	0	0	512	142	
2	0	0	0	0	514	141	
3	0	0	0	0	515	141	
4	0	0	0	0	518	141	
5	0	0	0	0	520	141	
6	0	0	0	0	523	141	
7	0	0	0	0	526	142	
8	0	0	0	0	526	142	
9	0	0	0	0	526	142	
10	0	0	0	0	525	142	
11	0	0	0	0	521	141	
12	0	0	0	0	517	141	
13	0	0	0	0	515	141	
14	0	0	0	0	512	142	
15	0	0	0	0	512	142	
0	0	0	0	0	511	142	
1	0	0	0	0	510	142	
2	0	0	0	0	510	142	
3	0	0	0	0	511	141	
4	0	0	0	0	514	141	
5	0	0	0	0	516	141	
6	0	0	0	0	519	142	
7	0	0	0	0	522	142	
8	0	0	0	0	523	142	
9	0	0	0	0	523	141	
10	0	0	0	0	522	141	
11	0	0	0	0	521	141	
12	0	0	0	0	519	141	
13	0	0	0	0	517	141	
14	0	0	0	0	515	141	
15	0	0	0	0	512	141	
0	0	0	0	0	512	142	
1	0	0	0	0	511	142	
2	0	0	0	0	511	142	
3	0	0	0	0	511	142	
4	0	0	0	0	512	142	
5	0	0	0	0	514	141	
6	0	0	0	0	517	141	
7	0	0	0	0	519	141	
8	0	0	0	0	522	142	
9	0	0	0	0	522	142	
10	0	0	0	0	521	142	
11	0	0	0	0	519	142	
12	0	0	0	0	516	141	
13	0	0	0	0	514	141	
14	0	0	0	0	511	141	
15	0	0	0	0	507	142	
0	0	0	0	0	504	142	
1	0	0	0	0	503	142	
2	0	0	0	0	502	141	
3	0	0	0	0	503	141	
4	0	0	0	0	505	141	
5	0	0	0	0	508	142	
6	0	0	0	0	511	142	
7	0	0	0	0	513	141	
8	0	0	0	0	514	141	
9	0	0	0	0	515	142	
10	0	0	0	0	515	142	
11	0	0	0	0	514	141	
12	0	0	0	0	513	141	
13	0	0	0	0	511	141	
14	0	0	0	0	508	141	
15	0	0	0	0	505	141	
0	0	0	0	0	503	142	
1	0	0	0	0	501	142	
2	0	0	0	0	500	141	
3	0	0	0	0	499	141	
4	0	0	0	0	499	141	
5	0	0	0	0	499	142	
6	0	0	0	0	501	142	
7	0	0	0	0	502	142	
8	0	0	0	0	505	141	
9	0	0	0	0	508	141	
10	0	0	0	0	509	141	
11	0	0	0	0	509	141	
12	0	0	0	0	508	142	
13	0	0	0	0	507	142	
14	0	0	0	0	505	142	
15	0	0	0	0	503	141	
0	0	0	0	0	502	141	
1	0	0	0	0	499	141	
2	0	0	0	0	497	141	
3	0	0	0	0	495	141	
4	0	0	0	0	494	141	
5	0	0	0	0	495	141	
6	0	0	0	0	497	142	
7	0	0	0	0	499	142	
8	0	0	0	0	502	141	
9	0	0	0	0	503	141	
10	0	0	0	0	504	141	
11	0	0	0	0	504	141	
12	0	0	0	0	503	142	
13	0	0	0	0	500	142	
14	0	0	0	0	496	141	
15	0	0	0	0	493	141	
0	0	0	0	0	490	142	
1	0	0	0	0	487	142	
2	0	0	0	0	483	141	
3	0	0	0	0	481	141	
4	0	0	0	0	481	141	
5	0	0	0	0	481	142	
6	0	0	0	0	482	142	
7	0	0	0	0	484	141	
8	0	0	0	0	486	141	
9	0	0	0	0	488	141	
10	0	0	0	0	490	142	
11	0	0	0	0	492	142	
12	0	0	0	0	492	141	
13	0	0	0	0	491	141	
14	0	0	0	0	488	141	
15	0	0	0	0	486	142	
0	0	0	0	0	483	142	
1	0	0	0	0	481	142	
2	0	0	0	0	478	142	
3	0	0	0	0	476	141	
4	0	0	0	0	475	141	
5	0	0	0	0	475	142	
6	0	0	0	0	476	142	
7	0	0	0	0	479	141	
8	0	0	0	0	482	141	
9	0	0	0	0	486	141	
10	0	0	0	0	489	142	
11	0	0	0	0	492	142	
12	0	0	0	0	494	141	
13	0	0	0	0	493	141	
14	0	0	0	0	490	141	
15	0	0	0	0	487	142	
0	0	0	0	0	486	142	
1	0	0	0	0	483	141	
2	0	0	0	0	481	141	
3	0	0	0	0	479	142	
4	0	0	0	0	478	142	
5	0	0	0	0	477	142	
6	0	0	0	0	477	141	
7	0	0	0	0	479	141	
8	0	0	0	0	481	142	
9	0	0	0	0	484	142	
10	0	0	0	0	488	141	
11	0	0	0	0	491	141	
12	0	0	0	0	494	141	
13	0	0	0	0	494	142	
14	0	0	0	0	494	142	
15	0	0	0	0	492	141	
0	0	0	0	0	489	141	
1	0	0	0	0	486	141	
2	0	0	0	0	482	142	
3	0	0	0	0	480	142	
4	0	0	0	0	478	142	
5	0	0	0	0	478	141	
6	0	0	0	0	478	141	
7	0	0	0	0	479	142	
8	0	0	0	0	479	142	
9	0	0	0	0	482	142	
10	0	0	0	0	485	141	
11	0	0	0	0	490	141	
12	0	0	0	0	494	142	
13	0	0	0	0	496	142	
14	0	0	0	0	497	142	
15	0	0	0	0	496	141	
0	0	0	0	0	494	141	
1	0	0	0	0	491	142	
2	0	0	0	0	487	142	
3	0	0	0	0	484	142	
4	0	0	0	0	481	141	
5	0	0	0	0	479	141	
6	0	0	0	0	479	141	
7	0	0	0	0	480	142	
8	0	0	0	0	483	142	
9	0	0	0	0	486	142	
10	0	0	0	0	490	141	
11	0	0	0	0	493	141	
12	0	0	0	0	496	142	
13	0	0	0	0	499	142	
14	0	0	0	0	500	141	
15	0	0	0	0	500	141	
0	0	0	0	0	497	141	
1	0	0	0	0	495	142	
2	0	0	0	0	492	142	
3	0	0	0	0	489	142	
4	0	0	0	0	486	141	
5	0	0	0	0	485	141	
6	0	0	0	0	484	141	
7	0	0	0	0	485	142	
8	0	0	0	0	487	142	
9	0	0	0	0	489	142	
10	0	0	0	0	492	141	
11	0	0	0	0	496	141	
12	0	0	0	0	499	142	
13	0	0	0	0	501	142	
14	0	0	0	0	504	142	
15	0	0	0	0	505	141	
0	0	0	0	0	504	141	
1	0	0	0	0	502	141	
2	0	0	0	0	499	141	
3	0	0	0	0	497	141	
4	0	0	0	0	494	142	
5	0	0	0	0	492	142	
6	0	0	0	0	490	142	
7	0	0	0	0	488	141	
8	0	0	0	0	487	141	
9	0	0	0	0	488	141	
10	0	0	0	0	490	142	
11	0	0	0	0	494	142	
12	0	0	0	0	498	141	
13	0	0	0	0	501	141	
14	0	0	0	0	503	142	
15	0	0	0	0	503	142	
0	0	0	0	0	504	141	
1	0	0	0	0	503	141	
2	0	0	0	0	502	141	
3	0	0	0	0	499	141	
4	0	0	0	0	497	142	
5	0	0	0	0	495	141	
6	0	0	0	0	492	141	
7	0	0	0	0	491	141	
8	0	0	0	0	490	142	
9	0	0	0	0	490	142	
10	0	0	0	0	492	141	
11	0	0	0	0	494	141	
12	0	0	0	0	497	141	
13	0	0	0	0	500	142	
14	0	0	0	0	503	142	
15	0	0	0	0	506	141	
0	0	0	0	0	508	141	
1	0	0	0	0	509	142	
2	0	0	0	0	508	142	
3	0	0	0	0	505	142	
4	0	0	0	0	502	142	
5	0	0	0	0	500	141	
6	0	0	0	0	498	141	
7	0	0	0	0	496	142	
8	0	0	0	0	495	142	
9	0	0	0	0	496	142	
10	0	0	0	0	498	141	
11	0	0	0	0	501	141	
12	0	0	0	0	502	141	
13	0	0	0	0	504	142	
14	0	0	0	0	507	141	
15	0	0	0	0	509	141	
0	0	0	0	0	511	141	
1	0	0	0	0	512	141	
2	0	0	0	0	512	142	
3	0	0	0	0	512	141	
4	0	0	0	0	511	141	
5	0	0	0	0	508	141	
6	0	0	0	0	505	142	
7	0	0	0	0	503	141	
8	0	0	0	0	502	142	
9	0	0	0	0	501	141	
10	0	0	0	0	501	141	
11	0	0	0	0	502	141	
12	0	0	0	0	505	142	
13	0	0	0	0	509	141	
14	0	0	0	0	513	141	
15	0	0	0	0	516	141	
0	0	0	0	0	517	141	
1	0	0	0	0	518	141	
2	0	0	0	0	519	142	
3	0	0	0	0	518	141	
4	0	0	0	0	515	140	
5	0	0	0	0	513	141	
6	0	0	0	0	510	141	
7	0	0	0	0	507	142	
8	0	0	0	0	504	142	
9	0	0	0	0	504	142	
10	0	0	0	0	504	141	
11	0	0	0	0	505	141	
12	0	0	0	0	507	142	
13	0	0	0	0	509	142	
14	0	0	0	0	511	142	
15	0	0	0	0	514	141	
0	0	0	0	0	517	141	
1	0	0	0	0	519	141	
2	0	0	0	0	520	142	
3	0	0	0	0	521	141	
4	0	0	0	0	521	141	
5	0	0	0	0	519	141	
6	0	0	0	0	516	141	
7	0	0	0	0	513	141	
8	0	0	0	0	511	142	
9	0	0	0	0	509	141	
10	0	0	0	0	507	141	
11	0	0	0	0	506	142	
12	0	0	0	0	506	142	
13	0	0	0	0	508	141	
14	0	0	0	0	509	141	
15	0	0	0	0	511	141	
0	0	0	0	0	512	141	
1	0	0	0	0	514	142	
2	0	0	0	0	515	141	
3	0	0	0	0	515	141	
4	0	0	0	0	513	141	
5	0	0	0	0	512	141	
6	0	0	0	0	508	141	
7	0	0	0	0	507	142	
8	0	0	0	0	504	141	
9	0	0	0	0	501	141	
10	0	0	0	0	499	142	
11	0	0	0	0	499	142	
12	0	0	0	0	501	141	
13	0	0	0	0	503	141	
14	0	0	0	0	504	141	
15	0	0	0	0	507	142	
0	0	0	0	0	510	141	
1	0	0	0	0	512	141	
2	0	0	0	0	515	141	
3	0	0	0	0	516	141	
4	0	0	0	0	519	142	
5	0	0	0	0	518	141	
6	0	0	0	0	518	141	
7	0	0	0	0	515	141	
8	0	0	0	0	514	141	
9	0	0	0	0	512	142	
10	0	0	0	0	509	142	
11	0	0	0	0	507	141	
12	0	0	0	0	506	141	
13	0	0	0	0	506	142	
14	0	0	0	0	507	142	
15	0	0	0	0	509	141	
0	0	0	0	0	512	141	
1	0	0	0	0	514	141	
2	0	0	0	0	515	141	
3	0	0	0	0	517	142	
4	0	0	0	0	518	140	
5	0	0	0	0	518	141	
6	0	0	0	0	516	141	
7	0	0	0	0	514	141	
8	0	0	0	0	510	141	
9	0	0	0	0	507	142	
10	0	0	0	0	503	142	
11	0	0	0	0	499	141	
12	0	0	0	0	497	141	
13	0	0	0	0	496	141	
14	0	0	0	0	496	141	
15	0	0	0	0	498	142	
0	0	0	0	0	500	142	
1	0	0	0	0	503	141	
2	0	0	0	0	504	141	
3	0	0	0	0	506	141	
4	0	0	0	0	508	141	
5	0	0	0	0	508	142	
6	0	0	0	0	507	142	
7	0	0	0	0	505	141	
8	0	0	0	0	503	141	
9	0	0	0	0	500	141	
10	0	0	0	0	498	141	
11	0	0	0	0	496	142	
12	0	0	0	0	494	142	
13	0	0	0	0	492	141	
14	0	0	0	0	491	141	
15	0	0	0	0	492	142	
0	0	0	0	0	496	142	
1	0	0	0	0	499	141	
2	0	0	0	0	502	141	
3	0	0	0	0	504	141	
4	0	0	0	0	505	141	
5	0	0	0	0	507	141	
6	0	0	0	0	507	142	
7	0	0	0	0	507	141	
8	0	0	0	0	504	141	
9	0	0	0	0	500	141	
10	0	0	0	0	496	142	
11	0	0	0	0	494	142	
12	0	0	0	0	492	141	
13	0	0	0	0	492	141	
14	0	0	0	0	492	141	
15	0	0	0	0	493	141	
0	0	0	0	0	495	141	
1	0	0	0	0	497	142	
2	0	0	0	0	500	141	
3	0	0	0	0	502	141	
4	0	0	0	0	505	142	
5	0	0	0	0	508	142	
6	0	0	0	0	509	142	
7	0	0	0	0	510	142	
8	0	0	0	0	508	141	
9	0	0	0	0	505	141	
10	0	0	0	0	503	141	
11	0	0	0	0	500	141	
12	0	0	0	0	499	142	
13	0	0	0	0	497	141	
14	0	0	0	0	496	141	
15	0	0	0	0	496	141	
0	0	0	0	0	497	141	
1	0	0	0	0	499	141	
2	0	0	0	0	501	142	
3	0	0	0	0	504	141	
4	0	0	0	0	508	141	
5	0	0	0	0	511	141	
6	0	0	0	0	512	141	
7	0	0	0	0	513	142	
8	0	0	0	0	512	142	
9	0	0	0	0	510	142	
10	0	0	0	0	508	141	
11	0	0	0	0	506	141	
12	0	0	0	0	502	141	
13	0	0	0	0	499	141	
14	0	0	0	0	498	142	
15	0	0	0	0	497	141	
0	0	0	0	0	498	141	
1	0	0	0	0	499	141	
2	0	0	0	0	501	141	
3	0	0	0	0	504	142	
4	0	0	0	0	507	141	
5	0	0	0	0	511	141	
6	0	0	0	0	514	141	
7	0	0	0	0	516	141	
8	0	0	0	0	516	141	
9	0	0	0	0	515	141	
10	0	0	0	0	512	141	
11	0	0	0	0	509	141	
12	0	0	0	0	506	141	
13	0	0	0	0	504	141	
14	0	0	0	0	502	142	
15	0	0	0	0	500	141	
0	0	0	0	0	500	141	
1	0	0	0	0	501	141	
2	0	0	0	0	503	141	
3	0	0	0	0	504	142	
4	0	0	0	0	507	141	
5	0	0	0	0	510	141	
6	0	0	0	0	512	141	
7	0	0	0	0	515	142	
8	0	0	0	0	515	142	
9	0	0	0	0	516	140	
10	0	0	0	0	515	141	
11	0	0	0	0	512	141	
12	0	0	0	0	511	141	
13	0	0	0	0	508	142	
14	0	0	0	0	507	141	
15	0	0	0	0	505	141	
0	0	0	0	0	503	141	
1	0	0	0	0	502	142	
2	0	0	0	0	504	141	
3	0	0	0	0	507	141	
4	0	0	0	0	510	141	
5	0	0	0	0	513	141	
6	0	0	0	0	516	141	
7	0	0	0	0	519	141	
8	0	0	0	0	520	142	
9	0	0	0	0	520	141	
10	0	0	0	0	519	140	
11	0	0	0	0	518	141	
12	0	0	0	0	518	141	
13	0	0	0	0	517	141	
14	0	0	0	0	515	141	
15	0	0	0	0	514	141	
0	0	0	0	0	513	141	
1	0	0	0	0	511	141	
2	0	0	0	0	511	141	
3	0	0	0	0	511	142	
4	0	0	0	0	512	141	
5	0	0	0	0	514	141	
6	0	0	0	0	514	141	
7	0	0	0	0	515	141	
8	0	0	0	0	514	141	
9	0	0	0	0	513	142	
10	0	0	0	0	512	141	
11	0	0	0	0	510	141	
12	0	0	0	0	508	141	
13	0	0	0	0	505	141	
14	0	0	0	0	502	141	
15	0	0	0	0	499	142	
0	0	0	0	0	497	141	
1	0	0	0	0	497	141	
2	0	0	0	0	497	141	
3	0	0	0	0	498	141	
4	0	0	0	0	500	141	
5	0	0	0	0	503	142	
6	0	0	0	0	506	141	
7	0	0	0	0	509	141	
8	0	0	0	0	511	141	
9	0	0	0	0	513	141	
10	0	0	0	0	513	141	
11	0	0	0	0	513	141	
12	0	0	0	0	511	141	
13	0	0	0	0	508	141	
14	0	0	0	0	505	141	
15	0	0	0	0	502	142	
0	0	0	0	0	500	142	
1	0	0	0	0	499	141	
2	0	0	0	0	499	141	
3	0	0	0	0	500	141	
4	0	0	0	0	500	141	
5	0	0	0	0	503	141	
6	0	0	0	0	505	141	
7	0	0	0	0	508	142	
8	0	0	0	0	511	141	
9	0	0	0	0	512	141	
10	0	0	0	0	515	141	
11	0	0	0	0	516	141	
12	0	0	0	0	516	142	
13	0	0	0	0	514	141	
14	0	0	0	0	511	141	
15	0	0	0	0	508	141	
0	0	0	0	0	504	141	
1	0	0	0	0	500	141	
2	0	0	0	0	498	142	
3	0	0	0	0	496	142	
4	0	0	0	0	496	141	
5	0	0	0	0	496	141	
6	0	0	0	0	498	141	
7	0	0	0	0	499	141	
8	0	0	0	0	502	142	
9	0	0	0	0	506	141	
10	0	0	0	0	509	141	
11	0	0	0	0	511	140	
12	0	0	0	0	511	141	
13	0	0	0	0	510	141	
14	0	0	0	0	509	141	
15	0	0	0	0	506	142	
0	0	0	0	0	504	141	
1	0	0	0	0	503	141	
2	0	0	0	0	503	141	
3	0	0	0	0	503	141	
4	0	0	0	0	504	141	
5	0	0	0	0	504	141	
6	0	0	0	0	505	141	
7	0	0	0	0	507	141	
8	0	0	0	0	509	141	
9	0	0	0	0	512	142	
10	0	0	0	0	515	140	
11	0	0	0	0	517	141	
12	0	0	0	0	519	141	
13	0	0	0	0	519	141	
14	0	0	0	0	517	141	
15	0	0	0	0	517	141	
0	0	0	0	0	514	141	
1	0	0	0	0	511	141	
2	0	0	0	0	508	141	
3	0	0	0	0	505	142	
4	0	0	0	0	503	141	
5	0	0	0	0	502	141	
6	0	0	0	0	502	141	
7	0	0	0	0	503	142	
8	0	0	0	0	504	141	
9	0	0	0	0	506	141	
10	0	0	0	0	509	141	
11	0	0	0	0	512	141	
12	0	0	0	0	514	142	
13	0	0	0	0	515	141	
14	0	0	0	0	515	141	
15	0	0	0	0	515	141	
0	0	0	0	0	513	141	
1	0	0	0	0	509	141	
2	0	0	0	0	507	142	
3	0	0	0	0	504	140	
4	0	0	0	0	503	141	
5	0	0	0	0	501	141	
6	0	0	0	0	502	141	
7	0	0	0	0	503	141	
8	0	0	0	0	505	141	
9	0	0	0	0	509	141	
10	0	0	0	0	512	141	
11	0	0	0	0	515	141	
12	0	0	0	0	518	142	
13	0	0	0	0	519	141	
14	0	0	0	0	519	141	
15	0	0	0	0	516	141	
0	0	0	0	0	513	141	
1	0	0	0	0	511	142	
2	0	0	0	0	508	141	
3	0	0	0	0	505	141	
4	0	0	0	0	502	141	
5	0	0	0	0	501	141	
6	0	0	0	0	500	141	
7	0	0	0	0	500	142	
8	0	0	0	0	501	142	
9	0	0	0	0	504	141	
10	0	0	0	0	507	141	
11	0	0	0	0	509	141	
12	0	0	0	0	511	141	
13	0	0	0	0	514	141	
14	0	0	0	0	514	141	
15	0	0	0	0	513	141	
0	0	0	0	0	511	141	
1	0	0	0	0	509	141	
2	0	0	0	0	506	141	
3	0	0	0	0	504	141	
4	0	0	0	0	501	141	
5	0	0	0	0	500	141	
6	0	0	0	0	499	141	
7	0	0	0	0	498	142	
8	0	0	0	0	498	141	
9	0	0	0	0	499	141	
10	0	0	0	0	500	141	
11	0	0	0	0	503	141	
12	0	0	0	0	504	141	
13	0	0	0	0	506	141	
14	0	0	0	0	507	141	
15	0	0	0	0	507	141	
0	0	0	0	0	507	142	
1	0	0	0	0	507	141	
2	0	0	0	0	505	141	
3	0	0	0	0	503	141	
4	0	0	0	0	500	141	
5	0	0	0	0	498	141	
6	0	0	0	0	498	142	
7	0	0	0	0	497	141	
8	0	0	0	0	497	142	
9	0	0	0	0	497	141	
10	0	0	0	0	500	141	
11	0	0	0	0	502	141	
12	0	0	0	0	505	141	
13	0	0	0	0	509	141	
14	0	0	0	0	511	141	
15	0	0	0	0	513	141	
0	0	0	0	0	514	141	
1	0	0	0	0	513	141	
2	0	0	0	0	512	141	
3	0	0	0	0	511	141	
4	0	0	0	0	509	142	
5	0	0	0	0	507	141	
6	0	0	0	0	505	141	
7	0	0	0	0	505	141	
8	0	0	0	0	505	140	
9	0	0	0	0	507	141	
10	0	0	0	0	510	141	
11	0	0	0	0	512	141	
12	0	0	0	0	516	141	
13	0	0	0	0	518	141	
14	0	0	0	0	520	141	
15	0	0	0	0	523	141	
0	0	0	0	0	524	141	
1	0	0	0	0	525	141	
2	0	0	0	0	525	141	
3	0	0	0	0	524	141	
4	0	0	0	0	523	141	
5	0	0	0	0	523	141	
6	0	0	0	0	524	141	
7	0	0	0	0	524	142	
8	0	0	0	0	526	141	
9	0	0	0	0	529	141	
10	0	0	0	0	533	140	
11	0	0	0	0	538	140	
12	0	0	0	0	543	140	
13	0	0	0	0	548	140	
14	0	0	0	0	553	140	
15	0	0	0	0	558	140	
0	0	0	0	0	563	141	
1	0	0	0	0	566	141	
2	0	0	0	0	566	141	
3	0	0	0	0	564	141	
4	0	0	0	0	560	142	
5	0	0	0	0	555	141	
6	0	0	0	0	548	141	
7	0	0	0	0	541	140	
8	0	0	0	0	534	141	
9	0	0	0	0	528	141	
10	0	0	0	0	523	141	
11	0	0	0	0	519	141	
12	0	0	0	0	516	141	
13	0	0	0	0	515	142	
14	0	0	0	0	516	142	
15	0	0	0	0	515	141	
0	0	0	0	0	513	142	
1	0	0	0	0	511	141	
2	0	0	0	0	507	141	
3	0	0	0	0	502	141	
4	0	0	0	0	497	141	
5	0	0	0	0	490	141	
6	0	0	0	0	485	142	
7	0	0	0	0	480	142	
8	0	0	0	0	476	142	
9	0	0	0	0	473	142	
10	0	0	0	0	470	141	
11	0	0	0	0	469	141	
12	0	0	0	0	468	141	
13	0	0	0	0	466	141	
14	0	0	0	0	464	141	
15	0	0	0	0	463	142	
0	0	0	0	0	464	142	
1	0	0	0	0	464	142	
2	0	0	0	0	465	142	
3	0	0	0	0	465	141	
4	0	0	0	0	466	141	
5	0	0	0	0	467	141	
6	0	0	0	0	465	141	
7	0	0	0	0	465	141	
8	0	0	0	0	466	142	
9	0	0	0	0	467	142	
10	0	0	0	0	468	141	
11	0	0	0	0	472	142	
12	0	0	0	0	474	142	
13	0	0	0	0	478	142	
14	0	0	0	0	483	142	
15	0	0	0	0	489	141	
0	0	0	0	0	494	141	
1	0	0	0	0	499	140	
2	0	0	0	0	504	140	
3	0	0	0	0	506	141	
4	0	0	0	0	507	140	
5	0	0	0	0	507	141	
6	0	0	0	0	506	140	
7	0	0	0	0	507	141	
8	0	0	0	0	506	141	
9	0	0	0	0	504	141	
10	0	0	0	0	503	141	
11	0	0	0	0	504	141	
12	0	0	0	0	505	141	
13	0	0	0	0	508	141	
14	0	0	0	0	510	141	
15	0	0	0	0	512	141	
0	0	0	0	0	516	141	
1	0	0	0	0	519	141	
2	0	0	0	0	521	141	
3	0	0	0	0	523	141	
4	0	0	0	0	524	141	
5	0	0	0	0	524	141	
6	0	0	0	0	522	141	
7	0	0	0	0	520	141	
8	0	0	0	0	519	141	
9	0	0	0	0	519	141	
10	0	0	0	0	517	141	
11	0	0	0	0	516	142	
12	0	0	0	0	516	142	
13	0	0	0	0	517	141	
14	0	0	0	0	518	141	
15	0	0	0	0	520	141	
0	0	0	0	0	524	140	
1	0	0	0	0	527	140	
2	0	0	0	0	531	140	
3	0	0	0	0	533	141	
4	0	0	0	0	533	140	
5	0	0	0	0	532	140	
6	0	0	0	0	530	141	
7	0	0	0	0	529	140	
8	0	0	0	0	527	140	
9	0	0	0	0	526	140	
10	0	0	0	0	525	141	
11	0	0	0	0	524	141	
12	0	0	0	0	523	141	
13	0	0	0	0	521	141	
14	0	0	0	0	521	141	
15	0	0	0	0	521	141	
0	0	0	0	0	523	141	
1	0	0	0	0	526	141	
2	0	0	0	0	528	141	
3	0	0	0	0	531	141	
4	0	0	0	0	531	141	
5	0	0	0	0	531	141	
6	0	0	0	0	529	141	
7	0	0	0	0	527	141	
8	0	0	0	0	524	141	
9	0	0	0	0	522	141	
10	0	0	0	0	519	142	
11	0	0	0	0	517	141	
12	0	0	0	0	515	140	
13	0	0	0	0	515	141	
14	0	0	0	0	516	141	
15	0	0	0	0	517	141	
0	0	0	0	0	517	141	
1	0	0	0	0	519	142	
2	0	0	0	0	521	141	
3	0	0	0	0	523	140	
4	0	0	0	0	526	140	
5	0	0	0	0	529	141	
6	0	0	0	0	528	141	
7	0	0	0	0	526	141	
8	0	0	0	0	526	141	
9	0	0	0	0	523	141	
10	0	0	0	0	520	141	
11	0	0	0	0	517	141	
12	0	0	0	0	514	141	
13	0	0	0	0	512	140	
14	0	0	0	0	510	141	
15	0	0	0	0	509	141	
0	0	0	0	0	510	141	
1	0	0	0	0	512	141	
2	0	0	0	0	515	141	
3	0	0	0	0	516	141	
4	0	0	0	0	518	142	
5	0	0	0	0	520	141	
6	0	0	0	0	521	140	
7	0	0	0	0	521	141	
8	0	0	0	0	519	141	
9	0	0	0	0	517	141	
10	0	0	0	0	515	141	
11	0	0	0	0	512	142	
12	0	0	0	0	509	141	
13	0	0	0	0	508	140	
14	0	0	0	0	507	141	
15	0	0	0	0	508	141	
0	0	0	0	0	508	141	
1	0	0	0	0	510	141	
2	0	0	0	0	511	141	
3	0	0	0	0	512	141	
4	0	0	0	0	515	141	
5	0	0	0	0	518	141	
6	0	0	0	0	519	141	
7	0	0	0	0	518	140	
8	0	0	0	0	515	140	
9	0	0	0	0	513	141	
10	0	0	0	0	511	141	
11	0	0	0	0	508	141	
12	0	0	0	0	505	141	
13	0	0	0	0	502	141	
14	0	0	0	0	500	141	
15	0	0	0	0	499	141	
0	0	0	0	0	500	141	
1	0	0	0	0	501	142	
2	0	0	0	0	503	141	
3	0	0	0	0	507	141	
4	0	0	0	0	509	140	
5	0	0	0	0	511	140	
6	0	0	0	0	512	141	
7	0	0	0	0	512	141	
8	0	0	0	0	511	141	
9	0	0	0	0	509	141	
10	0	0	0	0	509	142	
11	0	0	0	0	507	141	
12	0	0	0	0	505	141	
13	0	0	0	0	505	140	
14	0	0	0	0	503	141	
15	0	0	0	0	502	141	
0	0	0	0	0	502	141	
1	0	0	0	0	500	141	
2	0	0	0	0	502	141	
3	0	0	0	0	505	142	
4	0	0	0	0	508	141	
5	0	0	0	0	510	140	
6	0	0	0	0	512	140	
7	0	0	0	0	514	140	
8	0	0	0	0	515	140	
9	0	0	0	0	515	140	
10	0	0	0	0	515	141	
11	0	0	0	0	513	141	
12	0	0	0	0	510	141	
13	0	0	0	0	508	141	
14	0	0	0	0	507	141	
15	0	0	0	0	505	141	
0	0	0	0	0	505	141	
1	0	0	0	0	506	141	
2	0	0	0	0	508	141	
3	0	0	0	0	511	142	
4	0	0	0	0	515	140	
5	0	0	0	0	519	140	
6	0	0	0	0	522	141	
7	0	0	0	0	524	141	
8	0	0	0	0	526	142	
9	0	0	0	0	525	141	
10	0	0	0	0	524	140	
11	0	0	0	0	524	141	
12	0	0	0	0	524	141	
13	0	0	0	0	523	141	
14	0	0	0	0	522	141	
15	0	0	0	0	520	141	
0	0	0	0	0	519	141	
1	0	0	0	0	519	141	
2	0	0	0	0	519	141	
3	0	0	0	0	521	141	
4	0	0	0	0	524	141	
5	0	0	0	0	528	141	
6	0	0	0	0	532	142	
7	0	0	0	0	536	140	
8	0	0	0	0	538	141	
9	0	0	0	0	539	141	
10	0	0	0	0	537	141	
11	0	0	0	0	533	142	
12	0	0	0	0	531	140	
13	0	0	0	0	530	141	
14	0	0	0	0	528	141	
15	0	0	0	0	527	141	
0	0	0	0	0	527	141	
1	0	0	0	0	528	140	
2	0	0	0	0	528	140	
3	0	0	0	0	529	141	
4	0	0	0	0	532	141	
5	0	0	0	0	535	141	
6	0	0	0	0	537	141	
7	0	0	0	0	538	141	
8	0	0	0	0	537	141	
9	0	0	0	0	537	140	
10	0	0	0	0	537	140	
11	0	0	0	0	537	141	
12	0	0	0	0	535	141	
13	0	0	0	0	534	142	
14	0	0	0	0	530	141	
15	0	0	0	0	527	140	
0	0	0	0	0	526	140	
1	0	0	0	0	524	141	
2	0	0	0	0	521	141	
3	0	0	0	0	519	142	
4	0	0	0	0	519	141	
5	0	0	0	0	520	140	
6	0	0	0	0	521	141	
7	0	0	0	0	523	141	
8	0	0	0	0	525	142	
9	0	0	0	0	528	141	
10	0	0	0	0	530	140	
11	0	0	0	0	530	141	
12	0	0	0	0	529	141	
13	0	0	0	0	528	141	
14	0	0	0	0	527	141	
15	0	0	0	0	523	140	
0	0	0	0	0	518	140	
1	0	0	0	0	515	140	
2	0	0	0	0	512	141	
3	0	0	0	0	509	141	
4	0	0	0	0	510	142	
5	0	0	0	0	512	140	
6	0	0	0	0	516	141	
7	0	0	0	0	521	141	
8	0	0	0	0	525	141	
9	0	0	0	0	528	142	
10	0	0	0	0	529	141	
11	0	0	0	0	531	140	
12	0	0	0	0	530	141	
13	0	0	0	0	528	141	
14	0	0	0	0	527	141	
15	0	0	0	0	527	141	
0	0	0	0	0	526	140	
1	0	0	0	0	524	141	
2	0	0	0	0	522	141	
3	0	0	0	0	522	141	
4	0	0	0	0	523	142	
5	0	0	0	0	524	140	
6	0	0	0	0	525	141	
7	0	0	0	0	524	141	
8	0	0	0	0	524	141	
9	0	0	0	0	522	141	
10	0	0	0	0	521	141	
11	0	0	0	0	521	141	
12	0	0	0	0	521	141	
13	0	0	0	0	522	141	
14	0	0	0	0	520	141	
15	0	0	0	0	519	141	
0	0	0	0	0	517	141	
1	0	0	0	0	515	142	
2	0	0	0	0	515	141	
3	0	0	0	0	515	140	
4	0	0	0	0	515	141	
5	0	0	0	0	515	141	
6	0	0	0	0	514	141	
7	0	0	0	0	514	140	
8	0	0	0	0	515	140	
9	0	0	0	0	516	141	
10	0	0	0	0	516	141	
11	0	0	0	0	516	141	
12	0	0	0	0	517	140	
13	0	0	0	0	516	141	
14	0	0	0	0	515	141	
15	0	0	0	0	514	141	
0	0	0	0	0	511	141	
1	0	0	0	0	507	140	
2	0	0	0	0	502	141	
3	0	0	0	0	499	141	
4	0	0	0	0	497	142	
5	0	0	0	0	497	141	
6	0	0	0	0	498	141	
7	0	0	0	0	499	141	
8	0	0	0	0	500	141	
9	0	0	0	0	502	142	
10	0	0	0	0	503	141	
11	0	0	0	0	504	141	
12	0	0	0	0	504	141	
13	0	0	0	0	504	141	
14	0	0	0	0	503	142	
15	0	0	0	0	500	141	
0	0	0	0	0	497	141	
1	0	0	0	0	495	141	
2	0	0	0	0	494	141	
3	0	0	0	0	493	142	
4	0	0	0	0	491	141	
5	0	0	0	0	489	141	
6	0	0	0	0	487	141	
7	0	0	0	0	485	141	
8	0	0	0	0	483	142	
9	0	0	0	0	483	141	
10	0	0	0	0	484	141	
11	0	0	0	0	487	141	
12	0	0	0	0	489	141	
13	0	0	0	0	491	142	
14	0	0	0	0	492	141	
15	0	0	0	0	494	141	
0	0	0	0	0	493	141	
1	0	0	0	0	489	141	
2	0	0	0	0	486	141	
3	0	0	0	0	482	142	
4	0	0	0	0	480	141	
5	0	0	0	0	479	141	
6	0	0	0	0	477	141	
7	0	0	0	0	476	141	
8	0	0	0	0	475	141	
9	0	0	0	0	475	142	
10	0	0	0	0	476	141	
11	0	0	0	0	478	141	
12	0	0	0	0	482	141	
13	0	0	0	0	485	141	
14	0	0	0	0	487	141	
15	0	0	0	0	487	141	
0	0	0	0	0	486	141	
1	0	0	0	0	486	141	
2	0	0	0	0	484	141	
3	0	0	0	0	481	141	
4	0	0	0	0	478	141	
5	0	0	0	0	476	141	
6	0	0	0	0	475	141	
7	0	0	0	0	475	142	
8	0	0	0	0	477	142	
9	0	0	0	0	480	141	
10	0	0	0	0	483	141	
11	0	0	0	0	488	141	
12	0	0	0	0	491	141	
13	0	0	0	0	494	141	
14	0	0	0	0	495	141	
15	0	0	0	0	495	141	
0	0	0	0	0	495	141	
1	0	0	0	0	494	141	
2	0	0	0	0	492	141	
3	0	0	0	0	491	142	
4	0	0	0	0	488	141	
5	0	0	0	0	487	141	
6	0	0	0	0	487	141	
7	0	0	0	0	486	141	
8	0	0	0	0	485	141	
9	0	0	0	0	486	141	
10	0	0	0	0	488	141	
11	0	0	0	0	490	141	
12	0	0	0	0	492	141	
13	0	0	0	0	495	141	
14	0	0	0	0	497	141	
15	0	0	0	0	498	140	
0	0	0	0	0	498	141	
1	0	0	0	0	498	141	
2	0	0	0	0	497	141	
3	0	0	0	0	495	142	
4	0	0	0	0	493	141	
5	0	0	0	0	492	141	
6	0	0	0	0	489	141	
7	0	0	0	0	485	141	
8	0	0	0	0	485	141	
9	0	0	0	0	485	141	
10	0	0	0	0	487	141	
11	0	0	0	0	489	142	
12	0	0	0	0	492	141	
13	0	0	0	0	495	141	
14	0	0	0	0	498	141	
15	0	0	0	0	500	141	
0	0	0	0	0	503	141	
1	0	0	0	0	504	141	
2	0	0	0	0	503	141	
3	0	0	0	0	500	141	
4	0	0	0	0	498	142	
5	0	0	0	0	495	141	
6	0	0	0	0	491	141	
7	0	0	0	0	489	141	
8	0	0	0	0	488	141	
9	0	0	0	0	487	142	
10	0	0	0	0	486	141	
11	0	0	0	0	487	141	
12	0	0	0	0	489	141	
13	0	0	0	0	493	141	
14	0	0	0	0	495	141	
15	0	0	0	0	499	141	
0	0	0	0	0	502	142	
1	0	0	0	0	503	141	
2	0	0	0	0	502	141	
3	0	0	0	0	499	141	
4	0	0	0	0	497	141	
5	0	0	0	0	494	141	
6	0	0	0	0	492	141	
7	0	0	0	0	489	141	
8	0	0	0	0	487	141	
9	0	0	0	0	486	141	
10	0	0	0	0	486	141	
11	0	0	0	0	488	142	
12	0	0	0	0	491	141	
13	0	0	0	0	494	141	
14	0	0	0	0	498	142	
15	0	0	0	0	503	142	
0	0	0	0	0	506	140	
1	0	0	0	0	509	141	
2	0	0	0	0	511	141	
3	0	0	0	0	512	141	
4	0	0	0	0	512	141	
5	0	0	0	0	511	140	
6	0	0	0	0	509	141	
7	0	0	0	0	507	141	
8	0	0	0	0	505	141	
9	0	0	0	0	503	141	
10	0	0	0	0	503	141	
11	0	0	0	0	503	141	
12	0	0	0	0	504	141	
13	0	0	0	0	506	141	
14	0	0	0	0	509	141	
15	0	0	0	0	513	141	
0	0	0	0	0	518	141	
1	0	0	0	0	523	141	
2	0	0	0	0	526	141	
3	0	0	0	0	527	141	
4	0	0	0	0	526	140	
5	0	0	0	0	524	141	
6	0	0	0	0	521	141	
7	0	0	0	0	519	141	
8	0	0	0	0	517	141	
9	0	0	0	0	515	141	
10	0	0	0	0	512	142	
11	0	0	0	0	510	140	
12	0	0	0	0	510	141	
13	0	0	0	0	512	141	
14	0	0	0	0	514	141	
15	0	0	0	0	518	141	
0	0	0	0	0	519	141	
1	0	0	0	0	522	141	
2	0	0	0	0	524	141	
3	0	0	0	0	526	140	
4	0	0	0	0	527	140	
5	0	0	0	0	527	141	
6	0	0	0	0	525	141	
7	0	0	0	0	523	141	
8	0	0	0	0	519	141	
9	0	0	0	0	516	140	
10	0	0	0	0	513	141	
11	0	0	0	0	511	141	
12	0	0	0	0	510	142	
13	0	0	0	0	510	140	
14	0	0	0	0	511	141	
15	0	0	0	0	511	141	
0	0	0	0	0	514	141	
1	0	0	0	0	516	141	
2	0	0	0	0	518	141	
3	0	0	0	0	519	141	
4	0	0	0	0	520	140	
5	0	0	0	0	520	141	
6	0	0	0	0	519	141	
7	0	0	0	0	518	141	
8	0	0	0	0	515	140	
9	0	0	0	0	514	141	
10	0	0	0	0	511	141	
11	0	0	0	0	511	141	
12	0	0	0	0	509	141	
13	0	0	0	0	508	141	
14	0	0	0	0	508	141	
15	0	0	0	0	509	141	
0	0	0	0	0	510	141	
1	0	0	0	0	513	141	
2	0	0	0	0	516	141	
3	0	0	0	0	519	140	
4	0	0	0	0	521	141	
5	0	0	0	0	521	141	
6	0	0	0	0	520	141	
7	0	0	0	0	518	141	
8	0	0	0	0	515	141	
9	0	0	0	0	513	140	
10	0	0	0	0	511	141	
11	0	0	0	0	509	141	
12	0	0	0	0	507	141	
13	0	0	0	0	506	142	
14	0	0	0	0	507	142	
15	0	0	0	0	508	140	
0	0	0	0	0	510	141	
1	0	0	0	0	512	141	
2	0	0	0	0	514	141	
3	0	0	0	0	517	141	
4	0	0	0	0	518	140	
5	0	0	0	0	518	140	
6	0	0	0	0	518	141	
7	0	0	0	0	517	141	
8	0	0	0	0	515	142	
9	0	0	0	0	513	140	
10	0	0	0	0	511	140	
11	0	0	0	0	509	140	
12	0	0	0	0	508	141	
13	0	0	0	0	508	141	
14	0	0	0	0	510	141	
15	0	0	0	0	510	141	
0	0	0	0	0	512	140	
1	0	0	0	0	514	141	
2	0	0	0	0	519	141	
3	0	0	0	0	521	141	
4	0	0	0	0	524	140	
5	0	0	0	0	526	141	
6	0	0	0	0	528	141	
7	0	0	0	0	529	141	
8	0	0	0	0	528	140	
9	0	0	0	0	528	141	
10	0	0	0	0	527	141	
11	0	0	0	0	525	141	
12	0	0	0	0	523	141	
13	0	0	0	0	521	140	
14	0	0	0	0	519	141	
15	0	0	0	0	519	141	
0	0	0	0	0	519	141	
1	0	0	0	0	519	141	
2	0	0	0	0	521	140	
3	0	0	0	0	523	141	
4	0	0	0	0	526	141	
5	0	0	0	0	528	141	
6	0	0	0	0	530	141	
7	0	0	0	0	530	141	
8	0	0	0	0	528	140	
9	0	0	0	0	526	141	
10	0	0	0	0	522	141	
11	0	0	0	0	519	141	
12	0	0	0	0	515	140	
13	0	0	0	0	512	140	
14	0	0	0	0	509	141	
15	0	0	0	0	507	141	
0	0	0	0	0	507	141	
1	0	0	0	0	507	140	
2	0	0	0	0	508	141	
3	0	0	0	0	511	141	
4	0	0	0	0	514	141	
5	0	0	0	0	517	141	
6	0	0	0	0	518	140	
7	0	0	0	0	519	141	
8	0	0	0	0	519	141	
9	0	0	0	0	516	141	
10	0	0	0	0	514	141	
11	0	0	0	0	512	140	
12	0	0	0	0	508	141	
13	0	0	0	0	504	141	
14	0	0	0	0	501	141	
15	0	0	0	0	498	141	
0	0	0	0	0	497	141	
1	0	0	0	0	498	141	
2	0	0	0	0	500	141	
3	0	0	0	0	502	141	
4	0	0	0	0	505	141	
5	0	0	0	0	507	141	
6	0	0	0	0	509	140	
7	0	0	0	0	510	141	
8	0	0	0	0	509	141	
9	0	0	0	0	508	141	
10	0	0	0	0	507	141	
11	0	0	0	0	504	141	
12	0	0	0	0	503	141	
13	0	0	0	0	500	141	
14	0	0	0	0	499	141	
15	0	0	0	0	497	141	
0	0	0	0	0	496	141	
1	0	0	0	0	496	140	
2	0	0	0	0	496	141	
3	0	0	0	0	497	141	
4	0	0	0	0	500	142	
5	0	0	0	0	504	140	
6	0	0	0	0	506	141	
7	0	0	0	0	507	141	
8	0	0	0	0	509	141	
9	0	0	0	0	510	141	
10	0	0	0	0	510	140	
11	0	0	0	0	509	141	
12	0	0	0	0	507	141	
13	0	0	0	0	505	141	
14	0	0	0	0	503	141	
15	0	0	0	0	502	141	
0	0	0	0	0	501	141	
1	0	0	0	0	500	141	
2	0	0	0	0	502	142	
3	0	0	0	0	503	140	
4	0	0	0	0	505	141	
5	0	0	0	0	510	141	
6	0	0	0	0	513	141	
7	0	0	0	0	518	141	
8	0	0	0	0	521	140	
9	0	0	0	0	524	141	
10	0	0	0	0	527	141	
11	0	0	0	0	526	141	
12	0	0	0	0	525	140	
13	0	0	0	0	524	140	
14	0	0	0	0	521	141	
15	0	0	0	0	520	141	
0	0	0	0	0	518	141	
1	0	0	0	0	515	140	
2	0	0	0	0	515	140	
3	0	0	0	0	515	141	
4	0	0	0	0	516	141	
5	0	0	0	0	517	141	
6	0	0	0	0	519	140	
7	0	0	0	0	522	140	
8	0	0	0	0	524	141	
9	0	0	0	0	526	141	
10	0	0	0	0	525	141	
11	0	0	0	0	524	141	
12	0	0	0	0	520	140	
13	0	0	0	0	517	140	
14	0	0	0	0	513	141	
15	0	0	0	0	510	141	
0	0	0	0	0	505	141	
1	0	0	0	0	503	140	
2	0	0	0	0	501	141	
3	0	0	0	0	500	141	
4	0	0	0	0	501	141	
5	0	0	0	0	503	141	
6	0	0	0	0	506	141	
7	0	0	0	0	511	141	
8	0	0	0	0	513	141	
9	0	0	0	0	516	141	
10	0	0	0	0	518	140	
11	0	0	0	0	517	141	
12	0	0	0	0	515	141	
13	0	0	0	0	512	141	
14	0	0	0	0	510	142	
15	0	0	0	0	507	140	
0	0	0	0	0	504	141	
1	0	0	0	0	502	141	
2	0	0	0	0	499	141	
3	0	0	0	0	498	141	
4	0	0	0	0	499	141	
5	0	0	0	0	499	140	
6	0	0	0	0	502	141	
7	0	0	0	0	504	141	
8	0	0	0	0	506	141	
9	0	0	0	0	509	141	
10	0	0	0	0	511	141	
11	0	0	0	0	512	140	
12	0	0	0	0	512	141	
13	0	0	0	0	511	141	
14	0	0	0	0	509	141	
15	0	0	0	0	506	141	
0	0	0	0	0	502	140	
1	0	0	0	0	499	141	
2	0	0	0	0	497	141	
3	0	0	0	0	496	141	
4	0	0	0	0	495	141	
5	0	0	0	0	495	142	
6	0	0	0	0	498	142	
7	0	0	0	0	499	141	
8	0	0	0	0	503	140	
9	0	0	0	0	504	141	
10	0	0	0	0	506	141	
11	0	0	0	0	508	141	
12	0	0	0	0	508	141	
13	0	0	0	0	508	142	
14	0	0	0	0	507	140	
15	0	0	0	0	505	141	
0	0	0	0	0	503	141	
1	0	0	0	0	499	141	
2	0	0	0	0	497	141	
3	0	0	0	0	496	141	
4	0	0	0	0	495	140	
5	0	0	0	0	496	141	
6	0	0	0	0	497	141	
7	0	0	0	0	497	141	
8	0	0	0	0	499	141	
9	0	0	0	0	504	140	
10	0	0	0	0	508	141	
11	0	0	0	0	510	141	
12	0	0	0	0	511	141	
13	0	0	0	0	512	140	
14	0	0	0	0	512	141	
15	0	0	0	0	511	141	
0	0	0	0	0	509	141	
1	0	0	0	0	507	141	
2	0	0	0	0	504	142	
3	0	0	0	0	503	140	
4	0	0	0	0	501	141	
5	0	0	0	0	501	141	
6	0	0	0	0	501	141	
7	0	0	0	0	502	142	
8	0	0	0	0	506	140	
9	0	0	0	0	510	141	
10	0	0	0	0	514	141	
11	0	0	0	0	518	141	
12	0	0	0	0	520	141	
13	0	0	0	0	522	140	
14	0	0	0	0	523	141	
15	0	0	0	0	521	141	
0	0	0	0	0	520	142	
1	0	0	0	0	518	140	
2	0	0	0	0	516	140	
3	0	0	0	0	513	141	
4	0	0	0	0	511	141	
5	0	0	0	0	509	141	
6	0	0	0	0	510	140	
7	0	0	0	0	511	140	
8	0	0	0	0	513	141	
9	0	0	0	0	516	141	
10	0	0	0	0	519	141	
11	0	0	0	0	524	140	
12	0	0	0	0	527	140	
13	0	0	0	0	528	141	
14	0	0	0	0	529	141	
15	0	0	0	0	529	141	
0	0	0	0	0	527	140	
1	0	0	0	0	525	140	
2	0	0	0	0	523	141	
3	0	0	0	0	520	141	
4	0	0	0	0	518	141	
5	0	0	0	0	516	140	
6	0	0	0	0	516	140	
7	0	0	0	0	516	141	
8	0	0	0	0	516	141	
9	0	0	0	0	519	141	
10	0	0	0	0	523	140	
11	0	0	0	0	525	141	
12	0	0	0	0	527	141	
13	0	0	0	0	528	141	
14	0	0	0	0	530	141	
15	0	0	0	0	530	140	
0	0	0	0	0	529	141	
1	0	0	0	0	528	141	
2	0	0	0	0	526	141	
3	0	0	0	0	524	140	
4	0	0	0	0	523	140	
5	0	0	0	0	521	141	
6	0	0	0	0	520	141	
7	0	0	0	0	519	141	
8	0	0	0	0	521	141	
9	0	0	0	0	523	140	
10	0	0	0	0	525	141	
11	0	0	0	0	528	141	
12	0	0	0	0	531	141	
13	0	0	0	0	535	141	
14	0	0	0	0	536	140	
15	0	0	0	0	536	141	
0	0	0	0	0	536	141	
1	0	0	0	0	535	141	
2	0	0	0	0	532	140	
3	0	0	0	0	529	141	
4	0	0	0	0	525	141	
5	0	0	0	0	523	141	
6	0	0	0	0	520	141	
7	0	0	0	0	518	140	
8	0	0	0	0	518	141	
9	0	0	0	0	519	141	
10	0	0	0	0	520	141	
11	0	0	0	0	524	141	
12	0	0	0	0	527	140	
13	0	0	0	0	531	141	
14	0	0	0	0	533	141	
15	0	0	0	0	535	142	
0	0	0	0	0	535	140	
1	0	0	0	0	535	140	
2	0	0	0	0	535	141	
3	0	0	0	0	535	141	
4	0	0	0	0	535	140	
5	0	0	0	0	532	140	
6	0	0	0	0	529	141	
7	0	0	0	0	526	141	
8	0	0	0	0	523	141	
9	0	0	0	0	522	141	
10	0	0	0	0	520	140	
11	0	0	0	0	519	140	
12	0	0	0	0	519	141	
13	0	0	0	0	520	141	
14	0	0	0	0	523	141	
15	0	0	0	0	525	141	
0	0	0	0	0	527	140	
1	0	0	0	0	527	141	
2	0	0	0	0	526	141	
