# OpenSignals Text File Format. Version 1
# {"98:D3:B1:FD:3D:90": {"position": 0, "device": "bitalino_rev", "device name": "98:D3:B1:FD:3D:90", "device connection": "/dev/tty.BITalino-DevB", "sampling rate": 1000, "resolution": [4, 1, 1, 1, 1, 10, 10], "firmware version": 1281, "comments": "", "keywords": "", "mode": 0, "sync interval": 2, "date": "2022-4-10", "time": "22:37:51.318", "channels": [2, 3], "sensor": ["ECGBIT", "EDABITREV"], "label": ["A2", "A3"], "column": ["nSeq", "I1", "I2", "O1", "O2", "A2", "A3"], "special": [{}, {}], "digital IO": [0, 0, 1, 1]}}
# EndOfHeader
0	0	0	0	0	511	128	
1	0	0	0	0	510	129	
2	0	0	0	0	507	128	
3	0	0	0	0	503	129	
4	0	0	0	0	500	128	
5	0	0	0	0	495	129	
6	0	0	0	0	491	128	
7	0	0	0	0	488	128	
8	0	0	0	0	490	129	
9	0	0	0	0	493	128	
10	0	0	0	0	493	129	
11	0	0	0	0	495	129	
12	0	0	0	0	496	128	
13	0	0	0	0	498	129	
14	0	0	0	0	501	128	
15	0	0	0	0	503	129	
0	0	0	0	0	505	129	
1	0	0	0	0	505	128	
2	0	0	0	0	504	129	
3	0	0	0	0	502	129	
4	0	0	0	0	498	128	
5	0	0	0	0	494	129	
6	0	0	0	0	492	129	
7	0	0	0	0	490	128	
8	0	0	0	0	489	129	
9	0	0	0	0	488	128	
10	0	0	0	0	488	129	
11	0	0	0	0	489	129	
12	0	0	0	0	492	128	
13	0	0	0	0	496	129	
14	0	0	0	0	499	129	
15	0	0	0	0	503	128	
0	0	0	0	0	503	129	
1	0	0	0	0	502	129	
2	0	0	0	0	501	128	
3	0	0	0	0	499	129	
4	0	0	0	0	495	129	
5	0	0	0	0	491	128	
6	0	0	0	0	489	129	
7	0	0	0	0	487	129	
8	0	0	0	0	486	128	
9	0	0	0	0	484	129	
10	0	0	0	0	485	129	
11	0	0	0	0	487	128	
12	0	0	0	0	488	129	
13	0	0	0	0	490	129	
14	0	0	0	0	494	128	
15	0	0	0	0	497	129	
0	0	0	0	0	500	129	
1	0	0	0	0	501	128	
2	0	0	0	0	500	129	
3	0	0	0	0	500	129	
4	0	0	0	0	499	128	
5	0	0	0	0	496	129	
6	0	0	0	0	491	129	
7	0	0	0	0	488	128	
8	0	0	0	0	487	129	
9	0	0	0	0	484	129	
10	0	0	0	0	484	128	
11	0	0	0	0	485	129	
12	0	0	0	0	485	128	
13	0	0	0	0	487	128	
14	0	0	0	0	492	129	
15	0	0	0	0	494	128	
0	0	0	0	0	496	128	
1	0	0	0	0	499	129	
2	0	0	0	0	502	128	
3	0	0	0	0	504	129	
4	0	0	0	0	503	128	
5	0	0	0	0	501	129	
6	0	0	0	0	499	129	
7	0	0	0	0	497	128	
8	0	0	0	0	494	128	
9	0	0	0	0	491	129	
10	0	0	0	0	487	128	
11	0	0	0	0	487	129	
12	0	0	0	0	489	129	
13	0	0	0	0	493	128	
14	0	0	0	0	497	129	
15	0	0	0	0	499	128	
0	0	0	0	0	502	129	
1	0	0	0	0	504	129	
2	0	0	0	0	504	128	
3	0	0	0	0	505	129	
4	0	0	0	0	507	129	
5	0	0	0	0	506	128	
6	0	0	0	0	504	129	
7	0	0	0	0	503	129	
8	0	0	0	0	502	128	
9	0	0	0	0	499	128	
10	0	0	0	0	498	129	
11	0	0	0	0	496	128	
12	0	0	0	0	497	128	
13	0	0	0	0	500	129	
14	0	0	0	0	502	129	
15	0	0	0	0	505	128	
0	0	0	0	0	509	129	
1	0	0	0	0	513	128	
2	0	0	0	0	518	128	
3	0	0	0	0	519	129	
4	0	0	0	0	520	128	
5	0	0	0	0	519	129	
6	0	0	0	0	516	129	
7	0	0	0	0	513	128	
8	0	0	0	0	509	129	
9	0	0	0	0	506	129	
10	0	0	0	0	504	128	
11	0	0	0	0	503	129	
12	0	0	0	0	502	128	
13	0	0	0	0	504	129	
14	0	0	0	0	508	129	
15	0	0	0	0	513	128	
0	0	0	0	0	518	129	
1	0	0	0	0	522	129	
2	0	0	0	0	527	128	
3	0	0	0	0	529	129	
4	0	0	0	0	530	128	
5	0	0	0	0	529	128	
6	0	0	0	0	527	129	
7	0	0	0	0	522	128	
8	0	0	0	0	516	128	
9	0	0	0	0	514	129	
10	0	0	0	0	511	128	
11	0	0	0	0	508	129	
12	0	0	0	0	506	128	
13	0	0	0	0	505	128	
14	0	0	0	0	506	129	
15	0	0	0	0	507	128	
0	0	0	0	0	508	129	
1	0	0	0	0	511	129	
2	0	0	0	0	515	128	
3	0	0	0	0	518	129	
4	0	0	0	0	521	129	
5	0	0	0	0	522	128	
6	0	0	0	0	524	129	
7	0	0	0	0	524	128	
8	0	0	0	0	524	128	
9	0	0	0	0	521	129	
10	0	0	0	0	519	128	
11	0	0	0	0	514	128	
12	0	0	0	0	511	129	
13	0	0	0	0	510	128	
14	0	0	0	0	511	128	
15	0	0	0	0	513	129	
0	0	0	0	0	518	128	
1	0	0	0	0	521	128	
2	0	0	0	0	527	129	
3	0	0	0	0	532	128	
4	0	0	0	0	533	128	
5	0	0	0	0	534	129	
6	0	0	0	0	534	128	
7	0	0	0	0	532	128	
8	0	0	0	0	529	129	
9	0	0	0	0	527	128	
10	0	0	0	0	524	128	
11	0	0	0	0	523	129	
12	0	0	0	0	521	128	
13	0	0	0	0	519	127	
14	0	0	0	0	518	129	
15	0	0	0	0	519	128	
0	0	0	0	0	520	128	
1	0	0	0	0	522	129	
2	0	0	0	0	524	128	
3	0	0	0	0	527	128	
4	0	0	0	0	530	129	
5	0	0	0	0	534	128	
6	0	0	0	0	537	127	
7	0	0	0	0	539	129	
8	0	0	0	0	537	128	
9	0	0	0	0	534	128	
10	0	0	0	0	529	129	
11	0	0	0	0	527	128	
12	0	0	0	0	524	129	
13	0	0	0	0	523	128	
14	0	0	0	0	522	127	
15	0	0	0	0	524	129	
0	0	0	0	0	525	128	
1	0	0	0	0	527	127	
2	0	0	0	0	528	129	
3	0	0	0	0	530	129	
4	0	0	0	0	531	128	
5	0	0	0	0	533	129	
6	0	0	0	0	534	129	
7	0	0	0	0	535	128	
8	0	0	0	0	535	128	
9	0	0	0	0	533	129	
10	0	0	0	0	531	128	
11	0	0	0	0	529	128	
12	0	0	0	0	527	129	
13	0	0	0	0	524	129	
14	0	0	0	0	522	128	
15	0	0	0	0	523	128	
0	0	0	0	0	525	129	
1	0	0	0	0	527	128	
2	0	0	0	0	528	128	
3	0	0	0	0	530	129	
4	0	0	0	0	534	128	
5	0	0	0	0	536	128	
6	0	0	0	0	538	129	
7	0	0	0	0	540	128	
8	0	0	0	0	540	128	
9	0	0	0	0	539	129	
10	0	0	0	0	536	128	
11	0	0	0	0	535	128	
12	0	0	0	0	535	129	
13	0	0	0	0	532	128	
14	0	0	0	0	530	127	
15	0	0	0	0	527	129	
0	0	0	0	0	526	128	
1	0	0	0	0	524	128	
2	0	0	0	0	525	129	
3	0	0	0	0	525	128	
4	0	0	0	0	527	128	
5	0	0	0	0	529	129	
6	0	0	0	0	531	128	
7	0	0	0	0	531	129	
8	0	0	0	0	529	128	
9	0	0	0	0	529	128	
10	0	0	0	0	528	129	
11	0	0	0	0	526	129	
12	0	0	0	0	525	128	
13	0	0	0	0	525	129	
14	0	0	0	0	524	129	
15	0	0	0	0	521	128	
0	0	0	0	0	519	129	
1	0	0	0	0	519	129	
2	0	0	0	0	521	128	
3	0	0	0	0	523	129	
4	0	0	0	0	525	129	
5	0	0	0	0	528	128	
6	0	0	0	0	531	128	
7	0	0	0	0	534	128	
8	0	0	0	0	536	128	
9	0	0	0	0	536	129	
10	0	0	0	0	535	128	
11	0	0	0	0	532	127	
12	0	0	0	0	531	129	
13	0	0	0	0	529	129	
14	0	0	0	0	527	128	
15	0	0	0	0	523	129	
0	0	0	0	0	521	129	
1	0	0	0	0	521	128	
2	0	0	0	0	520	129	
3	0	0	0	0	522	128	
4	0	0	0	0	522	128	
5	0	0	0	0	523	129	
6	0	0	0	0	524	128	
7	0	0	0	0	526	128	
8	0	0	0	0	528	129	
9	0	0	0	0	530	128	
10	0	0	0	0	531	128	
11	0	0	0	0	531	129	
12	0	0	0	0	528	128	
13	0	0	0	0	523	127	
14	0	0	0	0	518	129	
15	0	0	0	0	513	128	
0	0	0	0	0	512	128	
1	0	0	0	0	510	129	
2	0	0	0	0	509	128	
3	0	0	0	0	510	128	
4	0	0	0	0	512	129	
5	0	0	0	0	517	129	
6	0	0	0	0	522	128	
7	0	0	0	0	527	129	
8	0	0	0	0	531	129	
9	0	0	0	0	535	127	
10	0	0	0	0	535	129	
11	0	0	0	0	534	128	
12	0	0	0	0	532	128	
13	0	0	0	0	531	129	
14	0	0	0	0	528	129	
15	0	0	0	0	524	127	
0	0	0	0	0	520	129	
1	0	0	0	0	517	129	
2	0	0	0	0	514	128	
3	0	0	0	0	513	128	
4	0	0	0	0	513	129	
5	0	0	0	0	515	128	
6	0	0	0	0	517	128	
7	0	0	0	0	521	129	
8	0	0	0	0	525	128	
9	0	0	0	0	529	127	
10	0	0	0	0	532	129	
11	0	0	0	0	532	128	
12	0	0	0	0	533	128	
13	0	0	0	0	532	129	
14	0	0	0	0	529	128	
15	0	0	0	0	524	128	
0	0	0	0	0	519	129	
1	0	0	0	0	515	128	
2	0	0	0	0	513	128	
3	0	0	0	0	510	129	
4	0	0	0	0	510	129	
5	0	0	0	0	511	128	
6	0	0	0	0	513	128	
7	0	0	0	0	515	129	
8	0	0	0	0	518	128	
9	0	0	0	0	522	128	
10	0	0	0	0	524	129	
11	0	0	0	0	524	128	
12	0	0	0	0	524	128	
13	0	0	0	0	524	129	
14	0	0	0	0	521	128	
15	0	0	0	0	517	128	
0	0	0	0	0	513	129	
1	0	0	0	0	511	128	
2	0	0	0	0	510	129	
3	0	0	0	0	511	129	
4	0	0	0	0	511	128	
5	0	0	0	0	511	129	
6	0	0	0	0	510	129	
7	0	0	0	0	511	128	
8	0	0	0	0	511	129	
9	0	0	0	0	516	128	
10	0	0	0	0	521	129	
11	0	0	0	0	525	129	
12	0	0	0	0	527	128	
13	0	0	0	0	528	129	
14	0	0	0	0	526	129	
15	0	0	0	0	522	128	
0	0	0	0	0	518	128	
1	0	0	0	0	515	129	
2	0	0	0	0	512	128	
3	0	0	0	0	511	128	
4	0	0	0	0	510	129	
5	0	0	0	0	509	129	
6	0	0	0	0	511	128	
7	0	0	0	0	513	129	
8	0	0	0	0	515	129	
9	0	0	0	0	519	128	
10	0	0	0	0	522	128	
11	0	0	0	0	524	129	
12	0	0	0	0	525	128	
13	0	0	0	0	527	128	
14	0	0	0	0	526	129	
15	0	0	0	0	524	128	
0	0	0	0	0	519	128	
1	0	0	0	0	512	129	
2	0	0	0	0	506	128	
3	0	0	0	0	499	128	
4	0	0	0	0	496	129	
5	0	0	0	0	495	128	
6	0	0	0	0	495	129	
7	0	0	0	0	496	129	
8	0	0	0	0	497	128	
9	0	0	0	0	499	128	
10	0	0	0	0	501	129	
11	0	0	0	0	504	128	
12	0	0	0	0	506	128	
13	0	0	0	0	508	129	
14	0	0	0	0	510	128	
15	0	0	0	0	512	128	
0	0	0	0	0	512	129	
1	0	0	0	0	510	128	
2	0	0	0	0	509	128	
3	0	0	0	0	505	129	
4	0	0	0	0	502	128	
5	0	0	0	0	497	128	
6	0	0	0	0	496	129	
7	0	0	0	0	496	129	
8	0	0	0	0	500	128	
9	0	0	0	0	505	129	
10	0	0	0	0	509	129	
11	0	0	0	0	512	127	
12	0	0	0	0	516	129	
13	0	0	0	0	519	128	
14	0	0	0	0	519	128	
15	0	0	0	0	518	129	
0	0	0	0	0	515	129	
1	0	0	0	0	513	128	
2	0	0	0	0	511	129	
3	0	0	0	0	509	128	
4	0	0	0	0	508	129	
5	0	0	0	0	507	128	
6	0	0	0	0	504	128	
7	0	0	0	0	502	129	
8	0	0	0	0	504	128	
9	0	0	0	0	506	128	
10	0	0	0	0	510	129	
11	0	0	0	0	513	128	
12	0	0	0	0	515	129	
13	0	0	0	0	517	129	
14	0	0	0	0	518	128	
15	0	0	0	0	518	129	
0	0	0	0	0	519	129	
1	0	0	0	0	517	128	
2	0	0	0	0	513	129	
3	0	0	0	0	509	129	
4	0	0	0	0	505	128	
5	0	0	0	0	502	129	
6	0	0	0	0	500	129	
7	0	0	0	0	501	128	
8	0	0	0	0	503	129	
9	0	0	0	0	504	128	
10	0	0	0	0	507	128	
11	0	0	0	0	509	129	
12	0	0	0	0	512	128	
13	0	0	0	0	514	129	
14	0	0	0	0	515	128	
15	0	0	0	0	513	128	
0	0	0	0	0	511	129	
1	0	0	0	0	508	128	
2	0	0	0	0	504	129	
3	0	0	0	0	499	128	
4	0	0	0	0	493	128	
5	0	0	0	0	487	129	
6	0	0	0	0	484	129	
7	0	0	0	0	481	128	
8	0	0	0	0	481	129	
9	0	0	0	0	482	129	
10	0	0	0	0	483	128	
11	0	0	0	0	486	129	
12	0	0	0	0	489	129	
13	0	0	0	0	494	128	
14	0	0	0	0	497	129	
15	0	0	0	0	499	129	
0	0	0	0	0	500	128	
1	0	0	0	0	500	128	
2	0	0	0	0	500	129	
3	0	0	0	0	499	128	
4	0	0	0	0	497	129	
5	0	0	0	0	495	129	
6	0	0	0	0	492	128	
7	0	0	0	0	491	129	
8	0	0	0	0	492	128	
9	0	0	0	0	493	129	
10	0	0	0	0	496	128	
11	0	0	0	0	498	128	
12	0	0	0	0	502	129	
13	0	0	0	0	508	128	
14	0	0	0	0	512	128	
15	0	0	0	0	513	129	
0	0	0	0	0	514	128	
1	0	0	0	0	513	128	
2	0	0	0	0	512	129	
3	0	0	0	0	511	129	
4	0	0	0	0	508	128	
5	0	0	0	0	504	129	
6	0	0	0	0	501	129	
7	0	0	0	0	499	128	
8	0	0	0	0	496	129	
9	0	0	0	0	495	129	
10	0	0	0	0	496	128	
11	0	0	0	0	498	129	
12	0	0	0	0	501	129	
13	0	0	0	0	505	127	
14	0	0	0	0	508	129	
15	0	0	0	0	512	128	
0	0	0	0	0	515	128	
1	0	0	0	0	517	129	
2	0	0	0	0	517	128	
3	0	0	0	0	516	127	
4	0	0	0	0	514	129	
5	0	0	0	0	511	128	
6	0	0	0	0	507	128	
7	0	0	0	0	504	129	
8	0	0	0	0	502	128	
9	0	0	0	0	501	128	
10	0	0	0	0	500	129	
11	0	0	0	0	499	128	
12	0	0	0	0	502	129	
13	0	0	0	0	505	129	
14	0	0	0	0	509	128	
15	0	0	0	0	513	129	
0	0	0	0	0	518	128	
1	0	0	0	0	520	127	
2	0	0	0	0	522	129	
3	0	0	0	0	523	128	
4	0	0	0	0	521	127	
5	0	0	0	0	519	129	
6	0	0	0	0	518	129	
7	0	0	0	0	515	127	
8	0	0	0	0	513	129	
9	0	0	0	0	513	128	
10	0	0	0	0	512	128	
11	0	0	0	0	512	129	
12	0	0	0	0	514	128	
13	0	0	0	0	517	128	
14	0	0	0	0	519	129	
15	0	0	0	0	523	128	
0	0	0	0	0	525	127	
1	0	0	0	0	527	129	
2	0	0	0	0	529	128	
3	0	0	0	0	528	128	
4	0	0	0	0	527	129	
5	0	0	0	0	525	128	
6	0	0	0	0	523	129	
7	0	0	0	0	518	128	
8	0	0	0	0	515	128	
9	0	0	0	0	513	129	
10	0	0	0	0	512	129	
11	0	0	0	0	511	128	
12	0	0	0	0	511	129	
13	0	0	0	0	513	129	
14	0	0	0	0	516	128	
15	0	0	0	0	520	129	
0	0	0	0	0	524	129	
1	0	0	0	0	528	127	
2	0	0	0	0	531	129	
3	0	0	0	0	534	128	
4	0	0	0	0	534	127	
5	0	0	0	0	534	129	
6	0	0	0	0	533	128	
7	0	0	0	0	531	127	
8	0	0	0	0	529	129	
9	0	0	0	0	528	129	
10	0	0	0	0	527	128	
11	0	0	0	0	525	128	
12	0	0	0	0	524	129	
13	0	0	0	0	526	128	
14	0	0	0	0	528	128	
15	0	0	0	0	530	129	
0	0	0	0	0	533	128	
1	0	0	0	0	537	127	
2	0	0	0	0	540	129	
3	0	0	0	0	543	129	
4	0	0	0	0	544	127	
5	0	0	0	0	545	129	
6	0	0	0	0	544	128	
7	0	0	0	0	542	127	
8	0	0	0	0	539	129	
9	0	0	0	0	536	128	
10	0	0	0	0	533	128	
11	0	0	0	0	531	129	
12	0	0	0	0	528	129	
13	0	0	0	0	528	128	
14	0	0	0	0	530	128	
15	0	0	0	0	532	128	
0	0	0	0	0	534	128	
1	0	0	0	0	537	128	
2	0	0	0	0	539	129	
3	0	0	0	0	542	128	
4	0	0	0	0	543	128	
5	0	0	0	0	544	129	
6	0	0	0	0	543	128	
7	0	0	0	0	541	127	
8	0	0	0	0	539	129	
9	0	0	0	0	535	128	
10	0	0	0	0	531	127	
11	0	0	0	0	528	129	
12	0	0	0	0	527	128	
13	0	0	0	0	527	129	
14	0	0	0	0	527	129	
15	0	0	0	0	529	128	
0	0	0	0	0	530	128	
1	0	0	0	0	533	129	
2	0	0	0	0	536	129	
3	0	0	0	0	539	128	
4	0	0	0	0	541	127	
5	0	0	0	0	541	129	
6	0	0	0	0	540	128	
7	0	0	0	0	539	128	
8	0	0	0	0	535	129	
9	0	0	0	0	530	127	
10	0	0	0	0	527	129	
11	0	0	0	0	523	128	
12	0	0	0	0	519	128	
13	0	0	0	0	518	129	
14	0	0	0	0	517	128	
15	0	0	0	0	518	128	
0	0	0	0	0	519	129	
1	0	0	0	0	523	128	
2	0	0	0	0	527	127	
3	0	0	0	0	530	129	
4	0	0	0	0	534	128	
5	0	0	0	0	538	127	
6	0	0	0	0	540	129	
7	0	0	0	0	542	128	
8	0	0	0	0	541	127	
9	0	0	0	0	540	129	
10	0	0	0	0	537	128	
11	0	0	0	0	534	127	
12	0	0	0	0	529	129	
13	0	0	0	0	527	128	
14	0	0	0	0	528	127	
15	0	0	0	0	528	129	
0	0	0	0	0	529	129	
1	0	0	0	0	531	128	
2	0	0	0	0	535	129	
3	0	0	0	0	540	128	
4	0	0	0	0	544	127	
5	0	0	0	0	549	129	
6	0	0	0	0	552	128	
7	0	0	0	0	555	127	
8	0	0	0	0	555	128	
9	0	0	0	0	555	129	
10	0	0	0	0	556	128	
11	0	0	0	0	556	128	
12	0	0	0	0	556	129	
13	0	0	0	0	555	128	
14	0	0	0	0	554	128	
15	0	0	0	0	552	128	
0	0	0	0	0	551	128	
1	0	0	0	0	552	129	
2	0	0	0	0	552	128	
3	0	0	0	0	553	128	
4	0	0	0	0	553	129	
5	0	0	0	0	553	128	
6	0	0	0	0	553	127	
7	0	0	0	0	551	129	
8	0	0	0	0	545	128	
9	0	0	0	0	539	128	
10	0	0	0	0	532	129	
11	0	0	0	0	527	128	
12	0	0	0	0	521	128	
13	0	0	0	0	515	129	
14	0	0	0	0	510	129	
15	0	0	0	0	503	128	
0	0	0	0	0	497	129	
1	0	0	0	0	494	129	
2	0	0	0	0	492	128	
3	0	0	0	0	490	129	
4	0	0	0	0	490	129	
5	0	0	0	0	491	128	
6	0	0	0	0	489	129	
7	0	0	0	0	488	128	
8	0	0	0	0	485	129	
9	0	0	0	0	481	129	
10	0	0	0	0	476	128	
11	0	0	0	0	469	129	
12	0	0	0	0	461	129	
13	0	0	0	0	453	128	
14	0	0	0	0	447	129	
15	0	0	0	0	443	128	
0	0	0	0	0	440	129	
1	0	0	0	0	440	129	
2	0	0	0	0	444	128	
3	0	0	0	0	449	129	
4	0	0	0	0	455	129	
5	0	0	0	0	462	128	
6	0	0	0	0	467	128	
7	0	0	0	0	474	129	
8	0	0	0	0	480	128	
9	0	0	0	0	483	129	
10	0	0	0	0	486	129	
11	0	0	0	0	486	128	
12	0	0	0	0	486	128	
13	0	0	0	0	485	129	
14	0	0	0	0	484	128	
15	0	0	0	0	483	128	
0	0	0	0	0	484	129	
1	0	0	0	0	487	128	
2	0	0	0	0	490	128	
3	0	0	0	0	494	129	
4	0	0	0	0	498	129	
5	0	0	0	0	504	128	
6	0	0	0	0	510	129	
7	0	0	0	0	515	129	
8	0	0	0	0	519	128	
9	0	0	0	0	523	129	
10	0	0	0	0	525	129	
11	0	0	0	0	525	128	
12	0	0	0	0	524	129	
13	0	0	0	0	523	128	
14	0	0	0	0	519	128	
15	0	0	0	0	516	129	
0	0	0	0	0	513	128	
1	0	0	0	0	512	128	
2	0	0	0	0	511	129	
3	0	0	0	0	512	128	
4	0	0	0	0	513	128	
5	0	0	0	0	515	129	
6	0	0	0	0	517	128	
7	0	0	0	0	519	128	
8	0	0	0	0	521	129	
9	0	0	0	0	523	128	
10	0	0	0	0	524	128	
11	0	0	0	0	524	129	
12	0	0	0	0	524	128	
13	0	0	0	0	523	128	
14	0	0	0	0	522	129	
15	0	0	0	0	520	129	
0	0	0	0	0	519	128	
1	0	0	0	0	518	129	
2	0	0	0	0	517	129	
3	0	0	0	0	517	128	
4	0	0	0	0	518	129	
5	0	0	0	0	519	128	
6	0	0	0	0	523	127	
7	0	0	0	0	526	129	
8	0	0	0	0	528	128	
9	0	0	0	0	530	129	
10	0	0	0	0	532	129	
11	0	0	0	0	532	128	
12	0	0	0	0	531	128	
13	0	0	0	0	529	129	
14	0	0	0	0	526	128	
15	0	0	0	0	523	127	
0	0	0	0	0	521	129	
1	0	0	0	0	519	129	
2	0	0	0	0	516	128	
3	0	0	0	0	514	128	
4	0	0	0	0	514	129	
5	0	0	0	0	517	128	
6	0	0	0	0	520	128	
7	0	0	0	0	524	129	
8	0	0	0	0	526	128	
9	0	0	0	0	529	127	
10	0	0	0	0	532	129	
11	0	0	0	0	532	128	
12	0	0	0	0	531	127	
13	0	0	0	0	531	129	
14	0	0	0	0	528	128	
15	0	0	0	0	526	127	
0	0	0	0	0	523	129	
1	0	0	0	0	519	128	
2	0	0	0	0	516	129	
3	0	0	0	0	514	129	
4	0	0	0	0	514	128	
5	0	0	0	0	515	129	
6	0	0	0	0	518	129	
7	0	0	0	0	519	128	
8	0	0	0	0	521	129	
9	0	0	0	0	526	129	
10	0	0	0	0	529	128	
11	0	0	0	0	531	129	
12	0	0	0	0	531	129	
13	0	0	0	0	530	128	
14	0	0	0	0	527	128	
15	0	0	0	0	524	129	
0	0	0	0	0	520	128	
1	0	0	0	0	516	129	
2	0	0	0	0	512	128	
3	0	0	0	0	510	129	
4	0	0	0	0	509	129	
5	0	0	0	0	509	128	
6	0	0	0	0	511	128	
7	0	0	0	0	512	129	
8	0	0	0	0	516	128	
9	0	0	0	0	520	128	
10	0	0	0	0	523	128	
11	0	0	0	0	525	127	
12	0	0	0	0	525	129	
13	0	0	0	0	524	128	
14	0	0	0	0	523	128	
15	0	0	0	0	521	129	
0	0	0	0	0	518	129	
1	0	0	0	0	515	128	
2	0	0	0	0	511	129	
3	0	0	0	0	509	129	
4	0	0	0	0	507	128	
5	0	0	0	0	505	129	
6	0	0	0	0	505	129	
7	0	0	0	0	508	128	
8	0	0	0	0	510	129	
9	0	0	0	0	513	128	
10	0	0	0	0	517	127	
11	0	0	0	0	519	129	
12	0	0	0	0	522	128	
13	0	0	0	0	524	128	
14	0	0	0	0	524	129	
15	0	0	0	0	524	127	
0	0	0	0	0	522	129	
1	0	0	0	0	520	129	
2	0	0	0	0	517	128	
3	0	0	0	0	513	128	
4	0	0	0	0	511	129	
5	0	0	0	0	510	128	
6	0	0	0	0	509	129	
7	0	0	0	0	510	129	
8	0	0	0	0	511	128	
9	0	0	0	0	513	129	
10	0	0	0	0	515	128	
11	0	0	0	0	518	128	
12	0	0	0	0	521	129	
13	0	0	0	0	523	129	
14	0	0	0	0	524	128	
15	0	0	0	0	524	129	
0	0	0	0	0	523	128	
1	0	0	0	0	521	128	
2	0	0	0	0	519	129	
3	0	0	0	0	518	128	
4	0	0	0	0	517	129	
5	0	0	0	0	515	129	
6	0	0	0	0	514	128	
7	0	0	0	0	512	129	
8	0	0	0	0	511	129	
9	0	0	0	0	512	128	
10	0	0	0	0	514	129	
11	0	0	0	0	517	129	
12	0	0	0	0	519	128	
13	0	0	0	0	521	129	
14	0	0	0	0	523	129	
15	0	0	0	0	524	127	
0	0	0	0	0	524	129	
1	0	0	0	0	523	129	
2	0	0	0	0	518	128	
3	0	0	0	0	512	129	
4	0	0	0	0	509	129	
5	0	0	0	0	507	128	
6	0	0	0	0	506	129	
7	0	0	0	0	506	129	
8	0	0	0	0	507	128	
9	0	0	0	0	510	129	
10	0	0	0	0	512	129	
11	0	0	0	0	516	128	
12	0	0	0	0	519	129	
13	0	0	0	0	523	129	
14	0	0	0	0	525	128	
15	0	0	0	0	526	129	
0	0	0	0	0	526	129	
1	0	0	0	0	524	128	
2	0	0	0	0	519	128	
3	0	0	0	0	516	129	
4	0	0	0	0	514	128	
5	0	0	0	0	511	128	
6	0	0	0	0	508	129	
7	0	0	0	0	504	128	
8	0	0	0	0	503	129	
9	0	0	0	0	504	129	
10	0	0	0	0	506	128	
11	0	0	0	0	510	128	
12	0	0	0	0	513	129	
13	0	0	0	0	516	128	
14	0	0	0	0	520	128	
15	0	0	0	0	522	129	
0	0	0	0	0	523	128	
1	0	0	0	0	523	127	
2	0	0	0	0	522	129	
3	0	0	0	0	520	128	
4	0	0	0	0	516	128	
5	0	0	0	0	510	129	
6	0	0	0	0	504	128	
7	0	0	0	0	500	129	
8	0	0	0	0	498	129	
9	0	0	0	0	497	128	
10	0	0	0	0	499	129	
11	0	0	0	0	503	128	
12	0	0	0	0	506	128	
13	0	0	0	0	510	129	
14	0	0	0	0	513	128	
15	0	0	0	0	514	128	
0	0	0	0	0	514	129	
1	0	0	0	0	513	129	
2	0	0	0	0	511	128	
3	0	0	0	0	508	129	
4	0	0	0	0	504	128	
5	0	0	0	0	503	128	
6	0	0	0	0	501	128	
7	0	0	0	0	499	129	
8	0	0	0	0	498	129	
9	0	0	0	0	498	128	
10	0	0	0	0	499	129	
11	0	0	0	0	500	129	
12	0	0	0	0	502	128	
13	0	0	0	0	504	129	
14	0	0	0	0	507	129	
15	0	0	0	0	509	128	
0	0	0	0	0	511	129	
1	0	0	0	0	511	129	
2	0	0	0	0	511	128	
3	0	0	0	0	511	129	
4	0	0	0	0	510	128	
5	0	0	0	0	508	128	
6	0	0	0	0	504	129	
7	0	0	0	0	502	128	
8	0	0	0	0	499	128	
9	0	0	0	0	497	129	
10	0	0	0	0	496	128	
11	0	0	0	0	499	129	
12	0	0	0	0	502	129	
13	0	0	0	0	505	128	
14	0	0	0	0	510	129	
15	0	0	0	0	513	128	
0	0	0	0	0	517	128	
1	0	0	0	0	517	129	
2	0	0	0	0	515	128	
3	0	0	0	0	513	128	
4	0	0	0	0	511	129	
5	0	0	0	0	509	128	
6	0	0	0	0	506	129	
7	0	0	0	0	502	129	
8	0	0	0	0	498	128	
9	0	0	0	0	494	129	
10	0	0	0	0	492	129	
11	0	0	0	0	491	128	
12	0	0	0	0	493	129	
13	0	0	0	0	494	129	
14	0	0	0	0	497	128	
15	0	0	0	0	500	129	
0	0	0	0	0	504	129	
1	0	0	0	0	507	128	
2	0	0	0	0	508	128	
3	0	0	0	0	506	129	
4	0	0	0	0	504	128	
5	0	0	0	0	501	128	
6	0	0	0	0	499	129	
7	0	0	0	0	496	128	
8	0	0	0	0	494	129	
9	0	0	0	0	491	129	
10	0	0	0	0	488	128	
11	0	0	0	0	487	128	
12	0	0	0	0	487	129	
13	0	0	0	0	489	128	
14	0	0	0	0	491	129	
15	0	0	0	0	493	129	
0	0	0	0	0	495	128	
1	0	0	0	0	497	129	
2	0	0	0	0	499	129	
3	0	0	0	0	500	128	
4	0	0	0	0	499	129	
5	0	0	0	0	496	129	
6	0	0	0	0	492	128	
7	0	0	0	0	488	129	
8	0	0	0	0	485	129	
9	0	0	0	0	481	128	
10	0	0	0	0	477	129	
11	0	0	0	0	474	129	
12	0	0	0	0	473	128	
13	0	0	0	0	472	128	
14	0	0	0	0	473	129	
15	0	0	0	0	477	128	
0	0	0	0	0	480	128	
1	0	0	0	0	484	129	
2	0	0	0	0	486	128	
3	0	0	0	0	488	129	
4	0	0	0	0	489	129	
5	0	0	0	0	489	129	
6	0	0	0	0	488	129	
7	0	0	0	0	487	128	
8	0	0	0	0	483	128	
9	0	0	0	0	480	129	
10	0	0	0	0	478	128	
11	0	0	0	0	476	129	
12	0	0	0	0	475	129	
13	0	0	0	0	475	128	
14	0	0	0	0	477	128	
15	0	0	0	0	479	129	
0	0	0	0	0	482	128	
1	0	0	0	0	483	129	
2	0	0	0	0	486	129	
3	0	0	0	0	487	128	
4	0	0	0	0	489	129	
5	0	0	0	0	491	129	
6	0	0	0	0	493	128	
7	0	0	0	0	493	129	
8	0	0	0	0	492	128	
9	0	0	0	0	489	129	
10	0	0	0	0	486	128	
11	0	0	0	0	483	129	
12	0	0	0	0	479	129	
13	0	0	0	0	477	128	
14	0	0	0	0	477	129	
15	0	0	0	0	479	129	
0	0	0	0	0	481	128	
1	0	0	0	0	486	129	
2	0	0	0	0	489	128	
3	0	0	0	0	492	128	
4	0	0	0	0	494	129	
5	0	0	0	0	495	128	
6	0	0	0	0	496	128	
7	0	0	0	0	495	129	
8	0	0	0	0	491	128	
9	0	0	0	0	489	128	
10	0	0	0	0	487	129	
11	0	0	0	0	484	128	
12	0	0	0	0	483	128	
13	0	0	0	0	481	129	
14	0	0	0	0	481	129	
15	0	0	0	0	481	128	
0	0	0	0	0	481	129	
1	0	0	0	0	483	129	
2	0	0	0	0	485	128	
3	0	0	0	0	487	129	
4	0	0	0	0	491	129	
5	0	0	0	0	493	128	
6	0	0	0	0	494	129	
7	0	0	0	0	494	128	
8	0	0	0	0	494	128	
9	0	0	0	0	492	129	
10	0	0	0	0	490	129	
11	0	0	0	0	489	128	
12	0	0	0	0	487	129	
13	0	0	0	0	484	129	
14	0	0	0	0	483	128	
15	0	0	0	0	483	129	
0	0	0	0	0	485	129	
1	0	0	0	0	487	128	
2	0	0	0	0	489	129	
3	0	0	0	0	492	129	
4	0	0	0	0	495	128	
5	0	0	0	0	497	129	
6	0	0	0	0	498	129	
7	0	0	0	0	498	128	
8	0	0	0	0	497	129	
9	0	0	0	0	496	129	
10	0	0	0	0	493	128	
11	0	0	0	0	490	129	
12	0	0	0	0	488	129	
13	0	0	0	0	485	128	
14	0	0	0	0	483	129	
15	0	0	0	0	482	129	
0	0	0	0	0	481	128	
1	0	0	0	0	483	129	
2	0	0	0	0	485	129	
3	0	0	0	0	487	128	
4	0	0	0	0	491	128	
5	0	0	0	0	494	129	
6	0	0	0	0	497	129	
7	0	0	0	0	498	128	
8	0	0	0	0	497	129	
9	0	0	0	0	496	129	
10	0	0	0	0	494	128	
11	0	0	0	0	492	129	
12	0	0	0	0	490	129	
13	0	0	0	0	488	128	
14	0	0	0	0	485	129	
15	0	0	0	0	484	129	
0	0	0	0	0	483	128	
1	0	0	0	0	485	129	
2	0	0	0	0	487	129	
3	0	0	0	0	488	128	
4	0	0	0	0	491	128	
5	0	0	0	0	494	129	
6	0	0	0	0	496	128	
7	0	0	0	0	499	128	
8	0	0	0	0	499	129	
9	0	0	0	0	498	129	
10	0	0	0	0	496	128	
11	0	0	0	0	493	129	
12	0	0	0	0	489	129	
13	0	0	0	0	486	128	
14	0	0	0	0	483	129	
15	0	0	0	0	481	129	
0	0	0	0	0	481	128	
1	0	0	0	0	480	129	
2	0	0	0	0	481	129	
3	0	0	0	0	483	128	
4	0	0	0	0	486	128	
5	0	0	0	0	489	129	
6	0	0	0	0	491	128	
7	0	0	0	0	492	128	
8	0	0	0	0	491	129	
9	0	0	0	0	491	128	
10	0	0	0	0	489	129	
11	0	0	0	0	488	129	
12	0	0	0	0	485	128	
13	0	0	0	0	481	129	
14	0	0	0	0	479	129	
15	0	0	0	0	477	128	
0	0	0	0	0	475	129	
1	0	0	0	0	474	128	
2	0	0	0	0	475	129	
3	0	0	0	0	477	129	
4	0	0	0	0	480	128	
5	0	0	0	0	483	128	
6	0	0	0	0	487	129	
7	0	0	0	0	492	128	
8	0	0	0	0	495	129	
9	0	0	0	0	497	128	
10	0	0	0	0	496	129	
11	0	0	0	0	495	129	
12	0	0	0	0	493	128	
13	0	0	0	0	491	128	
14	0	0	0	0	488	129	
15	0	0	0	0	484	128	
0	0	0	0	0	481	128	
1	0	0	0	0	479	129	
2	0	0	0	0	478	128	
3	0	0	0	0	478	128	
4	0	0	0	0	480	129	
5	0	0	0	0	482	128	
6	0	0	0	0	485	128	
7	0	0	0	0	487	129	
8	0	0	0	0	489	128	
9	0	0	0	0	492	129	
10	0	0	0	0	491	129	
11	0	0	0	0	491	128	
12	0	0	0	0	488	129	
13	0	0	0	0	485	129	
14	0	0	0	0	483	128	
15	0	0	0	0	482	129	
0	0	0	0	0	480	128	
1	0	0	0	0	479	128	
2	0	0	0	0	480	129	
3	0	0	0	0	480	129	
4	0	0	0	0	481	128	
5	0	0	0	0	481	129	
6	0	0	0	0	484	128	
7	0	0	0	0	489	128	
8	0	0	0	0	492	129	
9	0	0	0	0	495	128	
10	0	0	0	0	497	128	
11	0	0	0	0	497	129	
12	0	0	0	0	497	129	
13	0	0	0	0	496	128	
14	0	0	0	0	493	129	
15	0	0	0	0	490	128	
0	0	0	0	0	488	129	
1	0	0	0	0	487	129	
2	0	0	0	0	486	128	
3	0	0	0	0	487	128	
4	0	0	0	0	487	129	
5	0	0	0	0	489	128	
6	0	0	0	0	492	128	
7	0	0	0	0	496	129	
8	0	0	0	0	500	129	
9	0	0	0	0	503	128	
10	0	0	0	0	505	129	
11	0	0	0	0	506	129	
12	0	0	0	0	505	128	
13	0	0	0	0	503	128	
14	0	0	0	0	500	129	
15	0	0	0	0	497	129	
0	0	0	0	0	494	128	
1	0	0	0	0	492	129	
2	0	0	0	0	489	129	
3	0	0	0	0	487	128	
4	0	0	0	0	487	128	
5	0	0	0	0	488	129	
6	0	0	0	0	492	128	
7	0	0	0	0	495	128	
8	0	0	0	0	497	129	
9	0	0	0	0	501	128	
10	0	0	0	0	504	128	
11	0	0	0	0	505	129	
12	0	0	0	0	505	128	
13	0	0	0	0	504	128	
14	0	0	0	0	503	129	
15	0	0	0	0	500	129	
0	0	0	0	0	497	128	
1	0	0	0	0	495	129	
2	0	0	0	0	492	128	
3	0	0	0	0	492	128	
4	0	0	0	0	492	129	
5	0	0	0	0	494	129	
6	0	0	0	0	496	128	
7	0	0	0	0	498	128	
8	0	0	0	0	502	129	
9	0	0	0	0	506	128	
10	0	0	0	0	511	128	
11	0	0	0	0	513	129	
12	0	0	0	0	515	129	
13	0	0	0	0	515	128	
14	0	0	0	0	513	128	
15	0	0	0	0	511	129	
0	0	0	0	0	508	129	
1	0	0	0	0	505	128	
2	0	0	0	0	501	129	
3	0	0	0	0	498	129	
4	0	0	0	0	496	128	
5	0	0	0	0	496	129	
6	0	0	0	0	498	129	
7	0	0	0	0	500	128	
8	0	0	0	0	503	128	
9	0	0	0	0	506	129	
10	0	0	0	0	510	128	
11	0	0	0	0	511	128	
12	0	0	0	0	512	129	
13	0	0	0	0	513	129	
14	0	0	0	0	513	128	
15	0	0	0	0	512	129	
0	0	0	0	0	510	129	
1	0	0	0	0	506	128	
2	0	0	0	0	502	129	
3	0	0	0	0	499	129	
4	0	0	0	0	497	128	
5	0	0	0	0	496	128	
6	0	0	0	0	496	129	
7	0	0	0	0	497	128	
8	0	0	0	0	499	128	
9	0	0	0	0	503	129	
10	0	0	0	0	505	128	
11	0	0	0	0	508	128	
12	0	0	0	0	510	129	
13	0	0	0	0	512	128	
14	0	0	0	0	512	128	
15	0	0	0	0	509	129	
0	0	0	0	0	507	128	
1	0	0	0	0	503	128	
2	0	0	0	0	500	129	
3	0	0	0	0	496	128	
4	0	0	0	0	491	128	
5	0	0	0	0	487	129	
6	0	0	0	0	486	129	
7	0	0	0	0	485	128	
8	0	0	0	0	486	129	
9	0	0	0	0	488	129	
10	0	0	0	0	492	128	
11	0	0	0	0	496	129	
12	0	0	0	0	499	129	
13	0	0	0	0	502	128	
14	0	0	0	0	503	129	
15	0	0	0	0	504	129	
0	0	0	0	0	504	128	
1	0	0	0	0	503	129	
2	0	0	0	0	499	129	
3	0	0	0	0	494	128	
4	0	0	0	0	491	129	
5	0	0	0	0	488	129	
6	0	0	0	0	486	128	
7	0	0	0	0	486	129	
8	0	0	0	0	486	129	
9	0	0	0	0	487	128	
10	0	0	0	0	491	129	
11	0	0	0	0	496	129	
12	0	0	0	0	500	128	
13	0	0	0	0	504	129	
14	0	0	0	0	506	128	
15	0	0	0	0	508	128	
0	0	0	0	0	507	129	
1	0	0	0	0	507	128	
2	0	0	0	0	505	128	
3	0	0	0	0	503	129	
4	0	0	0	0	499	128	
5	0	0	0	0	498	128	
6	0	0	0	0	497	129	
7	0	0	0	0	495	128	
8	0	0	0	0	494	128	
9	0	0	0	0	497	129	
10	0	0	0	0	499	128	
11	0	0	0	0	503	128	
12	0	0	0	0	506	129	
13	0	0	0	0	510	128	
14	0	0	0	0	511	129	
15	0	0	0	0	512	129	
0	0	0	0	0	512	128	
1	0	0	0	0	511	129	
2	0	0	0	0	510	128	
3	0	0	0	0	507	128	
4	0	0	0	0	503	129	
5	0	0	0	0	498	128	
6	0	0	0	0	495	129	
7	0	0	0	0	493	128	
8	0	0	0	0	491	129	
9	0	0	0	0	490	129	
10	0	0	0	0	492	128	
11	0	0	0	0	494	129	
12	0	0	0	0	497	129	
13	0	0	0	0	499	128	
14	0	0	0	0	502	129	
15	0	0	0	0	505	128	
0	0	0	0	0	508	128	
1	0	0	0	0	507	129	
2	0	0	0	0	505	128	
3	0	0	0	0	505	128	
4	0	0	0	0	503	129	
5	0	0	0	0	500	128	
6	0	0	0	0	499	128	
7	0	0	0	0	497	129	
8	0	0	0	0	497	128	
9	0	0	0	0	496	129	
10	0	0	0	0	496	129	
11	0	0	0	0	499	128	
12	0	0	0	0	501	129	
13	0	0	0	0	504	129	
14	0	0	0	0	507	128	
15	0	0	0	0	510	129	
0	0	0	0	0	513	129	
1	0	0	0	0	515	128	
2	0	0	0	0	515	128	
3	0	0	0	0	514	129	
4	0	0	0	0	511	128	
5	0	0	0	0	509	128	
6	0	0	0	0	507	129	
7	0	0	0	0	505	129	
8	0	0	0	0	503	128	
9	0	0	0	0	500	129	
10	0	0	0	0	501	129	
11	0	0	0	0	503	128	
12	0	0	0	0	505	129	
13	0	0	0	0	507	129	
14	0	0	0	0	510	128	
15	0	0	0	0	511	128	
0	0	0	0	0	513	129	
1	0	0	0	0	515	128	
2	0	0	0	0	517	128	
3	0	0	0	0	517	129	
4	0	0	0	0	516	128	
5	0	0	0	0	513	129	
6	0	0	0	0	510	128	
7	0	0	0	0	508	129	
8	0	0	0	0	504	129	
9	0	0	0	0	500	128	
10	0	0	0	0	497	129	
11	0	0	0	0	496	129	
12	0	0	0	0	498	128	
13	0	0	0	0	501	128	
14	0	0	0	0	504	129	
15	0	0	0	0	506	128	
0	0	0	0	0	506	128	
1	0	0	0	0	508	129	
2	0	0	0	0	508	128	
3	0	0	0	0	509	128	
4	0	0	0	0	508	129	
5	0	0	0	0	505	129	
6	0	0	0	0	503	128	
7	0	0	0	0	499	129	
8	0	0	0	0	496	128	
9	0	0	0	0	494	128	
10	0	0	0	0	492	129	
11	0	0	0	0	491	128	
12	0	0	0	0	492	128	
13	0	0	0	0	495	129	
14	0	0	0	0	498	128	
15	0	0	0	0	503	129	
0	0	0	0	0	506	128	
1	0	0	0	0	511	129	
2	0	0	0	0	513	129	
3	0	0	0	0	514	128	
4	0	0	0	0	513	129	
5	0	0	0	0	512	128	
6	0	0	0	0	511	128	
7	0	0	0	0	508	129	
8	0	0	0	0	505	128	
9	0	0	0	0	501	128	
10	0	0	0	0	499	129	
11	0	0	0	0	496	128	
12	0	0	0	0	496	128	
13	0	0	0	0	496	129	
14	0	0	0	0	499	128	
15	0	0	0	0	502	128	
0	0	0	0	0	506	129	
1	0	0	0	0	510	128	
2	0	0	0	0	512	128	
3	0	0	0	0	515	129	
4	0	0	0	0	515	128	
5	0	0	0	0	515	129	
6	0	0	0	0	514	128	
7	0	0	0	0	512	129	
8	0	0	0	0	509	129	
9	0	0	0	0	508	128	
10	0	0	0	0	506	129	
11	0	0	0	0	503	129	
12	0	0	0	0	500	128	
13	0	0	0	0	499	129	
14	0	0	0	0	500	129	
15	0	0	0	0	504	128	
0	0	0	0	0	508	129	
1	0	0	0	0	512	129	
2	0	0	0	0	515	128	
3	0	0	0	0	517	129	
4	0	0	0	0	518	128	
5	0	0	0	0	517	128	
6	0	0	0	0	515	129	
7	0	0	0	0	512	128	
8	0	0	0	0	509	129	
9	0	0	0	0	505	128	
10	0	0	0	0	501	128	
11	0	0	0	0	498	129	
12	0	0	0	0	496	128	
13	0	0	0	0	494	128	
14	0	0	0	0	494	129	
15	0	0	0	0	497	128	
0	0	0	0	0	500	129	
1	0	0	0	0	503	129	
2	0	0	0	0	506	128	
3	0	0	0	0	509	129	
4	0	0	0	0	512	129	
5	0	0	0	0	513	128	
6	0	0	0	0	512	129	
7	0	0	0	0	511	128	
8	0	0	0	0	509	128	
9	0	0	0	0	507	129	
10	0	0	0	0	504	128	
11	0	0	0	0	501	128	
12	0	0	0	0	500	129	
13	0	0	0	0	499	128	
14	0	0	0	0	499	128	
15	0	0	0	0	499	129	
0	0	0	0	0	500	128	
1	0	0	0	0	503	129	
2	0	0	0	0	504	129	
3	0	0	0	0	507	128	
4	0	0	0	0	511	129	
5	0	0	0	0	512	129	
6	0	0	0	0	513	128	
7	0	0	0	0	513	129	
8	0	0	0	0	512	128	
9	0	0	0	0	509	128	
10	0	0	0	0	506	129	
11	0	0	0	0	502	129	
12	0	0	0	0	499	128	
13	0	0	0	0	497	129	
14	0	0	0	0	496	129	
15	0	0	0	0	495	128	
0	0	0	0	0	497	129	
1	0	0	0	0	499	129	
2	0	0	0	0	504	128	
3	0	0	0	0	508	128	
4	0	0	0	0	512	129	
5	0	0	0	0	515	128	
6	0	0	0	0	518	128	
7	0	0	0	0	519	129	
8	0	0	0	0	518	128	
9	0	0	0	0	516	128	
10	0	0	0	0	513	129	
11	0	0	0	0	510	128	
12	0	0	0	0	507	128	
13	0	0	0	0	505	129	
14	0	0	0	0	504	128	
15	0	0	0	0	504	129	
0	0	0	0	0	503	129	
1	0	0	0	0	504	128	
2	0	0	0	0	508	129	
3	0	0	0	0	512	128	
4	0	0	0	0	516	128	
5	0	0	0	0	519	129	
6	0	0	0	0	522	128	
7	0	0	0	0	523	129	
8	0	0	0	0	521	128	
9	0	0	0	0	518	128	
10	0	0	0	0	514	129	
11	0	0	0	0	511	128	
12	0	0	0	0	510	128	
13	0	0	0	0	507	129	
14	0	0	0	0	505	128	
15	0	0	0	0	504	129	
0	0	0	0	0	505	129	
1	0	0	0	0	507	128	
2	0	0	0	0	509	128	
3	0	0	0	0	511	129	
4	0	0	0	0	514	128	
5	0	0	0	0	516	129	
6	0	0	0	0	518	129	
7	0	0	0	0	519	128	
8	0	0	0	0	520	129	
9	0	0	0	0	519	128	
10	0	0	0	0	518	128	
11	0	0	0	0	515	129	
12	0	0	0	0	511	128	
13	0	0	0	0	507	128	
14	0	0	0	0	504	129	
15	0	0	0	0	500	128	
0	0	0	0	0	499	128	
1	0	0	0	0	499	129	
2	0	0	0	0	501	128	
3	0	0	0	0	504	129	
4	0	0	0	0	508	128	
5	0	0	0	0	512	129	
6	0	0	0	0	514	128	
7	0	0	0	0	517	128	
8	0	0	0	0	519	129	
9	0	0	0	0	518	128	
10	0	0	0	0	516	129	
11	0	0	0	0	515	128	
12	0	0	0	0	513	128	
13	0	0	0	0	510	129	
14	0	0	0	0	507	128	
15	0	0	0	0	505	128	
0	0	0	0	0	503	129	
1	0	0	0	0	503	128	
2	0	0	0	0	504	129	
3	0	0	0	0	507	128	
4	0	0	0	0	511	128	
5	0	0	0	0	516	129	
6	0	0	0	0	521	128	
7	0	0	0	0	525	129	
8	0	0	0	0	529	128	
9	0	0	0	0	531	128	
10	0	0	0	0	531	129	
11	0	0	0	0	530	129	
12	0	0	0	0	526	127	
13	0	0	0	0	523	129	
14	0	0	0	0	522	128	
15	0	0	0	0	519	128	
0	0	0	0	0	519	129	
1	0	0	0	0	519	129	
2	0	0	0	0	521	128	
3	0	0	0	0	524	129	
4	0	0	0	0	527	129	
5	0	0	0	0	531	127	
6	0	0	0	0	537	129	
7	0	0	0	0	543	128	
8	0	0	0	0	550	128	
9	0	0	0	0	555	129	
10	0	0	0	0	558	127	
11	0	0	0	0	560	128	
12	0	0	0	0	561	128	
13	0	0	0	0	560	128	
14	0	0	0	0	557	128	
15	0	0	0	0	556	128	
0	0	0	0	0	554	128	
1	0	0	0	0	551	128	
2	0	0	0	0	549	129	
3	0	0	0	0	547	128	
4	0	0	0	0	547	127	
5	0	0	0	0	545	129	
6	0	0	0	0	545	128	
7	0	0	0	0	545	127	
8	0	0	0	0	543	129	
9	0	0	0	0	540	128	
10	0	0	0	0	535	127	
11	0	0	0	0	530	129	
12	0	0	0	0	526	129	
13	0	0	0	0	521	128	
14	0	0	0	0	514	129	
15	0	0	0	0	507	129	
0	0	0	0	0	499	128	
1	0	0	0	0	491	129	
2	0	0	0	0	485	129	
3	0	0	0	0	480	128	
4	0	0	0	0	479	129	
5	0	0	0	0	480	129	
6	0	0	0	0	480	128	
7	0	0	0	0	482	129	
8	0	0	0	0	483	128	
9	0	0	0	0	483	129	
10	0	0	0	0	483	129	
11	0	0	0	0	481	128	
12	0	0	0	0	477	129	
13	0	0	0	0	471	128	
14	0	0	0	0	465	129	
15	0	0	0	0	461	129	
0	0	0	0	0	457	128	
1	0	0	0	0	455	129	
2	0	0	0	0	454	129	
3	0	0	0	0	452	128	
4	0	0	0	0	454	128	
5	0	0	0	0	459	129	
6	0	0	0	0	464	129	
7	0	0	0	0	471	128	
8	0	0	0	0	477	129	
9	0	0	0	0	482	129	
10	0	0	0	0	487	128	
11	0	0	0	0	492	129	
12	0	0	0	0	495	128	
13	0	0	0	0	498	128	
14	0	0	0	0	501	129	
15	0	0	0	0	502	129	
0	0	0	0	0	502	128	
1	0	0	0	0	502	129	
2	0	0	0	0	501	128	
3	0	0	0	0	500	128	
4	0	0	0	0	501	129	
5	0	0	0	0	503	129	
6	0	0	0	0	507	128	
7	0	0	0	0	510	129	
8	0	0	0	0	514	128	
9	0	0	0	0	519	129	
10	0	0	0	0	523	129	
11	0	0	0	0	525	128	
12	0	0	0	0	528	129	
13	0	0	0	0	531	127	
14	0	0	0	0	531	129	
15	0	0	0	0	530	128	
0	0	0	0	0	527	128	
1	0	0	0	0	525	129	
2	0	0	0	0	523	128	
3	0	0	0	0	521	129	
4	0	0	0	0	519	128	
5	0	0	0	0	519	128	
6	0	0	0	0	519	129	
7	0	0	0	0	520	128	
8	0	0	0	0	523	128	
9	0	0	0	0	526	129	
10	0	0	0	0	531	128	
11	0	0	0	0	535	127	
12	0	0	0	0	538	129	
13	0	0	0	0	540	128	
14	0	0	0	0	540	127	
15	0	0	0	0	539	129	
0	0	0	0	0	536	128	
1	0	0	0	0	532	129	
2	0	0	0	0	528	128	
3	0	0	0	0	526	128	
4	0	0	0	0	525	129	
5	0	0	0	0	524	128	
6	0	0	0	0	524	129	
7	0	0	0	0	524	128	
8	0	0	0	0	527	128	
9	0	0	0	0	529	129	
10	0	0	0	0	532	128	
11	0	0	0	0	534	127	
12	0	0	0	0	537	129	
13	0	0	0	0	539	129	
14	0	0	0	0	538	127	
15	0	0	0	0	536	129	
0	0	0	0	0	535	129	
1	0	0	0	0	533	128	
2	0	0	0	0	530	128	
3	0	0	0	0	527	129	
4	0	0	0	0	524	128	
5	0	0	0	0	522	127	
6	0	0	0	0	523	129	
7	0	0	0	0	523	128	
8	0	0	0	0	523	127	
9	0	0	0	0	524	129	
10	0	0	0	0	527	128	
11	0	0	0	0	529	127	
12	0	0	0	0	531	129	
13	0	0	0	0	532	128	
14	0	0	0	0	532	127	
15	0	0	0	0	532	129	
0	0	0	0	0	531	129	
1	0	0	0	0	528	127	
2	0	0	0	0	524	129	
3	0	0	0	0	522	128	
4	0	0	0	0	520	129	
5	0	0	0	0	518	128	
6	0	0	0	0	516	128	
7	0	0	0	0	516	129	
8	0	0	0	0	518	128	
9	0	0	0	0	520	128	
10	0	0	0	0	523	129	
11	0	0	0	0	526	128	
12	0	0	0	0	529	128	
13	0	0	0	0	531	129	
14	0	0	0	0	533	128	
15	0	0	0	0	535	128	
0	0	0	0	0	535	129	
1	0	0	0	0	534	128	
2	0	0	0	0	532	128	
3	0	0	0	0	528	129	
4	0	0	0	0	525	128	
5	0	0	0	0	521	127	
6	0	0	0	0	519	129	
7	0	0	0	0	517	128	
8	0	0	0	0	515	128	
9	0	0	0	0	516	129	
10	0	0	0	0	518	129	
11	0	0	0	0	521	127	
12	0	0	0	0	522	128	
13	0	0	0	0	524	128	
14	0	0	0	0	526	129	
15	0	0	0	0	527	128	
0	0	0	0	0	528	128	
1	0	0	0	0	527	129	
2	0	0	0	0	526	128	
3	0	0	0	0	523	127	
4	0	0	0	0	520	129	
5	0	0	0	0	517	128	
6	0	0	0	0	514	128	
7	0	0	0	0	513	129	
8	0	0	0	0	512	129	
9	0	0	0	0	512	128	
10	0	0	0	0	514	129	
11	0	0	0	0	516	128	
12	0	0	0	0	519	127	
13	0	0	0	0	524	129	
14	0	0	0	0	527	128	
15	0	0	0	0	528	129	
0	0	0	0	0	529	128	
1	0	0	0	0	529	127	
2	0	0	0	0	527	129	
3	0	0	0	0	525	128	
4	0	0	0	0	522	127	
5	0	0	0	0	519	129	
6	0	0	0	0	515	129	
7	0	0	0	0	512	128	
8	0	0	0	0	509	129	
9	0	0	0	0	507	129	
10	0	0	0	0	505	128	
11	0	0	0	0	506	129	
12	0	0	0	0	508	128	
13	0	0	0	0	511	128	
14	0	0	0	0	515	129	
15	0	0	0	0	519	129	
0	0	0	0	0	522	128	
1	0	0	0	0	523	129	
2	0	0	0	0	520	128	
3	0	0	0	0	519	128	
4	0	0	0	0	516	129	
5	0	0	0	0	513	128	
6	0	0	0	0	509	128	
7	0	0	0	0	504	129	
8	0	0	0	0	502	128	
9	0	0	0	0	501	128	
10	0	0	0	0	501	129	
11	0	0	0	0	501	129	
12	0	0	0	0	503	128	
13	0	0	0	0	507	128	
14	0	0	0	0	511	129	
15	0	0	0	0	514	128	
0	0	0	0	0	516	128	
1	0	0	0	0	517	129	
2	0	0	0	0	516	128	
3	0	0	0	0	514	128	
4	0	0	0	0	512	129	
5	0	0	0	0	511	128	
6	0	0	0	0	507	129	
7	0	0	0	0	504	128	
8	0	0	0	0	501	128	
9	0	0	0	0	498	129	
10	0	0	0	0	496	128	
11	0	0	0	0	495	128	
12	0	0	0	0	496	129	
13	0	0	0	0	496	129	
14	0	0	0	0	499	128	
15	0	0	0	0	504	129	
0	0	0	0	0	508	129	
1	0	0	0	0	511	128	
2	0	0	0	0	512	128	
3	0	0	0	0	512	129	
4	0	0	0	0	511	128	
5	0	0	0	0	510	128	
6	0	0	0	0	508	129	
7	0	0	0	0	504	128	
8	0	0	0	0	501	129	
9	0	0	0	0	498	128	
10	0	0	0	0	496	128	
11	0	0	0	0	494	129	
12	0	0	0	0	493	128	
13	0	0	0	0	494	128	
14	0	0	0	0	497	129	
15	0	0	0	0	500	129	
0	0	0	0	0	505	128	
1	0	0	0	0	508	129	
2	0	0	0	0	511	129	
3	0	0	0	0	511	128	
4	0	0	0	0	508	129	
5	0	0	0	0	504	129	
6	0	0	0	0	499	128	
7	0	0	0	0	495	129	
8	0	0	0	0	492	128	
9	0	0	0	0	489	128	
10	0	0	0	0	487	129	
11	0	0	0	0	486	128	
12	0	0	0	0	486	128	
13	0	0	0	0	487	129	
14	0	0	0	0	488	128	
15	0	0	0	0	490	128	
0	0	0	0	0	492	129	
1	0	0	0	0	493	128	
2	0	0	0	0	495	128	
3	0	0	0	0	496	129	
4	0	0	0	0	497	128	
5	0	0	0	0	496	129	
6	0	0	0	0	495	129	
7	0	0	0	0	493	128	
8	0	0	0	0	490	129	
9	0	0	0	0	487	129	
10	0	0	0	0	483	128	
11	0	0	0	0	481	129	
12	0	0	0	0	480	129	
13	0	0	0	0	481	128	
14	0	0	0	0	484	129	
15	0	0	0	0	487	129	
0	0	0	0	0	489	128	
1	0	0	0	0	491	129	
2	0	0	0	0	492	129	
3	0	0	0	0	494	128	
4	0	0	0	0	494	129	
5	0	0	0	0	492	129	
6	0	0	0	0	490	128	
7	0	0	0	0	487	129	
8	0	0	0	0	484	129	
9	0	0	0	0	480	128	
10	0	0	0	0	476	128	
11	0	0	0	0	472	129	
12	0	0	0	0	470	128	
13	0	0	0	0	470	128	
14	0	0	0	0	469	129	
15	0	0	0	0	470	129	
0	0	0	0	0	470	128	
1	0	0	0	0	471	129	
2	0	0	0	0	474	129	
3	0	0	0	0	477	128	
4	0	0	0	0	479	128	
5	0	0	0	0	480	129	
6	0	0	0	0	479	128	
7	0	0	0	0	477	128	
8	0	0	0	0	474	129	
9	0	0	0	0	470	128	
10	0	0	0	0	467	128	
11	0	0	0	0	467	129	
12	0	0	0	0	465	128	
13	0	0	0	0	466	129	
14	0	0	0	0	468	129	
15	0	0	0	0	468	128	
0	0	0	0	0	470	129	
1	0	0	0	0	472	129	
2	0	0	0	0	473	128	
3	0	0	0	0	475	129	
4	0	0	0	0	477	129	
5	0	0	0	0	478	128	
6	0	0	0	0	477	129	
7	0	0	0	0	474	129	
8	0	0	0	0	470	128	
9	0	0	0	0	465	129	
10	0	0	0	0	461	129	
11	0	0	0	0	455	128	
12	0	0	0	0	451	129	
13	0	0	0	0	447	129	
14	0	0	0	0	444	128	
15	0	0	0	0	444	129	
0	0	0	0	0	445	129	
1	0	0	0	0	448	128	
2	0	0	0	0	453	129	
3	0	0	0	0	460	129	
4	0	0	0	0	465	128	
5	0	0	0	0	468	129	
6	0	0	0	0	469	129	
7	0	0	0	0	469	128	
8	0	0	0	0	468	129	
9	0	0	0	0	465	129	
10	0	0	0	0	462	128	
11	0	0	0	0	458	129	
12	0	0	0	0	455	128	
13	0	0	0	0	455	129	
14	0	0	0	0	453	129	
15	0	0	0	0	454	128	
0	0	0	0	0	455	129	
1	0	0	0	0	458	129	
2	0	0	0	0	461	128	
3	0	0	0	0	465	129	
4	0	0	0	0	469	129	
5	0	0	0	0	471	128	
6	0	0	0	0	472	128	
7	0	0	0	0	472	129	
8	0	0	0	0	469	129	
9	0	0	0	0	466	128	
10	0	0	0	0	463	129	
11	0	0	0	0	462	129	
12	0	0	0	0	460	128	
13	0	0	0	0	457	129	
14	0	0	0	0	455	128	
15	0	0	0	0	455	128	
0	0	0	0	0	459	129	
1	0	0	0	0	462	128	
2	0	0	0	0	464	128	
3	0	0	0	0	468	129	
4	0	0	0	0	472	128	
5	0	0	0	0	475	129	
6	0	0	0	0	478	128	
7	0	0	0	0	481	128	
8	0	0	0	0	482	129	
9	0	0	0	0	481	128	
10	0	0	0	0	480	129	
11	0	0	0	0	479	129	
12	0	0	0	0	477	128	
13	0	0	0	0	474	129	
14	0	0	0	0	472	128	
15	0	0	0	0	471	128	
0	0	0	0	0	471	129	
1	0	0	0	0	472	128	
2	0	0	0	0	474	128	
3	0	0	0	0	478	129	
4	0	0	0	0	481	128	
5	0	0	0	0	486	129	
6	0	0	0	0	489	129	
7	0	0	0	0	492	128	
8	0	0	0	0	492	128	
9	0	0	0	0	492	129	
10	0	0	0	0	492	128	
11	0	0	0	0	491	128	
12	0	0	0	0	489	129	
13	0	0	0	0	488	129	
14	0	0	0	0	488	128	
15	0	0	0	0	488	128	
0	0	0	0	0	487	129	
1	0	0	0	0	486	129	
2	0	0	0	0	485	128	
3	0	0	0	0	486	129	
4	0	0	0	0	488	129	
5	0	0	0	0	492	128	
6	0	0	0	0	496	129	
7	0	0	0	0	499	129	
8	0	0	0	0	503	128	
9	0	0	0	0	506	129	
10	0	0	0	0	507	129	
11	0	0	0	0	505	128	
12	0	0	0	0	502	129	
13	0	0	0	0	499	129	
14	0	0	0	0	496	128	
15	0	0	0	0	494	129	
0	0	0	0	0	492	128	
1	0	0	0	0	493	128	
2	0	0	0	0	493	129	
3	0	0	0	0	494	128	
4	0	0	0	0	496	128	
5	0	0	0	0	499	129	
6	0	0	0	0	502	129	
7	0	0	0	0	505	128	
8	0	0	0	0	508	129	
9	0	0	0	0	509	129	
10	0	0	0	0	510	128	
11	0	0	0	0	510	129	
12	0	0	0	0	508	128	
13	0	0	0	0	507	128	
14	0	0	0	0	504	128	
15	0	0	0	0	500	129	
0	0	0	0	0	497	128	
1	0	0	0	0	495	129	
2	0	0	0	0	496	129	
3	0	0	0	0	497	128	
4	0	0	0	0	498	129	
5	0	0	0	0	500	128	
6	0	0	0	0	502	128	
7	0	0	0	0	506	129	
8	0	0	0	0	510	128	
9	0	0	0	0	513	127	
10	0	0	0	0	515	129	
11	0	0	0	0	515	128	
12	0	0	0	0	514	128	
13	0	0	0	0	512	129	
14	0	0	0	0	510	128	
15	0	0	0	0	507	128	
0	0	0	0	0	504	129	
1	0	0	0	0	502	128	
2	0	0	0	0	501	129	
3	0	0	0	0	502	128	
4	0	0	0	0	503	128	
5	0	0	0	0	506	129	
6	0	0	0	0	509	128	
7	0	0	0	0	512	129	
8	0	0	0	0	515	128	
9	0	0	0	0	517	128	
10	0	0	0	0	519	129	
11	0	0	0	0	519	128	
12	0	0	0	0	516	128	
13	0	0	0	0	514	129	
14	0	0	0	0	511	128	
15	0	0	0	0	509	128	
0	0	0	0	0	508	129	
1	0	0	0	0	506	128	
2	0	0	0	0	504	128	
3	0	0	0	0	503	129	
4	0	0	0	0	504	128	
5	0	0	0	0	505	128	
6	0	0	0	0	507	129	
7	0	0	0	0	509	128	
8	0	0	0	0	512	128	
9	0	0	0	0	513	129	
10	0	0	0	0	516	128	
11	0	0	0	0	518	127	
12	0	0	0	0	519	129	
13	0	0	0	0	518	128	
14	0	0	0	0	515	127	
15	0	0	0	0	513	129	
0	0	0	0	0	511	129	
1	0	0	0	0	508	128	
2	0	0	0	0	506	128	
3	0	0	0	0	505	129	
4	0	0	0	0	504	128	
5	0	0	0	0	504	128	
6	0	0	0	0	506	129	
7	0	0	0	0	509	128	
8	0	0	0	0	512	127	
9	0	0	0	0	515	129	
10	0	0	0	0	519	128	
11	0	0	0	0	520	127	
12	0	0	0	0	521	129	
13	0	0	0	0	519	128	
14	0	0	0	0	516	128	
15	0	0	0	0	513	128	
0	0	0	0	0	511	129	
1	0	0	0	0	508	128	
2	0	0	0	0	504	128	
3	0	0	0	0	503	129	
4	0	0	0	0	502	128	
5	0	0	0	0	504	128	
6	0	0	0	0	504	128	
7	0	0	0	0	507	128	
8	0	0	0	0	509	128	
9	0	0	0	0	512	129	
10	0	0	0	0	515	128	
11	0	0	0	0	518	128	
12	0	0	0	0	520	129	
13	0	0	0	0	522	128	
14	0	0	0	0	520	128	
15	0	0	0	0	518	128	
0	0	0	0	0	515	128	
1	0	0	0	0	512	128	
2	0	0	0	0	508	129	
3	0	0	0	0	504	128	
4	0	0	0	0	501	128	
5	0	0	0	0	499	129	
6	0	0	0	0	498	128	
7	0	0	0	0	497	128	
8	0	0	0	0	498	129	
9	0	0	0	0	501	128	
10	0	0	0	0	504	128	
11	0	0	0	0	508	129	
12	0	0	0	0	510	128	
13	0	0	0	0	512	128	
14	0	0	0	0	512	129	
15	0	0	0	0	512	128	
0	0	0	0	0	511	129	
1	0	0	0	0	509	129	
2	0	0	0	0	507	128	
3	0	0	0	0	504	128	
4	0	0	0	0	502	129	
5	0	0	0	0	501	128	
6	0	0	0	0	502	129	
7	0	0	0	0	502	128	
8	0	0	0	0	503	128	
9	0	0	0	0	505	129	
10	0	0	0	0	508	128	
11	0	0	0	0	510	129	
12	0	0	0	0	512	129	
13	0	0	0	0	515	128	
14	0	0	0	0	516	129	
15	0	0	0	0	516	129	
0	0	0	0	0	514	128	
1	0	0	0	0	511	128	
2	0	0	0	0	509	129	
3	0	0	0	0	506	128	
4	0	0	0	0	504	128	
5	0	0	0	0	502	129	
6	0	0	0	0	500	128	
7	0	0	0	0	501	128	
8	0	0	0	0	502	129	
9	0	0	0	0	504	128	
10	0	0	0	0	507	128	
11	0	0	0	0	510	129	
12	0	0	0	0	513	127	
13	0	0	0	0	515	129	
14	0	0	0	0	516	128	
15	0	0	0	0	517	128	
0	0	0	0	0	516	129	
1	0	0	0	0	515	128	
2	0	0	0	0	512	128	
3	0	0	0	0	509	129	
4	0	0	0	0	506	129	
5	0	0	0	0	503	128	
6	0	0	0	0	501	129	
7	0	0	0	0	501	128	
8	0	0	0	0	501	128	
9	0	0	0	0	502	129	
10	0	0	0	0	504	129	
11	0	0	0	0	507	128	
12	0	0	0	0	511	129	
13	0	0	0	0	514	128	
14	0	0	0	0	515	128	
15	0	0	0	0	517	129	
0	0	0	0	0	518	129	
1	0	0	0	0	517	128	
2	0	0	0	0	515	129	
3	0	0	0	0	513	129	
4	0	0	0	0	510	128	
5	0	0	0	0	508	128	
6	0	0	0	0	505	129	
7	0	0	0	0	503	128	
8	0	0	0	0	503	128	
9	0	0	0	0	503	128	
10	0	0	0	0	505	129	
11	0	0	0	0	508	129	
12	0	0	0	0	511	128	
13	0	0	0	0	515	128	
14	0	0	0	0	518	129	
15	0	0	0	0	519	128	
0	0	0	0	0	520	128	
1	0	0	0	0	520	129	
2	0	0	0	0	519	129	
3	0	0	0	0	516	128	
4	0	0	0	0	513	129	
5	0	0	0	0	511	128	
6	0	0	0	0	508	128	
7	0	0	0	0	507	129	
8	0	0	0	0	505	128	
9	0	0	0	0	506	129	
10	0	0	0	0	508	128	
11	0	0	0	0	512	128	
12	0	0	0	0	516	129	
13	0	0	0	0	518	128	
14	0	0	0	0	520	129	
15	0	0	0	0	523	128	
0	0	0	0	0	525	128	
1	0	0	0	0	525	129	
2	0	0	0	0	524	128	
3	0	0	0	0	524	129	
4	0	0	0	0	521	129	
5	0	0	0	0	519	128	
6	0	0	0	0	516	129	
7	0	0	0	0	513	128	
8	0	0	0	0	511	128	
9	0	0	0	0	511	129	
10	0	0	0	0	510	128	
11	0	0	0	0	511	129	
12	0	0	0	0	512	129	
13	0	0	0	0	515	128	
14	0	0	0	0	519	129	
15	0	0	0	0	523	129	
0	0	0	0	0	526	128	
1	0	0	0	0	527	129	
2	0	0	0	0	527	128	
3	0	0	0	0	526	127	
4	0	0	0	0	525	129	
5	0	0	0	0	523	128	
6	0	0	0	0	519	128	
7	0	0	0	0	515	129	
8	0	0	0	0	512	128	
9	0	0	0	0	511	128	
10	0	0	0	0	510	129	
11	0	0	0	0	510	128	
12	0	0	0	0	513	128	
13	0	0	0	0	518	129	
14	0	0	0	0	522	128	
15	0	0	0	0	526	128	
0	0	0	0	0	529	129	
1	0	0	0	0	531	128	
2	0	0	0	0	532	129	
3	0	0	0	0	532	128	
4	0	0	0	0	529	128	
5	0	0	0	0	527	129	
6	0	0	0	0	523	128	
7	0	0	0	0	520	128	
8	0	0	0	0	518	129	
9	0	0	0	0	516	128	
10	0	0	0	0	515	129	
11	0	0	0	0	516	128	
12	0	0	0	0	518	128	
13	0	0	0	0	520	129	
14	0	0	0	0	524	128	
15	0	0	0	0	528	129	
0	0	0	0	0	532	129	
1	0	0	0	0	535	128	
2	0	0	0	0	536	128	
3	0	0	0	0	536	129	
4	0	0	0	0	535	128	
5	0	0	0	0	533	127	
6	0	0	0	0	531	129	
7	0	0	0	0	528	129	
8	0	0	0	0	525	128	
9	0	0	0	0	520	129	
10	0	0	0	0	516	129	
11	0	0	0	0	514	128	
12	0	0	0	0	513	129	
13	0	0	0	0	514	129	
14	0	0	0	0	516	128	
15	0	0	0	0	519	129	
0	0	0	0	0	523	129	
1	0	0	0	0	527	128	
2	0	0	0	0	530	129	
3	0	0	0	0	533	129	
4	0	0	0	0	534	128	
5	0	0	0	0	534	129	
6	0	0	0	0	532	128	
7	0	0	0	0	530	128	
8	0	0	0	0	528	129	
9	0	0	0	0	524	128	
10	0	0	0	0	521	128	
11	0	0	0	0	520	129	
12	0	0	0	0	519	128	
13	0	0	0	0	521	129	
14	0	0	0	0	524	128	
15	0	0	0	0	528	129	
0	0	0	0	0	532	129	
1	0	0	0	0	535	128	
2	0	0	0	0	537	129	
3	0	0	0	0	539	129	
4	0	0	0	0	540	128	
5	0	0	0	0	540	129	
6	0	0	0	0	537	128	
7	0	0	0	0	535	128	
8	0	0	0	0	531	129	
9	0	0	0	0	527	128	
10	0	0	0	0	524	128	
11	0	0	0	0	522	129	
12	0	0	0	0	519	128	
13	0	0	0	0	519	128	
14	0	0	0	0	521	129	
15	0	0	0	0	525	129	
0	0	0	0	0	528	128	
1	0	0	0	0	529	129	
2	0	0	0	0	531	129	
3	0	0	0	0	532	128	
4	0	0	0	0	534	129	
5	0	0	0	0	536	129	
6	0	0	0	0	535	128	
7	0	0	0	0	533	129	
8	0	0	0	0	530	129	
9	0	0	0	0	527	128	
10	0	0	0	0	524	129	
11	0	0	0	0	520	129	
12	0	0	0	0	516	128	
13	0	0	0	0	513	129	
14	0	0	0	0	511	128	
15	0	0	0	0	511	129	
0	0	0	0	0	512	129	
1	0	0	0	0	514	128	
2	0	0	0	0	517	129	
3	0	0	0	0	521	128	
4	0	0	0	0	524	129	
5	0	0	0	0	526	129	
6	0	0	0	0	525	128	
7	0	0	0	0	524	129	
8	0	0	0	0	523	128	
9	0	0	0	0	519	128	
10	0	0	0	0	516	129	
11	0	0	0	0	513	129	
12	0	0	0	0	511	128	
13	0	0	0	0	511	129	
14	0	0	0	0	511	128	
15	0	0	0	0	511	128	
0	0	0	0	0	513	129	
1	0	0	0	0	516	128	
2	0	0	0	0	520	128	
3	0	0	0	0	523	129	
4	0	0	0	0	525	128	
5	0	0	0	0	526	129	
6	0	0	0	0	526	129	
7	0	0	0	0	524	128	
8	0	0	0	0	522	129	
9	0	0	0	0	519	129	
10	0	0	0	0	517	128	
11	0	0	0	0	513	129	
12	0	0	0	0	512	128	
13	0	0	0	0	510	128	
14	0	0	0	0	508	129	
15	0	0	0	0	508	128	
0	0	0	0	0	508	129	
1	0	0	0	0	508	129	
2	0	0	0	0	510	128	
3	0	0	0	0	511	129	
4	0	0	0	0	512	128	
5	0	0	0	0	513	129	
6	0	0	0	0	515	128	
7	0	0	0	0	516	129	
8	0	0	0	0	515	129	
9	0	0	0	0	514	128	
10	0	0	0	0	512	129	
11	0	0	0	0	511	129	
12	0	0	0	0	509	128	
13	0	0	0	0	507	129	
14	0	0	0	0	505	129	
15	0	0	0	0	503	128	
0	0	0	0	0	502	129	
1	0	0	0	0	504	129	
2	0	0	0	0	506	128	
3	0	0	0	0	508	129	
4	0	0	0	0	510	129	
5	0	0	0	0	512	128	
6	0	0	0	0	514	129	
7	0	0	0	0	514	129	
8	0	0	0	0	513	128	
9	0	0	0	0	511	128	
10	0	0	0	0	510	129	
11	0	0	0	0	508	128	
12	0	0	0	0	505	128	
13	0	0	0	0	503	129	
14	0	0	0	0	500	129	
15	0	0	0	0	499	128	
0	0	0	0	0	497	129	
1	0	0	0	0	498	129	
2	0	0	0	0	500	128	
3	0	0	0	0	504	129	
4	0	0	0	0	506	128	
5	0	0	0	0	508	128	
6	0	0	0	0	511	129	
7	0	0	0	0	513	128	
8	0	0	0	0	513	129	
9	0	0	0	0	514	129	
10	0	0	0	0	512	128	
11	0	0	0	0	511	129	
12	0	0	0	0	509	129	
13	0	0	0	0	508	128	
14	0	0	0	0	506	129	
15	0	0	0	0	504	129	
0	0	0	0	0	504	129	
1	0	0	0	0	503	129	
2	0	0	0	0	503	129	
3	0	0	0	0	505	129	
4	0	0	0	0	508	129	
5	0	0	0	0	512	128	
6	0	0	0	0	514	129	
7	0	0	0	0	516	129	
8	0	0	0	0	517	128	
9	0	0	0	0	518	128	
10	0	0	0	0	516	129	
11	0	0	0	0	513	128	
12	0	0	0	0	511	129	
13	0	0	0	0	508	129	
14	0	0	0	0	505	128	
15	0	0	0	0	504	129	
0	0	0	0	0	502	129	
1	0	0	0	0	501	128	
2	0	0	0	0	502	129	
3	0	0	0	0	504	129	
4	0	0	0	0	506	128	
5	0	0	0	0	510	129	
6	0	0	0	0	512	129	
7	0	0	0	0	515	128	
8	0	0	0	0	518	129	
9	0	0	0	0	519	129	
10	0	0	0	0	519	128	
11	0	0	0	0	516	129	
12	0	0	0	0	515	129	
13	0	0	0	0	513	128	
14	0	0	0	0	510	129	
15	0	0	0	0	506	129	
0	0	0	0	0	504	128	
1	0	0	0	0	504	129	
2	0	0	0	0	502	129	
3	0	0	0	0	501	129	
4	0	0	0	0	502	129	
5	0	0	0	0	505	128	
6	0	0	0	0	509	129	
7	0	0	0	0	512	129	
8	0	0	0	0	515	128	
9	0	0	0	0	516	129	
10	0	0	0	0	516	129	
11	0	0	0	0	513	128	
12	0	0	0	0	511	129	
13	0	0	0	0	510	129	
14	0	0	0	0	507	128	
15	0	0	0	0	503	129	
0	0	0	0	0	500	129	
1	0	0	0	0	498	129	
2	0	0	0	0	496	128	
3	0	0	0	0	497	129	
4	0	0	0	0	498	129	
5	0	0	0	0	501	128	
6	0	0	0	0	504	129	
7	0	0	0	0	508	129	
8	0	0	0	0	513	128	
9	0	0	0	0	516	129	
10	0	0	0	0	519	129	
11	0	0	0	0	520	128	
12	0	0	0	0	520	129	
13	0	0	0	0	519	129	
14	0	0	0	0	517	128	
15	0	0	0	0	514	129	
0	0	0	0	0	511	129	
1	0	0	0	0	508	128	
2	0	0	0	0	505	129	
3	0	0	0	0	504	129	
4	0	0	0	0	505	128	
5	0	0	0	0	508	129	
6	0	0	0	0	511	129	
7	0	0	0	0	515	129	
8	0	0	0	0	519	128	
9	0	0	0	0	521	129	
10	0	0	0	0	524	129	
11	0	0	0	0	525	128	
12	0	0	0	0	526	129	
13	0	0	0	0	525	128	
14	0	0	0	0	525	129	
15	0	0	0	0	523	129	
0	0	0	0	0	519	128	
1	0	0	0	0	518	129	
2	0	0	0	0	516	129	
3	0	0	0	0	515	129	
4	0	0	0	0	515	129	
5	0	0	0	0	516	129	
6	0	0	0	0	517	129	
7	0	0	0	0	521	128	
8	0	0	0	0	524	129	
9	0	0	0	0	527	129	
10	0	0	0	0	529	129	
11	0	0	0	0	531	129	
12	0	0	0	0	532	129	
13	0	0	0	0	531	128	
14	0	0	0	0	529	129	
15	0	0	0	0	526	129	
0	0	0	0	0	524	128	
1	0	0	0	0	521	129	
2	0	0	0	0	518	129	
3	0	0	0	0	515	128	
4	0	0	0	0	513	129	
5	0	0	0	0	513	129	
6	0	0	0	0	513	128	
7	0	0	0	0	515	129	
8	0	0	0	0	519	129	
9	0	0	0	0	523	128	
10	0	0	0	0	527	129	
11	0	0	0	0	530	129	
12	0	0	0	0	533	128	
13	0	0	0	0	535	129	
14	0	0	0	0	535	129	
15	0	0	0	0	534	128	
0	0	0	0	0	532	129	
1	0	0	0	0	529	129	
2	0	0	0	0	526	128	
3	0	0	0	0	524	129	
4	0	0	0	0	522	129	
5	0	0	0	0	521	128	
6	0	0	0	0	521	129	
7	0	0	0	0	522	129	
8	0	0	0	0	524	128	
9	0	0	0	0	527	129	
10	0	0	0	0	530	129	
11	0	0	0	0	533	129	
12	0	0	0	0	536	129	
13	0	0	0	0	538	129	
14	0	0	0	0	540	129	
15	0	0	0	0	540	128	
0	0	0	0	0	539	129	
1	0	0	0	0	539	129	
2	0	0	0	0	538	128	
3	0	0	0	0	536	129	
4	0	0	0	0	534	129	
5	0	0	0	0	532	129	
6	0	0	0	0	532	129	
7	0	0	0	0	532	129	
8	0	0	0	0	535	129	
9	0	0	0	0	539	128	
10	0	0	0	0	543	129	
11	0	0	0	0	548	129	
12	0	0	0	0	554	128	
13	0	0	0	0	559	129	
14	0	0	0	0	561	129	
15	0	0	0	0	563	129	
0	0	0	0	0	564	128	
1	0	0	0	0	565	129	
2	0	0	0	0	565	128	
3	0	0	0	0	564	128	
4	0	0	0	0	564	129	
5	0	0	0	0	566	129	
6	0	0	0	0	566	128	
7	0	0	0	0	568	129	
8	0	0	0	0	571	129	
9	0	0	0	0	574	128	
10	0	0	0	0	577	129	
11	0	0	0	0	579	129	
12	0	0	0	0	580	128	
13	0	0	0	0	580	129	
14	0	0	0	0	580	129	
15	0	0	0	0	576	128	
0	0	0	0	0	570	129	
1	0	0	0	0	563	129	
2	0	0	0	0	556	128	
3	0	0	0	0	546	130	
4	0	0	0	0	536	129	
5	0	0	0	0	527	129	
6	0	0	0	0	522	130	
7	0	0	0	0	517	129	
8	0	0	0	0	514	129	
9	0	0	0	0	510	130	
10	0	0	0	0	507	129	
11	0	0	0	0	505	129	
12	0	0	0	0	503	130	
13	0	0	0	0	501	129	
14	0	0	0	0	500	130	
15	0	0	0	0	498	129	
0	0	0	0	0	497	129	
1	0	0	0	0	493	130	
2	0	0	0	0	488	129	
3	0	0	0	0	483	130	
4	0	0	0	0	478	129	
5	0	0	0	0	472	130	
6	0	0	0	0	465	130	
7	0	0	0	0	458	129	
8	0	0	0	0	455	130	
9	0	0	0	0	454	130	
10	0	0	0	0	455	129	
11	0	0	0	0	459	130	
12	0	0	0	0	464	129	
13	0	0	0	0	470	130	
14	0	0	0	0	476	130	
15	0	0	0	0	482	129	
0	0	0	0	0	487	130	
1	0	0	0	0	488	129	
2	0	0	0	0	489	129	
3	0	0	0	0	489	130	
4	0	0	0	0	488	129	
5	0	0	0	0	487	130	
6	0	0	0	0	488	130	
7	0	0	0	0	491	129	
8	0	0	0	0	492	129	
9	0	0	0	0	495	130	
10	0	0	0	0	498	129	
11	0	0	0	0	502	130	
12	0	0	0	0	507	130	
13	0	0	0	0	512	129	
14	0	0	0	0	516	129	
15	0	0	0	0	521	129	
0	0	0	0	0	525	129	
1	0	0	0	0	528	129	
2	0	0	0	0	527	130	
3	0	0	0	0	524	129	
4	0	0	0	0	524	129	
5	0	0	0	0	521	130	
6	0	0	0	0	518	130	
7	0	0	0	0	515	129	
8	0	0	0	0	513	129	
9	0	0	0	0	511	130	
10	0	0	0	0	511	130	
11	0	0	0	0	511	129	
12	0	0	0	0	512	129	
13	0	0	0	0	515	130	
14	0	0	0	0	519	129	
15	0	0	0	0	523	129	
0	0	0	0	0	524	130	
1	0	0	0	0	524	129	
2	0	0	0	0	524	129	
3	0	0	0	0	523	130	
4	0	0	0	0	521	129	
5	0	0	0	0	518	129	
6	0	0	0	0	515	130	
7	0	0	0	0	512	129	
8	0	0	0	0	509	129	
9	0	0	0	0	508	130	
10	0	0	0	0	508	130	
11	0	0	0	0	507	129	
12	0	0	0	0	509	130	
13	0	0	0	0	513	130	
14	0	0	0	0	516	129	
15	0	0	0	0	519	130	
0	0	0	0	0	520	130	
1	0	0	0	0	523	129	
2	0	0	0	0	523	129	
3	0	0	0	0	522	130	
4	0	0	0	0	521	129	
5	0	0	0	0	519	130	
6	0	0	0	0	517	129	
7	0	0	0	0	515	129	
8	0	0	0	0	511	130	
9	0	0	0	0	508	130	
10	0	0	0	0	505	129	
11	0	0	0	0	504	130	
12	0	0	0	0	504	130	
13	0	0	0	0	505	129	
14	0	0	0	0	507	130	
15	0	0	0	0	510	130	
0	0	0	0	0	512	129	
1	0	0	0	0	514	130	
2	0	0	0	0	516	129	
3	0	0	0	0	516	129	
4	0	0	0	0	513	130	
5	0	0	0	0	511	129	
6	0	0	0	0	511	130	
7	0	0	0	0	509	130	
8	0	0	0	0	507	129	
9	0	0	0	0	505	129	
10	0	0	0	0	503	130	
11	0	0	0	0	502	130	
12	0	0	0	0	502	129	
13	0	0	0	0	500	129	
14	0	0	0	0	500	130	
15	0	0	0	0	503	130	
0	0	0	0	0	506	129	
1	0	0	0	0	509	130	
2	0	0	0	0	512	130	
3	0	0	0	0	514	129	
4	0	0	0	0	515	129	
5	0	0	0	0	515	130	
6	0	0	0	0	514	129	
7	0	0	0	0	513	129	
8	0	0	0	0	511	130	
9	0	0	0	0	508	130	
10	0	0	0	0	505	129	
11	0	0	0	0	503	130	
12	0	0	0	0	503	130	
13	0	0	0	0	504	129	
14	0	0	0	0	506	129	
15	0	0	0	0	510	130	
0	0	0	0	0	514	130	
1	0	0	0	0	516	129	
2	0	0	0	0	518	130	
3	0	0	0	0	519	130	
4	0	0	0	0	520	129	
5	0	0	0	0	519	130	
6	0	0	0	0	517	130	
7	0	0	0	0	515	129	
8	0	0	0	0	512	130	
9	0	0	0	0	508	129	
10	0	0	0	0	505	129	
11	0	0	0	0	502	130	
12	0	0	0	0	500	130	
13	0	0	0	0	499	129	
14	0	0	0	0	499	130	
15	0	0	0	0	502	130	
0	0	0	0	0	505	129	
1	0	0	0	0	508	130	
2	0	0	0	0	512	130	
3	0	0	0	0	515	129	
4	0	0	0	0	517	129	
5	0	0	0	0	518	130	
6	0	0	0	0	516	129	
7	0	0	0	0	513	129	
8	0	0	0	0	509	130	
9	0	0	0	0	508	130	
10	0	0	0	0	505	129	
11	0	0	0	0	504	131	
12	0	0	0	0	503	130	
13	0	0	0	0	503	129	
14	0	0	0	0	503	129	
15	0	0	0	0	504	130	
0	0	0	0	0	508	130	
1	0	0	0	0	513	129	
2	0	0	0	0	515	130	
3	0	0	0	0	518	130	
4	0	0	0	0	519	129	
5	0	0	0	0	520	130	
6	0	0	0	0	519	130	
7	0	0	0	0	517	129	
8	0	0	0	0	515	130	
9	0	0	0	0	512	130	
10	0	0	0	0	510	129	
11	0	0	0	0	508	130	
12	0	0	0	0	507	130	
13	0	0	0	0	505	129	
14	0	0	0	0	505	130	
15	0	0	0	0	505	130	
0	0	0	0	0	507	129	
1	0	0	0	0	510	130	
2	0	0	0	0	513	130	
3	0	0	0	0	516	129	
4	0	0	0	0	521	130	
5	0	0	0	0	525	129	
6	0	0	0	0	526	130	
7	0	0	0	0	525	130	
8	0	0	0	0	524	129	
9	0	0	0	0	522	130	
10	0	0	0	0	519	130	
11	0	0	0	0	518	129	
12	0	0	0	0	515	130	
13	0	0	0	0	512	129	
14	0	0	0	0	511	130	
15	0	0	0	0	511	130	
0	0	0	0	0	512	129	
1	0	0	0	0	514	130	
2	0	0	0	0	518	130	
3	0	0	0	0	521	130	
4	0	0	0	0	524	129	
5	0	0	0	0	527	130	
6	0	0	0	0	529	130	
7	0	0	0	0	529	129	
8	0	0	0	0	527	130	
9	0	0	0	0	526	129	
10	0	0	0	0	524	130	
11	0	0	0	0	522	130	
12	0	0	0	0	520	129	
13	0	0	0	0	519	131	
14	0	0	0	0	517	130	
15	0	0	0	0	515	129	
0	0	0	0	0	516	130	
1	0	0	0	0	518	130	
2	0	0	0	0	519	129	
3	0	0	0	0	522	130	
4	0	0	0	0	524	130	
5	0	0	0	0	528	130	
6	0	0	0	0	530	129	
7	0	0	0	0	531	130	
8	0	0	0	0	531	130	
9	0	0	0	0	529	129	
10	0	0	0	0	528	130	
11	0	0	0	0	526	129	
12	0	0	0	0	524	131	
13	0	0	0	0	521	130	
14	0	0	0	0	520	129	
15	0	0	0	0	519	130	
0	0	0	0	0	519	130	
1	0	0	0	0	519	131	
2	0	0	0	0	521	130	
3	0	0	0	0	523	129	
4	0	0	0	0	526	130	
5	0	0	0	0	529	130	
6	0	0	0	0	532	130	
7	0	0	0	0	534	130	
8	0	0	0	0	532	130	
9	0	0	0	0	531	130	
10	0	0	0	0	529	130	
11	0	0	0	0	527	129	
12	0	0	0	0	525	130	
13	0	0	0	0	522	130	
14	0	0	0	0	519	130	
15	0	0	0	0	516	131	
0	0	0	0	0	515	130	
1	0	0	0	0	515	131	
2	0	0	0	0	515	130	
3	0	0	0	0	516	130	
4	0	0	0	0	519	130	
5	0	0	0	0	522	129	
6	0	0	0	0	526	130	
7	0	0	0	0	528	130	
8	0	0	0	0	530	130	
9	0	0	0	0	529	131	
10	0	0	0	0	528	129	
11	0	0	0	0	525	130	
12	0	0	0	0	521	130	
13	0	0	0	0	517	130	
14	0	0	0	0	513	130	
15	0	0	0	0	510	130	
0	0	0	0	0	508	131	
1	0	0	0	0	507	130	
2	0	0	0	0	507	130	
3	0	0	0	0	507	131	
4	0	0	0	0	508	130	
5	0	0	0	0	511	131	
6	0	0	0	0	512	130	
7	0	0	0	0	514	131	
8	0	0	0	0	516	130	
9	0	0	0	0	516	130	
10	0	0	0	0	516	131	
11	0	0	0	0	513	130	
12	0	0	0	0	510	131	
13	0	0	0	0	507	130	
14	0	0	0	0	504	131	
15	0	0	0	0	501	130	
0	0	0	0	0	499	131	
1	0	0	0	0	497	131	
2	0	0	0	0	496	130	
3	0	0	0	0	497	131	
4	0	0	0	0	497	130	
5	0	0	0	0	499	131	
6	0	0	0	0	502	131	
7	0	0	0	0	505	130	
8	0	0	0	0	507	131	
9	0	0	0	0	508	130	
10	0	0	0	0	509	130	
11	0	0	0	0	508	131	
12	0	0	0	0	505	130	
13	0	0	0	0	502	131	
14	0	0	0	0	497	130	
15	0	0	0	0	493	131	
0	0	0	0	0	490	131	
1	0	0	0	0	488	130	
2	0	0	0	0	487	130	
3	0	0	0	0	487	131	
4	0	0	0	0	487	130	
5	0	0	0	0	488	130	
6	0	0	0	0	492	131	
7	0	0	0	0	496	130	
8	0	0	0	0	499	131	
9	0	0	0	0	500	131	
10	0	0	0	0	502	130	
11	0	0	0	0	501	131	
12	0	0	0	0	499	130	
13	0	0	0	0	496	130	
14	0	0	0	0	494	131	
15	0	0	0	0	492	130	
0	0	0	0	0	488	130	
1	0	0	0	0	484	131	
2	0	0	0	0	481	131	
3	0	0	0	0	480	130	
4	0	0	0	0	480	131	
5	0	0	0	0	480	131	
6	0	0	0	0	483	130	
7	0	0	0	0	487	131	
8	0	0	0	0	489	131	
9	0	0	0	0	494	130	
10	0	0	0	0	497	131	
11	0	0	0	0	498	131	
12	0	0	0	0	497	130	
13	0	0	0	0	495	131	
14	0	0	0	0	493	131	
15	0	0	0	0	492	130	
0	0	0	0	0	489	131	
1	0	0	0	0	484	130	
2	0	0	0	0	480	131	
3	0	0	0	0	478	131	
4	0	0	0	0	475	130	
5	0	0	0	0	475	131	
6	0	0	0	0	476	131	
7	0	0	0	0	477	130	
8	0	0	0	0	479	131	
9	0	0	0	0	482	131	
10	0	0	0	0	485	130	
11	0	0	0	0	487	131	
12	0	0	0	0	488	131	
13	0	0	0	0	487	130	
14	0	0	0	0	485	131	
15	0	0	0	0	484	131	
0	0	0	0	0	481	130	
1	0	0	0	0	479	131	
2	0	0	0	0	476	131	
3	0	0	0	0	472	130	
4	0	0	0	0	470	131	
5	0	0	0	0	469	131	
6	0	0	0	0	470	130	
7	0	0	0	0	471	131	
8	0	0	0	0	473	130	
9	0	0	0	0	477	131	
10	0	0	0	0	481	131	
11	0	0	0	0	483	130	
12	0	0	0	0	487	131	
13	0	0	0	0	487	130	
14	0	0	0	0	488	130	
15	0	0	0	0	486	131	
0	0	0	0	0	483	131	
1	0	0	0	0	480	130	
2	0	0	0	0	477	131	
3	0	0	0	0	473	131	
4	0	0	0	0	470	130	
5	0	0	0	0	469	131	
6	0	0	0	0	470	131	
7	0	0	0	0	470	130	
8	0	0	0	0	472	131	
9	0	0	0	0	476	131	
10	0	0	0	0	480	130	
11	0	0	0	0	484	131	
12	0	0	0	0	488	131	
13	0	0	0	0	492	130	
14	0	0	0	0	494	131	
15	0	0	0	0	493	131	
0	0	0	0	0	489	130	
1	0	0	0	0	486	131	
2	0	0	0	0	484	131	
3	0	0	0	0	483	130	
4	0	0	0	0	480	131	
5	0	0	0	0	480	131	
6	0	0	0	0	482	130	
7	0	0	0	0	483	131	
8	0	0	0	0	485	131	
9	0	0	0	0	488	130	
10	0	0	0	0	490	131	
11	0	0	0	0	492	131	
12	0	0	0	0	494	131	
13	0	0	0	0	496	130	
14	0	0	0	0	497	131	
15	0	0	0	0	496	130	
0	0	0	0	0	494	131	
1	0	0	0	0	493	131	
2	0	0	0	0	492	130	
3	0	0	0	0	491	131	
4	0	0	0	0	489	131	
5	0	0	0	0	488	130	
6	0	0	0	0	488	131	
7	0	0	0	0	489	131	
8	0	0	0	0	491	131	
9	0	0	0	0	493	131	
10	0	0	0	0	496	131	
11	0	0	0	0	500	131	
12	0	0	0	0	505	131	
13	0	0	0	0	510	131	
14	0	0	0	0	513	130	
15	0	0	0	0	515	131	
0	0	0	0	0	514	131	
1	0	0	0	0	512	130	
2	0	0	0	0	510	131	
3	0	0	0	0	506	131	
4	0	0	0	0	504	130	
5	0	0	0	0	500	131	
6	0	0	0	0	499	131	
7	0	0	0	0	498	130	
8	0	0	0	0	499	131	
9	0	0	0	0	501	131	
10	0	0	0	0	504	130	
11	0	0	0	0	508	131	
12	0	0	0	0	512	131	
13	0	0	0	0	516	130	
14	0	0	0	0	519	131	
15	0	0	0	0	520	130	
0	0	0	0	0	521	131	
1	0	0	0	0	519	131	
2	0	0	0	0	517	130	
3	0	0	0	0	514	131	
4	0	0	0	0	511	131	
5	0	0	0	0	508	130	
6	0	0	0	0	505	131	
7	0	0	0	0	503	131	
8	0	0	0	0	503	131	
9	0	0	0	0	503	131	
10	0	0	0	0	504	131	
11	0	0	0	0	505	131	
12	0	0	0	0	508	131	
13	0	0	0	0	512	131	
14	0	0	0	0	516	131	
15	0	0	0	0	519	131	
0	0	0	0	0	520	131	
1	0	0	0	0	521	130	
2	0	0	0	0	519	131	
3	0	0	0	0	517	131	
4	0	0	0	0	515	130	
5	0	0	0	0	512	131	
6	0	0	0	0	508	131	
7	0	0	0	0	505	131	
8	0	0	0	0	502	131	
9	0	0	0	0	502	131	
10	0	0	0	0	503	131	
11	0	0	0	0	504	131	
12	0	0	0	0	507	131	
13	0	0	0	0	510	130	
14	0	0	0	0	512	131	
15	0	0	0	0	514	131	
0	0	0	0	0	516	131	
1	0	0	0	0	517	131	
2	0	0	0	0	516	131	
3	0	0	0	0	512	131	
4	0	0	0	0	507	130	
5	0	0	0	0	503	131	
6	0	0	0	0	499	131	
7	0	0	0	0	497	130	
8	0	0	0	0	495	131	
9	0	0	0	0	494	131	
10	0	0	0	0	495	130	
11	0	0	0	0	497	131	
12	0	0	0	0	500	131	
13	0	0	0	0	503	131	
14	0	0	0	0	505	131	
15	0	0	0	0	508	131	
0	0	0	0	0	509	131	
1	0	0	0	0	510	131	
2	0	0	0	0	508	131	
3	0	0	0	0	505	130	
4	0	0	0	0	502	131	
5	0	0	0	0	498	131	
6	0	0	0	0	495	131	
7	0	0	0	0	492	131	
8	0	0	0	0	488	131	
9	0	0	0	0	487	131	
10	0	0	0	0	486	131	
11	0	0	0	0	486	131	
12	0	0	0	0	487	131	
13	0	0	0	0	491	131	
14	0	0	0	0	494	131	
15	0	0	0	0	497	131	
0	0	0	0	0	499	131	
1	0	0	0	0	500	131	
2	0	0	0	0	499	131	
3	0	0	0	0	498	131	
4	0	0	0	0	496	131	
5	0	0	0	0	493	131	
6	0	0	0	0	491	131	
7	0	0	0	0	488	131	
8	0	0	0	0	487	131	
9	0	0	0	0	486	131	
10	0	0	0	0	485	131	
11	0	0	0	0	486	131	
12	0	0	0	0	487	131	
13	0	0	0	0	490	132	
14	0	0	0	0	493	131	
15	0	0	0	0	496	131	
0	0	0	0	0	500	131	
1	0	0	0	0	503	131	
2	0	0	0	0	506	131	
3	0	0	0	0	508	131	
4	0	0	0	0	508	131	
5	0	0	0	0	506	131	
6	0	0	0	0	504	131	
7	0	0	0	0	502	131	
8	0	0	0	0	499	131	
9	0	0	0	0	496	132	
10	0	0	0	0	495	131	
11	0	0	0	0	493	131	
12	0	0	0	0	493	131	
13	0	0	0	0	495	131	
14	0	0	0	0	497	131	
15	0	0	0	0	501	131	
0	0	0	0	0	505	132	
1	0	0	0	0	509	131	
2	0	0	0	0	512	131	
3	0	0	0	0	513	131	
4	0	0	0	0	515	131	
5	0	0	0	0	513	131	
6	0	0	0	0	510	131	
7	0	0	0	0	508	131	
8	0	0	0	0	505	131	
9	0	0	0	0	501	131	
10	0	0	0	0	498	131	
11	0	0	0	0	496	132	
12	0	0	0	0	495	131	
13	0	0	0	0	495	131	
14	0	0	0	0	495	132	
15	0	0	0	0	497	131	
0	0	0	0	0	501	131	
1	0	0	0	0	505	131	
2	0	0	0	0	509	131	
3	0	0	0	0	512	131	
4	0	0	0	0	514	131	
5	0	0	0	0	513	131	
6	0	0	0	0	512	131	
7	0	0	0	0	511	131	
8	0	0	0	0	509	131	
9	0	0	0	0	508	131	
10	0	0	0	0	507	131	
11	0	0	0	0	505	131	
12	0	0	0	0	504	131	
13	0	0	0	0	504	131	
14	0	0	0	0	505	132	
15	0	0	0	0	507	131	
0	0	0	0	0	510	131	
1	0	0	0	0	514	132	
2	0	0	0	0	517	131	
3	0	0	0	0	519	131	
4	0	0	0	0	521	131	
5	0	0	0	0	522	131	
6	0	0	0	0	521	131	
7	0	0	0	0	520	131	
8	0	0	0	0	518	131	
9	0	0	0	0	514	131	
10	0	0	0	0	512	132	
11	0	0	0	0	509	131	
12	0	0	0	0	508	131	
13	0	0	0	0	508	131	
14	0	0	0	0	507	131	
15	0	0	0	0	507	131	
0	0	0	0	0	509	131	
1	0	0	0	0	513	131	
2	0	0	0	0	516	132	
3	0	0	0	0	519	131	
4	0	0	0	0	521	131	
5	0	0	0	0	522	131	
6	0	0	0	0	523	131	
7	0	0	0	0	521	131	
8	0	0	0	0	518	131	
9	0	0	0	0	513	131	
10	0	0	0	0	510	131	
11	0	0	0	0	508	131	
12	0	0	0	0	505	132	
13	0	0	0	0	503	131	
14	0	0	0	0	502	131	
15	0	0	0	0	504	131	
0	0	0	0	0	504	131	
1	0	0	0	0	508	131	
2	0	0	0	0	511	131	
3	0	0	0	0	515	131	
4	0	0	0	0	517	131	
5	0	0	0	0	520	131	
6	0	0	0	0	521	131	
7	0	0	0	0	521	131	
8	0	0	0	0	519	132	
9	0	0	0	0	515	131	
10	0	0	0	0	511	131	
11	0	0	0	0	509	132	
12	0	0	0	0	507	132	
13	0	0	0	0	504	131	
14	0	0	0	0	501	131	
15	0	0	0	0	500	131	
0	0	0	0	0	500	131	
1	0	0	0	0	503	131	
2	0	0	0	0	506	132	
3	0	0	0	0	510	131	
4	0	0	0	0	514	131	
5	0	0	0	0	517	131	
6	0	0	0	0	518	131	
7	0	0	0	0	517	131	
8	0	0	0	0	516	131	
9	0	0	0	0	513	131	
10	0	0	0	0	510	132	
11	0	0	0	0	507	132	
12	0	0	0	0	504	131	
13	0	0	0	0	502	131	
14	0	0	0	0	499	131	
15	0	0	0	0	499	131	
0	0	0	0	0	500	132	
1	0	0	0	0	502	131	
2	0	0	0	0	505	131	
3	0	0	0	0	509	132	
4	0	0	0	0	514	132	
5	0	0	0	0	517	131	
6	0	0	0	0	521	131	
7	0	0	0	0	523	132	
8	0	0	0	0	523	131	
9	0	0	0	0	521	131	
10	0	0	0	0	519	131	
11	0	0	0	0	517	131	
12	0	0	0	0	515	131	
13	0	0	0	0	512	132	
14	0	0	0	0	509	131	
15	0	0	0	0	507	131	
0	0	0	0	0	505	132	
1	0	0	0	0	505	131	
2	0	0	0	0	506	131	
3	0	0	0	0	508	132	
4	0	0	0	0	512	131	
5	0	0	0	0	514	132	
6	0	0	0	0	516	132	
7	0	0	0	0	518	131	
8	0	0	0	0	519	131	
9	0	0	0	0	518	132	
10	0	0	0	0	516	131	
11	0	0	0	0	515	131	
12	0	0	0	0	512	132	
13	0	0	0	0	510	131	
14	0	0	0	0	508	131	
15	0	0	0	0	506	132	
0	0	0	0	0	506	131	
1	0	0	0	0	508	132	
2	0	0	0	0	508	131	
3	0	0	0	0	510	131	
4	0	0	0	0	513	132	
5	0	0	0	0	516	131	
6	0	0	0	0	519	131	
7	0	0	0	0	521	132	
8	0	0	0	0	521	132	
9	0	0	0	0	519	131	
10	0	0	0	0	519	132	
11	0	0	0	0	516	131	
12	0	0	0	0	514	131	
13	0	0	0	0	511	132	
14	0	0	0	0	507	132	
15	0	0	0	0	504	131	
0	0	0	0	0	501	131	
1	0	0	0	0	500	132	
2	0	0	0	0	501	131	
3	0	0	0	0	501	132	
4	0	0	0	0	504	132	
5	0	0	0	0	507	131	
6	0	0	0	0	510	131	
7	0	0	0	0	514	132	
8	0	0	0	0	516	131	
9	0	0	0	0	517	131	
10	0	0	0	0	516	132	
11	0	0	0	0	515	132	
12	0	0	0	0	513	131	
13	0	0	0	0	510	132	
14	0	0	0	0	507	132	
15	0	0	0	0	503	131	
0	0	0	0	0	500	131	
1	0	0	0	0	499	132	
2	0	0	0	0	499	131	
3	0	0	0	0	500	132	
4	0	0	0	0	502	132	
5	0	0	0	0	504	131	
6	0	0	0	0	508	132	
7	0	0	0	0	511	132	
8	0	0	0	0	513	131	
9	0	0	0	0	515	131	
10	0	0	0	0	516	132	
11	0	0	0	0	516	131	
12	0	0	0	0	514	131	
13	0	0	0	0	511	132	
14	0	0	0	0	508	132	
15	0	0	0	0	505	131	
0	0	0	0	0	502	132	
1	0	0	0	0	500	132	
2	0	0	0	0	499	131	
3	0	0	0	0	500	132	
4	0	0	0	0	502	132	
5	0	0	0	0	505	131	
6	0	0	0	0	510	132	
7	0	0	0	0	514	131	
8	0	0	0	0	518	131	
9	0	0	0	0	521	132	
10	0	0	0	0	524	131	
11	0	0	0	0	524	131	
12	0	0	0	0	522	132	
13	0	0	0	0	519	131	
14	0	0	0	0	515	132	
15	0	0	0	0	511	131	
0	0	0	0	0	506	132	
1	0	0	0	0	503	132	
2	0	0	0	0	499	131	
3	0	0	0	0	499	132	
4	0	0	0	0	500	132	
5	0	0	0	0	503	131	
6	0	0	0	0	506	131	
7	0	0	0	0	511	132	
8	0	0	0	0	515	131	
9	0	0	0	0	518	132	
10	0	0	0	0	521	132	
11	0	0	0	0	521	131	
12	0	0	0	0	521	132	
13	0	0	0	0	519	132	
14	0	0	0	0	517	131	
15	0	0	0	0	515	132	
0	0	0	0	0	513	132	
1	0	0	0	0	511	131	
2	0	0	0	0	508	132	
3	0	0	0	0	507	132	
4	0	0	0	0	507	131	
5	0	0	0	0	507	131	
6	0	0	0	0	508	132	
7	0	0	0	0	510	131	
8	0	0	0	0	513	132	
9	0	0	0	0	516	132	
10	0	0	0	0	519	131	
11	0	0	0	0	521	132	
12	0	0	0	0	521	132	
13	0	0	0	0	521	131	
14	0	0	0	0	519	132	
15	0	0	0	0	518	132	
0	0	0	0	0	516	131	
1	0	0	0	0	514	132	
2	0	0	0	0	511	132	
3	0	0	0	0	510	131	
4	0	0	0	0	509	132	
5	0	0	0	0	510	132	
6	0	0	0	0	510	131	
7	0	0	0	0	511	132	
8	0	0	0	0	515	132	
9	0	0	0	0	520	131	
10	0	0	0	0	523	131	
11	0	0	0	0	526	132	
12	0	0	0	0	527	131	
13	0	0	0	0	529	131	
14	0	0	0	0	527	132	
15	0	0	0	0	525	132	
0	0	0	0	0	521	131	
1	0	0	0	0	518	132	
2	0	0	0	0	515	132	
3	0	0	0	0	512	131	
4	0	0	0	0	511	132	
5	0	0	0	0	510	131	
6	0	0	0	0	510	132	
7	0	0	0	0	511	132	
8	0	0	0	0	514	131	
9	0	0	0	0	518	131	
10	0	0	0	0	521	132	
11	0	0	0	0	523	131	
12	0	0	0	0	524	131	
13	0	0	0	0	525	132	
14	0	0	0	0	524	132	
15	0	0	0	0	519	131	
0	0	0	0	0	514	132	
1	0	0	0	0	511	132	
2	0	0	0	0	508	132	
3	0	0	0	0	506	132	
4	0	0	0	0	504	131	
5	0	0	0	0	503	132	
6	0	0	0	0	503	132	
7	0	0	0	0	503	131	
8	0	0	0	0	505	132	
9	0	0	0	0	508	132	
10	0	0	0	0	512	131	
11	0	0	0	0	515	132	
12	0	0	0	0	519	132	
13	0	0	0	0	521	131	
14	0	0	0	0	521	132	
15	0	0	0	0	519	132	
0	0	0	0	0	518	131	
1	0	0	0	0	516	132	
2	0	0	0	0	513	132	
3	0	0	0	0	509	131	
4	0	0	0	0	506	132	
5	0	0	0	0	503	132	
6	0	0	0	0	501	132	
7	0	0	0	0	501	132	
8	0	0	0	0	500	131	
9	0	0	0	0	502	132	
10	0	0	0	0	504	132	
11	0	0	0	0	506	131	
12	0	0	0	0	508	132	
13	0	0	0	0	511	131	
14	0	0	0	0	513	132	
15	0	0	0	0	514	132	
0	0	0	0	0	514	131	
1	0	0	0	0	513	132	
2	0	0	0	0	512	132	
3	0	0	0	0	510	131	
4	0	0	0	0	506	132	
5	0	0	0	0	503	132	
6	0	0	0	0	500	131	
7	0	0	0	0	500	132	
8	0	0	0	0	500	132	
9	0	0	0	0	501	132	
10	0	0	0	0	502	132	
11	0	0	0	0	504	131	
12	0	0	0	0	507	132	
13	0	0	0	0	510	132	
14	0	0	0	0	511	131	
15	0	0	0	0	511	132	
0	0	0	0	0	511	131	
1	0	0	0	0	508	132	
2	0	0	0	0	505	132	
3	0	0	0	0	503	132	
4	0	0	0	0	498	132	
5	0	0	0	0	494	132	
6	0	0	0	0	491	132	
7	0	0	0	0	491	132	
8	0	0	0	0	491	132	
9	0	0	0	0	492	132	
10	0	0	0	0	493	132	
11	0	0	0	0	496	132	
12	0	0	0	0	499	131	
13	0	0	0	0	503	132	
14	0	0	0	0	508	132	
15	0	0	0	0	510	131	
0	0	0	0	0	511	132	
1	0	0	0	0	509	132	
2	0	0	0	0	507	131	
3	0	0	0	0	503	132	
4	0	0	0	0	499	132	
5	0	0	0	0	497	131	
6	0	0	0	0	495	132	
7	0	0	0	0	494	132	
8	0	0	0	0	494	131	
9	0	0	0	0	495	132	
10	0	0	0	0	496	132	
11	0	0	0	0	499	131	
12	0	0	0	0	504	133	
13	0	0	0	0	509	132	
14	0	0	0	0	512	131	
15	0	0	0	0	515	131	
0	0	0	0	0	515	132	
1	0	0	0	0	516	131	
2	0	0	0	0	515	132	
3	0	0	0	0	513	132	
4	0	0	0	0	510	132	
5	0	0	0	0	508	131	
6	0	0	0	0	505	132	
7	0	0	0	0	503	132	
8	0	0	0	0	500	131	
9	0	0	0	0	498	132	
10	0	0	0	0	499	132	
11	0	0	0	0	500	131	
12	0	0	0	0	503	132	
13	0	0	0	0	507	132	
14	0	0	0	0	511	131	
15	0	0	0	0	513	132	
0	0	0	0	0	514	132	
1	0	0	0	0	513	131	
2	0	0	0	0	512	132	
3	0	0	0	0	509	132	
4	0	0	0	0	507	132	
5	0	0	0	0	503	132	
6	0	0	0	0	502	132	
7	0	0	0	0	499	131	
8	0	0	0	0	497	133	
9	0	0	0	0	497	132	
10	0	0	0	0	497	132	
11	0	0	0	0	499	132	
12	0	0	0	0	502	132	
13	0	0	0	0	504	132	
14	0	0	0	0	508	132	
15	0	0	0	0	511	132	
0	0	0	0	0	513	131	
1	0	0	0	0	515	132	
2	0	0	0	0	514	132	
3	0	0	0	0	513	132	
4	0	0	0	0	512	132	
5	0	0	0	0	510	132	
6	0	0	0	0	507	132	
7	0	0	0	0	504	132	
8	0	0	0	0	501	132	
9	0	0	0	0	499	133	
10	0	0	0	0	499	132	
11	0	0	0	0	499	131	
12	0	0	0	0	500	132	
13	0	0	0	0	503	132	
14	0	0	0	0	506	131	
15	0	0	0	0	509	132	
0	0	0	0	0	512	132	
1	0	0	0	0	514	131	
2	0	0	0	0	515	132	
3	0	0	0	0	515	132	
4	0	0	0	0	512	131	
5	0	0	0	0	510	132	
6	0	0	0	0	506	132	
7	0	0	0	0	504	131	
8	0	0	0	0	504	132	
9	0	0	0	0	502	132	
10	0	0	0	0	500	131	
11	0	0	0	0	499	132	
12	0	0	0	0	500	132	
13	0	0	0	0	502	132	
14	0	0	0	0	504	132	
15	0	0	0	0	508	132	
0	0	0	0	0	509	131	
1	0	0	0	0	511	132	
2	0	0	0	0	514	132	
3	0	0	0	0	515	131	
4	0	0	0	0	515	132	
5	0	0	0	0	514	132	
6	0	0	0	0	511	132	
7	0	0	0	0	509	133	
8	0	0	0	0	506	132	
9	0	0	0	0	504	131	
10	0	0	0	0	504	132	
11	0	0	0	0	504	132	
12	0	0	0	0	504	131	
13	0	0	0	0	505	132	
14	0	0	0	0	508	132	
15	0	0	0	0	512	131	
0	0	0	0	0	515	133	
1	0	0	0	0	519	132	
2	0	0	0	0	521	131	
3	0	0	0	0	523	133	
4	0	0	0	0	524	132	
5	0	0	0	0	524	131	
6	0	0	0	0	522	133	
7	0	0	0	0	520	132	
8	0	0	0	0	518	131	
9	0	0	0	0	516	133	
10	0	0	0	0	513	132	
11	0	0	0	0	512	132	
12	0	0	0	0	509	133	
13	0	0	0	0	507	132	
14	0	0	0	0	507	132	
15	0	0	0	0	510	132	
0	0	0	0	0	515	132	
1	0	0	0	0	519	133	
2	0	0	0	0	524	132	
3	0	0	0	0	527	131	
4	0	0	0	0	528	132	
5	0	0	0	0	528	132	
6	0	0	0	0	529	132	
7	0	0	0	0	527	132	
8	0	0	0	0	523	132	
9	0	0	0	0	522	132	
10	0	0	0	0	520	132	
11	0	0	0	0	518	132	
12	0	0	0	0	516	131	
13	0	0	0	0	516	133	
14	0	0	0	0	518	132	
15	0	0	0	0	521	132	
0	0	0	0	0	524	132	
1	0	0	0	0	527	132	
2	0	0	0	0	531	132	
3	0	0	0	0	533	132	
4	0	0	0	0	536	133	
5	0	0	0	0	537	132	
6	0	0	0	0	537	132	
7	0	0	0	0	536	132	
8	0	0	0	0	534	132	
9	0	0	0	0	532	132	
10	0	0	0	0	528	132	
11	0	0	0	0	525	132	
12	0	0	0	0	524	131	
13	0	0	0	0	522	132	
14	0	0	0	0	522	132	
15	0	0	0	0	524	133	
0	0	0	0	0	526	132	
1	0	0	0	0	528	132	
2	0	0	0	0	531	132	
3	0	0	0	0	534	131	
4	0	0	0	0	536	132	
5	0	0	0	0	537	131	
6	0	0	0	0	537	132	
7	0	0	0	0	535	132	
8	0	0	0	0	533	131	
9	0	0	0	0	531	132	
10	0	0	0	0	529	131	
11	0	0	0	0	527	132	
12	0	0	0	0	526	132	
13	0	0	0	0	524	132	
14	0	0	0	0	524	132	
15	0	0	0	0	525	132	
0	0	0	0	0	527	132	
1	0	0	0	0	528	132	
2	0	0	0	0	532	133	
3	0	0	0	0	536	132	
4	0	0	0	0	540	132	
5	0	0	0	0	543	132	
6	0	0	0	0	546	131	
7	0	0	0	0	548	133	
8	0	0	0	0	549	132	
9	0	0	0	0	551	133	
10	0	0	0	0	551	132	
11	0	0	0	0	551	132	
12	0	0	0	0	552	132	
13	0	0	0	0	554	131	
14	0	0	0	0	556	132	
15	0	0	0	0	558	132	
0	0	0	0	0	561	132	
1	0	0	0	0	567	132	
2	0	0	0	0	572	131	
3	0	0	0	0	577	132	
4	0	0	0	0	581	131	
5	0	0	0	0	587	132	
6	0	0	0	0	590	132	
7	0	0	0	0	588	131	
8	0	0	0	0	585	133	
9	0	0	0	0	580	132	
10	0	0	0	0	572	131	
11	0	0	0	0	562	132	
12	0	0	0	0	553	132	
13	0	0	0	0	545	132	
14	0	0	0	0	536	132	
15	0	0	0	0	527	131	
0	0	0	0	0	519	133	
1	0	0	0	0	515	132	
2	0	0	0	0	512	132	
3	0	0	0	0	511	133	
4	0	0	0	0	511	133	
5	0	0	0	0	510	132	
6	0	0	0	0	508	133	
7	0	0	0	0	504	133	
8	0	0	0	0	499	132	
9	0	0	0	0	495	132	
10	0	0	0	0	489	133	
11	0	0	0	0	485	132	
12	0	0	0	0	481	132	
13	0	0	0	0	477	133	
14	0	0	0	0	473	132	
15	0	0	0	0	470	132	
0	0	0	0	0	468	133	
1	0	0	0	0	465	132	
2	0	0	0	0	463	132	
3	0	0	0	0	461	133	
4	0	0	0	0	462	132	
5	0	0	0	0	463	132	
6	0	0	0	0	463	133	
7	0	0	0	0	467	132	
8	0	0	0	0	470	133	
9	0	0	0	0	472	133	
10	0	0	0	0	473	132	
11	0	0	0	0	475	133	
12	0	0	0	0	477	133	
13	0	0	0	0	479	132	
14	0	0	0	0	481	133	
15	0	0	0	0	482	132	
0	0	0	0	0	483	132	
1	0	0	0	0	486	133	
2	0	0	0	0	489	132	
3	0	0	0	0	494	132	
4	0	0	0	0	499	133	
5	0	0	0	0	505	132	
6	0	0	0	0	510	133	
7	0	0	0	0	515	132	
8	0	0	0	0	519	132	
9	0	0	0	0	521	133	
10	0	0	0	0	523	132	
11	0	0	0	0	523	132	
12	0	0	0	0	522	133	
13	0	0	0	0	520	132	
14	0	0	0	0	518	132	
15	0	0	0	0	517	132	
0	0	0	0	0	517	133	
1	0	0	0	0	517	132	
2	0	0	0	0	518	132	
3	0	0	0	0	520	133	
4	0	0	0	0	523	132	
5	0	0	0	0	526	132	
6	0	0	0	0	529	133	
7	0	0	0	0	533	132	
8	0	0	0	0	537	132	
9	0	0	0	0	539	133	
10	0	0	0	0	540	132	
11	0	0	0	0	539	131	
12	0	0	0	0	537	133	
13	0	0	0	0	534	132	
14	0	0	0	0	531	132	
15	0	0	0	0	528	132	
0	0	0	0	0	526	132	
1	0	0	0	0	524	132	
2	0	0	0	0	523	133	
3	0	0	0	0	523	132	
4	0	0	0	0	524	132	
5	0	0	0	0	527	132	
6	0	0	0	0	531	133	
7	0	0	0	0	535	132	
8	0	0	0	0	537	132	
9	0	0	0	0	538	133	
10	0	0	0	0	539	132	
11	0	0	0	0	538	132	
12	0	0	0	0	536	133	
13	0	0	0	0	532	132	
14	0	0	0	0	528	133	
15	0	0	0	0	525	132	
0	0	0	0	0	523	132	
1	0	0	0	0	519	132	
2	0	0	0	0	517	132	
3	0	0	0	0	516	132	
4	0	0	0	0	518	132	
5	0	0	0	0	520	133	
6	0	0	0	0	523	132	
7	0	0	0	0	527	132	
8	0	0	0	0	530	133	
9	0	0	0	0	534	132	
10	0	0	0	0	538	132	
11	0	0	0	0	540	133	
12	0	0	0	0	539	132	
13	0	0	0	0	535	131	
14	0	0	0	0	532	133	
15	0	0	0	0	529	132	
0	0	0	0	0	525	132	
1	0	0	0	0	521	133	
2	0	0	0	0	520	133	
3	0	0	0	0	519	132	
4	0	0	0	0	518	132	
5	0	0	0	0	518	133	
6	0	0	0	0	521	132	
7	0	0	0	0	525	132	
8	0	0	0	0	528	133	
9	0	0	0	0	531	132	
10	0	0	0	0	533	132	
11	0	0	0	0	536	132	
12	0	0	0	0	536	132	
13	0	0	0	0	536	132	
14	0	0	0	0	534	133	
15	0	0	0	0	532	132	
0	0	0	0	0	530	132	
1	0	0	0	0	528	133	
2	0	0	0	0	524	132	
3	0	0	0	0	521	132	
4	0	0	0	0	519	133	
5	0	0	0	0	518	132	
6	0	0	0	0	519	132	
7	0	0	0	0	521	133	
8	0	0	0	0	523	132	
9	0	0	0	0	526	132	
10	0	0	0	0	527	132	
11	0	0	0	0	527	132	
12	0	0	0	0	527	133	
13	0	0	0	0	526	132	
14	0	0	0	0	524	132	
15	0	0	0	0	520	133	
0	0	0	0	0	518	132	
1	0	0	0	0	515	132	
2	0	0	0	0	515	133	
3	0	0	0	0	514	133	
4	0	0	0	0	513	132	
5	0	0	0	0	513	133	
6	0	0	0	0	513	132	
7	0	0	0	0	515	133	
8	0	0	0	0	516	133	
9	0	0	0	0	518	132	
10	0	0	0	0	520	133	
11	0	0	0	0	523	133	
12	0	0	0	0	525	132	
13	0	0	0	0	526	133	
14	0	0	0	0	526	132	
15	0	0	0	0	524	132	
0	0	0	0	0	520	133	
1	0	0	0	0	518	132	
2	0	0	0	0	515	133	
3	0	0	0	0	511	133	
4	0	0	0	0	507	132	
5	0	0	0	0	505	133	
6	0	0	0	0	504	133	
7	0	0	0	0	504	132	
8	0	0	0	0	504	133	
9	0	0	0	0	506	133	
10	0	0	0	0	509	132	
11	0	0	0	0	511	133	
12	0	0	0	0	512	132	
13	0	0	0	0	513	132	
14	0	0	0	0	512	133	
15	0	0	0	0	510	133	
0	0	0	0	0	507	132	
1	0	0	0	0	504	132	
2	0	0	0	0	501	133	
3	0	0	0	0	498	133	
4	0	0	0	0	496	132	
5	0	0	0	0	496	133	
6	0	0	0	0	495	133	
7	0	0	0	0	495	132	
8	0	0	0	0	495	133	
9	0	0	0	0	496	133	
10	0	0	0	0	499	132	
11	0	0	0	0	502	132	
12	0	0	0	0	505	133	
13	0	0	0	0	508	132	
14	0	0	0	0	510	132	
15	0	0	0	0	510	133	
0	0	0	0	0	509	133	
1	0	0	0	0	508	132	
2	0	0	0	0	505	133	
3	0	0	0	0	502	132	
4	0	0	0	0	498	133	
5	0	0	0	0	496	133	
6	0	0	0	0	495	132	
7	0	0	0	0	493	133	
8	0	0	0	0	493	133	
9	0	0	0	0	494	132	
10	0	0	0	0	495	133	
11	0	0	0	0	497	133	
12	0	0	0	0	501	132	
13	0	0	0	0	504	132	
14	0	0	0	0	506	133	
15	0	0	0	0	508	133	
0	0	0	0	0	509	132	
1	0	0	0	0	507	133	
2	0	0	0	0	505	133	
3	0	0	0	0	503	132	
4	0	0	0	0	500	133	
5	0	0	0	0	497	133	
6	0	0	0	0	496	132	
7	0	0	0	0	496	133	
8	0	0	0	0	498	132	
9	0	0	0	0	500	133	
10	0	0	0	0	502	133	
11	0	0	0	0	504	132	
12	0	0	0	0	506	133	
13	0	0	0	0	508	133	
14	0	0	0	0	511	132	
15	0	0	0	0	512	133	
0	0	0	0	0	512	132	
1	0	0	0	0	513	132	
2	0	0	0	0	512	133	
3	0	0	0	0	510	133	
4	0	0	0	0	508	132	
5	0	0	0	0	506	133	
6	0	0	0	0	505	132	
7	0	0	0	0	504	133	
8	0	0	0	0	503	133	
9	0	0	0	0	503	132	
10	0	0	0	0	505	133	
11	0	0	0	0	508	133	
12	0	0	0	0	511	132	
13	0	0	0	0	514	132	
14	0	0	0	0	517	133	
15	0	0	0	0	519	132	
0	0	0	0	0	521	132	
1	0	0	0	0	521	133	
2	0	0	0	0	520	132	
3	0	0	0	0	517	132	
4	0	0	0	0	515	133	
5	0	0	0	0	512	132	
6	0	0	0	0	509	132	
7	0	0	0	0	507	133	
8	0	0	0	0	506	133	
9	0	0	0	0	506	132	
10	0	0	0	0	507	133	
11	0	0	0	0	508	133	
12	0	0	0	0	511	132	
13	0	0	0	0	516	132	
14	0	0	0	0	521	133	
15	0	0	0	0	525	132	
0	0	0	0	0	528	132	
1	0	0	0	0	529	133	
2	0	0	0	0	529	132	
3	0	0	0	0	527	133	
4	0	0	0	0	523	133	
5	0	0	0	0	518	132	
6	0	0	0	0	515	133	
7	0	0	0	0	512	133	
8	0	0	0	0	512	132	
9	0	0	0	0	512	132	
10	0	0	0	0	513	133	
11	0	0	0	0	513	132	
12	0	0	0	0	515	132	
13	0	0	0	0	518	133	
14	0	0	0	0	522	133	
15	0	0	0	0	526	132	
0	0	0	0	0	529	133	
1	0	0	0	0	531	133	
2	0	0	0	0	531	132	
3	0	0	0	0	529	133	
4	0	0	0	0	526	133	
5	0	0	0	0	523	132	
6	0	0	0	0	521	133	
7	0	0	0	0	519	133	
8	0	0	0	0	517	132	
9	0	0	0	0	515	133	
10	0	0	0	0	514	133	
11	0	0	0	0	515	132	
12	0	0	0	0	517	132	
13	0	0	0	0	519	133	
14	0	0	0	0	522	132	
15	0	0	0	0	525	133	
0	0	0	0	0	527	133	
1	0	0	0	0	529	132	
2	0	0	0	0	530	132	
3	0	0	0	0	529	133	
4	0	0	0	0	528	132	
5	0	0	0	0	525	132	
6	0	0	0	0	521	133	
7	0	0	0	0	519	132	
8	0	0	0	0	516	132	
9	0	0	0	0	513	133	
10	0	0	0	0	512	132	
11	0	0	0	0	512	133	
12	0	0	0	0	513	133	
13	0	0	0	0	515	132	
14	0	0	0	0	519	132	
15	0	0	0	0	523	133	
0	0	0	0	0	525	132	
1	0	0	0	0	527	133	
2	0	0	0	0	528	133	
3	0	0	0	0	527	132	
4	0	0	0	0	525	133	
5	0	0	0	0	522	132	
6	0	0	0	0	518	132	
7	0	0	0	0	513	133	
8	0	0	0	0	509	133	
9	0	0	0	0	507	132	
10	0	0	0	0	505	133	
11	0	0	0	0	504	132	
12	0	0	0	0	503	132	
13	0	0	0	0	502	133	
14	0	0	0	0	503	132	
15	0	0	0	0	506	132	
0	0	0	0	0	510	133	
1	0	0	0	0	513	133	
2	0	0	0	0	516	132	
3	0	0	0	0	516	133	
4	0	0	0	0	515	133	
5	0	0	0	0	512	132	
6	0	0	0	0	509	133	
7	0	0	0	0	504	133	
8	0	0	0	0	501	132	
9	0	0	0	0	499	133	
10	0	0	0	0	497	133	
11	0	0	0	0	495	132	
12	0	0	0	0	494	132	
13	0	0	0	0	495	133	
14	0	0	0	0	495	132	
15	0	0	0	0	496	132	
0	0	0	0	0	499	133	
1	0	0	0	0	503	132	
2	0	0	0	0	508	133	
3	0	0	0	0	511	133	
4	0	0	0	0	512	132	
5	0	0	0	0	513	133	
6	0	0	0	0	512	133	
7	0	0	0	0	510	132	
8	0	0	0	0	508	133	
9	0	0	0	0	506	133	
10	0	0	0	0	503	132	
11	0	0	0	0	499	132	
12	0	0	0	0	498	133	
13	0	0	0	0	497	133	
14	0	0	0	0	496	132	
15	0	0	0	0	496	133	
0	0	0	0	0	496	132	
1	0	0	0	0	500	133	
2	0	0	0	0	504	133	
3	0	0	0	0	507	132	
4	0	0	0	0	509	133	
5	0	0	0	0	508	132	
6	0	0	0	0	506	132	
7	0	0	0	0	504	133	
8	0	0	0	0	502	133	
9	0	0	0	0	499	132	
10	0	0	0	0	497	133	
11	0	0	0	0	495	133	
12	0	0	0	0	493	132	
13	0	0	0	0	493	133	
14	0	0	0	0	493	133	
15	0	0	0	0	494	132	
0	0	0	0	0	495	132	
1	0	0	0	0	497	133	
2	0	0	0	0	500	133	
3	0	0	0	0	502	132	
4	0	0	0	0	504	133	
5	0	0	0	0	507	133	
6	0	0	0	0	507	132	
7	0	0	0	0	507	132	
8	0	0	0	0	505	133	
9	0	0	0	0	502	132	
10	0	0	0	0	499	132	
11	0	0	0	0	497	133	
12	0	0	0	0	496	133	
13	0	0	0	0	496	132	
14	0	0	0	0	496	133	
15	0	0	0	0	497	132	
0	0	0	0	0	499	132	
1	0	0	0	0	500	133	
2	0	0	0	0	503	133	
3	0	0	0	0	507	132	
4	0	0	0	0	510	133	
5	0	0	0	0	512	132	
6	0	0	0	0	512	132	
7	0	0	0	0	513	133	
8	0	0	0	0	512	132	
9	0	0	0	0	510	133	
10	0	0	0	0	508	133	
11	0	0	0	0	505	132	
12	0	0	0	0	502	132	
13	0	0	0	0	499	133	
14	0	0	0	0	497	132	
15	0	0	0	0	495	133	
0	0	0	0	0	495	133	
1	0	0	0	0	495	132	
2	0	0	0	0	496	133	
3	0	0	0	0	497	133	
4	0	0	0	0	499	132	
5	0	0	0	0	500	132	
6	0	0	0	0	502	133	
7	0	0	0	0	504	133	
8	0	0	0	0	504	132	
9	0	0	0	0	502	133	
10	0	0	0	0	498	133	
11	0	0	0	0	494	132	
12	0	0	0	0	491	133	
13	0	0	0	0	489	132	
14	0	0	0	0	487	133	
15	0	0	0	0	485	133	
0	0	0	0	0	484	132	
1	0	0	0	0	487	133	
2	0	0	0	0	489	133	
3	0	0	0	0	492	132	
4	0	0	0	0	496	133	
5	0	0	0	0	499	133	
6	0	0	0	0	500	132	
7	0	0	0	0	503	133	
8	0	0	0	0	504	133	
9	0	0	0	0	504	132	
10	0	0	0	0	502	133	
11	0	0	0	0	498	133	
12	0	0	0	0	494	132	
13	0	0	0	0	492	133	
14	0	0	0	0	489	133	
15	0	0	0	0	487	132	
0	0	0	0	0	487	133	
1	0	0	0	0	487	133	
2	0	0	0	0	489	132	
3	0	0	0	0	490	133	
4	0	0	0	0	493	133	
5	0	0	0	0	497	132	
6	0	0	0	0	502	133	
7	0	0	0	0	505	133	
8	0	0	0	0	508	132	
9	0	0	0	0	509	132	
10	0	0	0	0	509	133	
11	0	0	0	0	508	132	
12	0	0	0	0	506	132	
13	0	0	0	0	504	133	
14	0	0	0	0	502	133	
15	0	0	0	0	499	132	
0	0	0	0	0	498	133	
1	0	0	0	0	497	133	
2	0	0	0	0	498	132	
3	0	0	0	0	500	133	
4	0	0	0	0	504	133	
5	0	0	0	0	508	132	
6	0	0	0	0	511	133	
7	0	0	0	0	513	133	
8	0	0	0	0	515	132	
9	0	0	0	0	515	133	
10	0	0	0	0	515	133	
11	0	0	0	0	513	132	
12	0	0	0	0	511	133	
13	0	0	0	0	508	132	
14	0	0	0	0	504	132	
15	0	0	0	0	502	133	
0	0	0	0	0	500	133	
1	0	0	0	0	499	132	
2	0	0	0	0	499	133	
3	0	0	0	0	499	133	
4	0	0	0	0	500	132	
5	0	0	0	0	501	133	
6	0	0	0	0	503	133	
7	0	0	0	0	505	132	
8	0	0	0	0	507	133	
9	0	0	0	0	509	133	
10	0	0	0	0	510	132	
11	0	0	0	0	508	133	
12	0	0	0	0	507	133	
13	0	0	0	0	504	132	
14	0	0	0	0	502	133	
15	0	0	0	0	500	133	
0	0	0	0	0	499	132	
1	0	0	0	0	498	133	
2	0	0	0	0	497	133	
3	0	0	0	0	498	132	
4	0	0	0	0	500	133	
5	0	0	0	0	502	133	
6	0	0	0	0	504	132	
7	0	0	0	0	508	133	
8	0	0	0	0	511	133	
9	0	0	0	0	514	132	
10	0	0	0	0	516	133	
11	0	0	0	0	516	133	
12	0	0	0	0	516	132	
13	0	0	0	0	515	133	
14	0	0	0	0	512	133	
15	0	0	0	0	510	132	
0	0	0	0	0	508	133	
1	0	0	0	0	507	133	
2	0	0	0	0	507	132	
3	0	0	0	0	507	133	
4	0	0	0	0	508	133	
5	0	0	0	0	509	132	
6	0	0	0	0	510	132	
7	0	0	0	0	513	133	
8	0	0	0	0	516	132	
9	0	0	0	0	519	132	
10	0	0	0	0	521	133	
11	0	0	0	0	523	132	
12	0	0	0	0	522	132	
13	0	0	0	0	520	133	
14	0	0	0	0	517	133	
15	0	0	0	0	513	132	
0	0	0	0	0	512	133	
1	0	0	0	0	511	133	
2	0	0	0	0	510	132	
3	0	0	0	0	510	133	
4	0	0	0	0	511	132	
5	0	0	0	0	512	133	
6	0	0	0	0	513	133	
7	0	0	0	0	516	132	
8	0	0	0	0	519	133	
9	0	0	0	0	522	133	
10	0	0	0	0	526	132	
11	0	0	0	0	527	133	
12	0	0	0	0	527	132	
13	0	0	0	0	526	132	
14	0	0	0	0	524	133	
15	0	0	0	0	521	132	
0	0	0	0	0	518	132	
1	0	0	0	0	516	133	
2	0	0	0	0	513	132	
3	0	0	0	0	511	132	
4	0	0	0	0	511	133	
5	0	0	0	0	511	132	
6	0	0	0	0	513	132	
7	0	0	0	0	513	133	
8	0	0	0	0	515	132	
9	0	0	0	0	519	132	
10	0	0	0	0	523	133	
11	0	0	0	0	524	132	
12	0	0	0	0	525	133	
13	0	0	0	0	524	132	
14	0	0	0	0	524	132	
15	0	0	0	0	523	133	
0	0	0	0	0	520	132	
1	0	0	0	0	517	132	
2	0	0	0	0	513	133	
3	0	0	0	0	511	132	
4	0	0	0	0	511	132	
5	0	0	0	0	511	133	
6	0	0	0	0	512	132	
7	0	0	0	0	515	133	
8	0	0	0	0	517	133	
9	0	0	0	0	521	132	
10	0	0	0	0	525	133	
11	0	0	0	0	529	132	
12	0	0	0	0	532	132	
13	0	0	0	0	534	133	
14	0	0	0	0	534	132	
15	0	0	0	0	531	133	
0	0	0	0	0	528	133	
1	0	0	0	0	526	132	
2	0	0	0	0	522	133	
3	0	0	0	0	519	132	
4	0	0	0	0	515	133	
5	0	0	0	0	513	133	
6	0	0	0	0	512	132	
7	0	0	0	0	512	133	
8	0	0	0	0	513	133	
9	0	0	0	0	516	132	
10	0	0	0	0	518	133	
11	0	0	0	0	520	132	
12	0	0	0	0	523	132	
13	0	0	0	0	526	133	
14	0	0	0	0	527	132	
15	0	0	0	0	526	132	
0	0	0	0	0	524	133	
1	0	0	0	0	520	133	
2	0	0	0	0	517	132	
3	0	0	0	0	515	133	
4	0	0	0	0	512	133	
5	0	0	0	0	511	132	
6	0	0	0	0	510	133	
7	0	0	0	0	511	132	
8	0	0	0	0	513	132	
9	0	0	0	0	516	133	
10	0	0	0	0	519	132	
11	0	0	0	0	522	132	
12	0	0	0	0	526	133	
13	0	0	0	0	528	133	
14	0	0	0	0	530	132	
15	0	0	0	0	530	133	
0	0	0	0	0	527	133	
1	0	0	0	0	524	132	
2	0	0	0	0	521	133	
3	0	0	0	0	518	133	
4	0	0	0	0	515	132	
5	0	0	0	0	514	133	
6	0	0	0	0	514	132	
7	0	0	0	0	514	133	
8	0	0	0	0	514	133	
9	0	0	0	0	517	132	
10	0	0	0	0	520	132	
11	0	0	0	0	524	133	
12	0	0	0	0	526	132	
13	0	0	0	0	528	132	
14	0	0	0	0	531	133	
15	0	0	0	0	531	132	
0	0	0	0	0	531	132	
1	0	0	0	0	530	133	
2	0	0	0	0	527	133	
3	0	0	0	0	524	132	
4	0	0	0	0	522	133	
5	0	0	0	0	521	133	
6	0	0	0	0	519	132	
7	0	0	0	0	519	132	
8	0	0	0	0	518	133	
9	0	0	0	0	519	132	
10	0	0	0	0	521	132	
11	0	0	0	0	525	133	
12	0	0	0	0	529	133	
13	0	0	0	0	532	132	
14	0	0	0	0	536	133	
15	0	0	0	0	537	133	
0	0	0	0	0	537	132	
1	0	0	0	0	535	133	
2	0	0	0	0	531	133	
3	0	0	0	0	528	132	
4	0	0	0	0	525	133	
5	0	0	0	0	522	133	
6	0	0	0	0	520	132	
7	0	0	0	0	519	133	
8	0	0	0	0	518	133	
9	0	0	0	0	520	132	
10	0	0	0	0	522	133	
11	0	0	0	0	524	133	
12	0	0	0	0	528	132	
13	0	0	0	0	531	132	
14	0	0	0	0	535	133	
15	0	0	0	0	536	132	
0	0	0	0	0	537	132	
1	0	0	0	0	537	133	
2	0	0	0	0	534	132	
3	0	0	0	0	531	132	
4	0	0	0	0	527	133	
5	0	0	0	0	523	132	
6	0	0	0	0	519	133	
7	0	0	0	0	516	133	
8	0	0	0	0	515	132	
9	0	0	0	0	515	133	
10	0	0	0	0	518	133	
11	0	0	0	0	520	132	
12	0	0	0	0	522	133	
13	0	0	0	0	524	133	
14	0	0	0	0	528	132	
15	0	0	0	0	531	133	
0	0	0	0	0	531	133	
1	0	0	0	0	530	132	
2	0	0	0	0	529	132	
3	0	0	0	0	527	133	
4	0	0	0	0	526	133	
5	0	0	0	0	523	132	
6	0	0	0	0	519	133	
7	0	0	0	0	517	133	
8	0	0	0	0	516	132	
9	0	0	0	0	515	133	
10	0	0	0	0	515	133	
11	0	0	0	0	515	132	
12	0	0	0	0	516	133	
13	0	0	0	0	518	133	
14	0	0	0	0	521	132	
15	0	0	0	0	525	133	
0	0	0	0	0	528	133	
1	0	0	0	0	529	132	
2	0	0	0	0	530	133	
3	0	0	0	0	529	133	
4	0	0	0	0	528	132	
5	0	0	0	0	526	133	
6	0	0	0	0	523	132	
7	0	0	0	0	520	133	
8	0	0	0	0	519	132	
9	0	0	0	0	518	132	
10	0	0	0	0	517	133	
11	0	0	0	0	517	132	
12	0	0	0	0	519	132	
13	0	0	0	0	520	133	
14	0	0	0	0	524	132	
15	0	0	0	0	527	132	
0	0	0	0	0	531	133	
1	0	0	0	0	532	132	
2	0	0	0	0	533	132	
3	0	0	0	0	532	133	
4	0	0	0	0	530	132	
5	0	0	0	0	528	132	
6	0	0	0	0	525	133	
7	0	0	0	0	522	132	
8	0	0	0	0	519	132	
9	0	0	0	0	516	133	
10	0	0	0	0	515	132	
11	0	0	0	0	514	132	
12	0	0	0	0	515	133	
13	0	0	0	0	518	132	
14	0	0	0	0	522	133	
15	0	0	0	0	526	133	
0	0	0	0	0	529	132	
1	0	0	0	0	533	132	
2	0	0	0	0	535	133	
3	0	0	0	0	536	132	
4	0	0	0	0	536	133	
5	0	0	0	0	534	132	
6	0	0	0	0	531	132	
7	0	0	0	0	530	133	
8	0	0	0	0	527	132	
9	0	0	0	0	525	132	
10	0	0	0	0	523	133	
11	0	0	0	0	521	132	
12	0	0	0	0	520	132	
13	0	0	0	0	521	133	
14	0	0	0	0	524	132	
15	0	0	0	0	527	133	
0	0	0	0	0	531	133	
1	0	0	0	0	533	132	
2	0	0	0	0	535	133	
3	0	0	0	0	536	132	
4	0	0	0	0	536	133	
5	0	0	0	0	535	132	
6	0	0	0	0	532	132	
7	0	0	0	0	529	133	
8	0	0	0	0	526	132	
9	0	0	0	0	522	132	
10	0	0	0	0	518	133	
11	0	0	0	0	514	132	
12	0	0	0	0	513	133	
13	0	0	0	0	513	133	
14	0	0	0	0	515	132	
15	0	0	0	0	518	133	
0	0	0	0	0	520	133	
1	0	0	0	0	523	132	
2	0	0	0	0	525	133	
3	0	0	0	0	527	133	
4	0	0	0	0	528	132	
5	0	0	0	0	528	132	
6	0	0	0	0	527	133	
7	0	0	0	0	526	132	
8	0	0	0	0	522	132	
9	0	0	0	0	519	133	
10	0	0	0	0	515	132	
11	0	0	0	0	512	132	
12	0	0	0	0	511	133	
13	0	0	0	0	510	133	
14	0	0	0	0	510	132	
15	0	0	0	0	512	133	
0	0	0	0	0	514	133	
1	0	0	0	0	517	132	
2	0	0	0	0	521	133	
3	0	0	0	0	524	133	
4	0	0	0	0	526	132	
5	0	0	0	0	526	133	
6	0	0	0	0	524	133	
7	0	0	0	0	522	132	
8	0	0	0	0	519	132	
9	0	0	0	0	517	133	
10	0	0	0	0	514	132	
11	0	0	0	0	511	132	
12	0	0	0	0	510	133	
13	0	0	0	0	509	132	
14	0	0	0	0	510	133	
15	0	0	0	0	511	133	
0	0	0	0	0	513	132	
1	0	0	0	0	516	133	
2	0	0	0	0	519	132	
3	0	0	0	0	523	132	
4	0	0	0	0	527	133	
5	0	0	0	0	528	132	
6	0	0	0	0	527	132	
7	0	0	0	0	526	133	
8	0	0	0	0	522	132	
9	0	0	0	0	517	132	
10	0	0	0	0	513	133	
11	0	0	0	0	510	132	
12	0	0	0	0	508	132	
13	0	0	0	0	505	133	
14	0	0	0	0	505	133	
15	0	0	0	0	505	132	
0	0	0	0	0	506	133	
1	0	0	0	0	508	133	
2	0	0	0	0	512	132	
3	0	0	0	0	516	132	
4	0	0	0	0	519	133	
5	0	0	0	0	520	132	
6	0	0	0	0	521	132	
7	0	0	0	0	522	133	
8	0	0	0	0	520	132	
9	0	0	0	0	517	132	
10	0	0	0	0	513	133	
11	0	0	0	0	511	132	
12	0	0	0	0	509	133	
13	0	0	0	0	508	133	
14	0	0	0	0	508	132	
15	0	0	0	0	508	133	
0	0	0	0	0	510	132	
1	0	0	0	0	512	132	
2	0	0	0	0	515	133	
3	0	0	0	0	518	132	
4	0	0	0	0	521	132	
5	0	0	0	0	525	133	
6	0	0	0	0	527	132	
7	0	0	0	0	529	132	
8	0	0	0	0	529	133	
9	0	0	0	0	527	132	
10	0	0	0	0	526	133	
11	0	0	0	0	524	132	
12	0	0	0	0	521	132	
13	0	0	0	0	520	133	
14	0	0	0	0	518	133	
15	0	0	0	0	516	132	
0	0	0	0	0	516	133	
1	0	0	0	0	520	133	
2	0	0	0	0	523	132	
3	0	0	0	0	526	132	
4	0	0	0	0	529	133	
5	0	0	0	0	532	132	
6	0	0	0	0	535	132	
7	0	0	0	0	537	132	
8	0	0	0	0	538	132	
9	0	0	0	0	537	132	
10	0	0	0	0	535	133	
11	0	0	0	0	532	132	
12	0	0	0	0	530	132	
13	0	0	0	0	527	133	
14	0	0	0	0	525	133	
15	0	0	0	0	522	132	
0	0	0	0	0	521	132	
1	0	0	0	0	522	133	
2	0	0	0	0	523	132	
3	0	0	0	0	524	132	
4	0	0	0	0	527	133	
5	0	0	0	0	529	132	
6	0	0	0	0	533	132	
7	0	0	0	0	535	133	
8	0	0	0	0	536	133	
9	0	0	0	0	537	132	
10	0	0	0	0	536	133	
11	0	0	0	0	534	132	
12	0	0	0	0	530	132	
13	0	0	0	0	527	133	
14	0	0	0	0	524	133	
15	0	0	0	0	521	132	
0	0	0	0	0	519	133	
1	0	0	0	0	518	133	
2	0	0	0	0	518	132	
3	0	0	0	0	519	132	
4	0	0	0	0	521	133	
5	0	0	0	0	524	132	
6	0	0	0	0	527	132	
7	0	0	0	0	529	133	
8	0	0	0	0	529	132	
9	0	0	0	0	528	132	
10	0	0	0	0	526	133	
11	0	0	0	0	524	132	
12	0	0	0	0	520	132	
13	0	0	0	0	515	133	
14	0	0	0	0	511	133	
15	0	0	0	0	507	132	
0	0	0	0	0	504	133	
1	0	0	0	0	500	133	
2	0	0	0	0	500	132	
3	0	0	0	0	502	132	
4	0	0	0	0	503	133	
5	0	0	0	0	505	132	
6	0	0	0	0	509	132	
7	0	0	0	0	512	133	
8	0	0	0	0	514	132	
9	0	0	0	0	516	132	
10	0	0	0	0	518	133	
11	0	0	0	0	516	132	
12	0	0	0	0	513	132	
13	0	0	0	0	510	133	
14	0	0	0	0	507	132	
15	0	0	0	0	504	132	
0	0	0	0	0	502	133	
1	0	0	0	0	499	133	
2	0	0	0	0	498	132	
3	0	0	0	0	498	133	
4	0	0	0	0	500	133	
5	0	0	0	0	501	132	
6	0	0	0	0	503	132	
7	0	0	0	0	507	133	
8	0	0	0	0	511	132	
9	0	0	0	0	512	132	
10	0	0	0	0	512	133	
11	0	0	0	0	511	132	
12	0	0	0	0	511	132	
13	0	0	0	0	509	133	
14	0	0	0	0	506	132	
15	0	0	0	0	503	132	
0	0	0	0	0	499	133	
1	0	0	0	0	496	133	
2	0	0	0	0	495	132	
3	0	0	0	0	494	133	
4	0	0	0	0	494	133	
5	0	0	0	0	496	132	
6	0	0	0	0	499	133	
7	0	0	0	0	504	133	
8	0	0	0	0	508	132	
9	0	0	0	0	511	132	
10	0	0	0	0	514	132	
11	0	0	0	0	515	132	
12	0	0	0	0	513	133	
13	0	0	0	0	511	132	
14	0	0	0	0	508	132	
15	0	0	0	0	505	133	
0	0	0	0	0	501	132	
1	0	0	0	0	499	132	
2	0	0	0	0	497	133	
3	0	0	0	0	497	132	
4	0	0	0	0	496	133	
5	0	0	0	0	496	133	
6	0	0	0	0	496	132	
7	0	0	0	0	496	133	
8	0	0	0	0	497	133	
9	0	0	0	0	500	132	
10	0	0	0	0	503	132	
11	0	0	0	0	504	133	
12	0	0	0	0	504	132	
13	0	0	0	0	504	132	
14	0	0	0	0	503	133	
15	0	0	0	0	500	132	
0	0	0	0	0	496	132	
1	0	0	0	0	495	133	
2	0	0	0	0	493	133	
3	0	0	0	0	490	132	
4	0	0	0	0	489	133	
5	0	0	0	0	490	133	
6	0	0	0	0	493	132	
7	0	0	0	0	496	133	
8	0	0	0	0	500	133	
9	0	0	0	0	505	132	
10	0	0	0	0	510	132	
11	0	0	0	0	512	133	
12	0	0	0	0	512	132	
13	0	0	0	0	511	132	
14	0	0	0	0	510	133	
15	0	0	0	0	508	132	
0	0	0	0	0	505	132	
1	0	0	0	0	502	133	
2	0	0	0	0	499	133	
3	0	0	0	0	496	132	
4	0	0	0	0	494	133	
5	0	0	0	0	492	133	
6	0	0	0	0	493	132	
7	0	0	0	0	496	132	
8	0	0	0	0	499	133	
9	0	0	0	0	504	132	
10	0	0	0	0	507	132	
11	0	0	0	0	510	133	
12	0	0	0	0	512	132	
13	0	0	0	0	512	132	
14	0	0	0	0	511	133	
15	0	0	0	0	508	133	
0	0	0	0	0	505	132	
1	0	0	0	0	503	133	
2	0	0	0	0	501	133	
3	0	0	0	0	499	132	
4	0	0	0	0	499	133	
5	0	0	0	0	499	133	
6	0	0	0	0	499	132	
7	0	0	0	0	500	132	
8	0	0	0	0	502	133	
9	0	0	0	0	504	132	
10	0	0	0	0	508	132	
11	0	0	0	0	511	133	
12	0	0	0	0	512	133	
13	0	0	0	0	513	132	
14	0	0	0	0	512	132	
15	0	0	0	0	512	133	
0	0	0	0	0	511	132	
1	0	0	0	0	508	132	
2	0	0	0	0	506	133	
3	0	0	0	0	504	133	
4	0	0	0	0	502	132	
5	0	0	0	0	501	132	
6	0	0	0	0	502	133	
7	0	0	0	0	503	132	
8	0	0	0	0	504	132	
9	0	0	0	0	506	133	
10	0	0	0	0	509	132	
11	0	0	0	0	512	132	
12	0	0	0	0	516	132	
13	0	0	0	0	519	133	
14	0	0	0	0	520	132	
15	0	0	0	0	519	132	
0	0	0	0	0	518	133	
1	0	0	0	0	516	133	
2	0	0	0	0	512	132	
3	0	0	0	0	511	132	
4	0	0	0	0	508	133	
5	0	0	0	0	505	132	
6	0	0	0	0	503	132	
7	0	0	0	0	502	133	
8	0	0	0	0	503	133	
9	0	0	0	0	505	132	
10	0	0	0	0	507	133	
11	0	0	0	0	509	133	
12	0	0	0	0	513	132	
13	0	0	0	0	516	133	
14	0	0	0	0	518	133	
15	0	0	0	0	519	132	
0	0	0	0	0	518	132	
1	0	0	0	0	516	133	
2	0	0	0	0	514	132	
3	0	0	0	0	511	132	
4	0	0	0	0	508	133	
5	0	0	0	0	505	132	
6	0	0	0	0	501	132	
7	0	0	0	0	500	133	
8	0	0	0	0	500	132	
9	0	0	0	0	502	132	
10	0	0	0	0	504	133	
11	0	0	0	0	507	132	
12	0	0	0	0	512	133	
13	0	0	0	0	516	132	
14	0	0	0	0	518	132	
15	0	0	0	0	519	133	
0	0	0	0	0	520	132	
1	0	0	0	0	519	132	
2	0	0	0	0	518	133	
3	0	0	0	0	515	133	
4	0	0	0	0	511	132	
5	0	0	0	0	508	133	
6	0	0	0	0	505	132	
7	0	0	0	0	504	132	
8	0	0	0	0	503	133	
9	0	0	0	0	504	132	
10	0	0	0	0	505	133	
11	0	0	0	0	507	132	
12	0	0	0	0	510	132	
13	0	0	0	0	512	133	
14	0	0	0	0	513	132	
15	0	0	0	0	516	131	
0	0	0	0	0	519	133	
1	0	0	0	0	519	132	
2	0	0	0	0	517	132	
3	0	0	0	0	514	133	
4	0	0	0	0	511	133	
5	0	0	0	0	509	132	
6	0	0	0	0	507	133	
7	0	0	0	0	505	132	
8	0	0	0	0	502	132	
9	0	0	0	0	502	133	
10	0	0	0	0	502	132	
11	0	0	0	0	504	132	
12	0	0	0	0	507	133	
13	0	0	0	0	508	132	
14	0	0	0	0	511	132	
15	0	0	0	0	514	132	
0	0	0	0	0	516	132	
1	0	0	0	0	516	132	
2	0	0	0	0	515	133	
3	0	0	0	0	515	132	
4	0	0	0	0	512	132	
5	0	0	0	0	508	133	
6	0	0	0	0	505	132	
7	0	0	0	0	503	132	
8	0	0	0	0	501	133	
9	0	0	0	0	501	132	
10	0	0	0	0	502	133	
11	0	0	0	0	504	133	
12	0	0	0	0	508	132	
13	0	0	0	0	512	133	
14	0	0	0	0	516	132	
15	0	0	0	0	519	132	
0	0	0	0	0	523	132	
1	0	0	0	0	524	132	
2	0	0	0	0	524	132	
3	0	0	0	0	523	132	
4	0	0	0	0	520	132	
5	0	0	0	0	517	132	
6	0	0	0	0	514	132	
7	0	0	0	0	511	133	
8	0	0	0	0	508	132	
9	0	0	0	0	506	133	
10	0	0	0	0	507	132	
11	0	0	0	0	509	132	
12	0	0	0	0	511	133	
13	0	0	0	0	513	132	
14	0	0	0	0	518	132	
15	0	0	0	0	523	133	
0	0	0	0	0	528	132	
1	0	0	0	0	533	131	
2	0	0	0	0	537	132	
3	0	0	0	0	539	132	
4	0	0	0	0	538	133	
5	0	0	0	0	536	132	
6	0	0	0	0	533	132	
7	0	0	0	0	531	132	
8	0	0	0	0	528	133	
9	0	0	0	0	526	132	
10	0	0	0	0	526	132	
11	0	0	0	0	527	133	
12	0	0	0	0	530	132	
13	0	0	0	0	534	131	
14	0	0	0	0	538	132	
15	0	0	0	0	543	132	
0	0	0	0	0	551	131	
1	0	0	0	0	557	133	
2	0	0	0	0	562	132	
3	0	0	0	0	566	131	
4	0	0	0	0	567	132	
5	0	0	0	0	568	132	
6	0	0	0	0	567	131	
7	0	0	0	0	564	132	
8	0	0	0	0	562	132	
9	0	0	0	0	561	132	
10	0	0	0	0	561	131	
11	0	0	0	0	560	132	
12	0	0	0	0	560	132	
13	0	0	0	0	560	131	
14	0	0	0	0	559	133	
15	0	0	0	0	557	132	
0	0	0	0	0	553	131	
1	0	0	0	0	550	133	
2	0	0	0	0	545	132	
3	0	0	0	0	542	131	
4	0	0	0	0	535	133	
5	0	0	0	0	527	132	
6	0	0	0	0	520	132	
7	0	0	0	0	514	133	
8	0	0	0	0	510	132	
9	0	0	0	0	505	132	
10	0	0	0	0	500	133	
11	0	0	0	0	494	133	
12	0	0	0	0	490	132	
13	0	0	0	0	486	133	
14	0	0	0	0	484	133	
15	0	0	0	0	483	132	
0	0	0	0	0	483	133	
1	0	0	0	0	485	132	
2	0	0	0	0	487	132	
3	0	0	0	0	487	133	
4	0	0	0	0	487	132	
5	0	0	0	0	486	133	
6	0	0	0	0	482	132	
7	0	0	0	0	476	133	
8	0	0	0	0	467	132	
9	0	0	0	0	462	132	
10	0	0	0	0	457	133	
11	0	0	0	0	455	133	
12	0	0	0	0	455	132	
13	0	0	0	0	457	133	
14	0	0	0	0	460	133	
15	0	0	0	0	464	132	
0	0	0	0	0	471	133	
1	0	0	0	0	478	133	
2	0	0	0	0	483	132	
3	0	0	0	0	489	133	
4	0	0	0	0	494	132	
5	0	0	0	0	497	132	
6	0	0	0	0	499	132	
7	0	0	0	0	500	133	
8	0	0	0	0	501	132	
9	0	0	0	0	501	132	
10	0	0	0	0	499	133	
11	0	0	0	0	499	132	
12	0	0	0	0	499	132	
13	0	0	0	0	500	133	
14	0	0	0	0	501	132	
15	0	0	0	0	503	133	
0	0	0	0	0	507	132	
1	0	0	0	0	511	132	
2	0	0	0	0	516	132	
3	0	0	0	0	520	132	
4	0	0	0	0	524	133	
5	0	0	0	0	526	132	
6	0	0	0	0	525	131	
7	0	0	0	0	524	133	
8	0	0	0	0	521	132	
9	0	0	0	0	517	132	
10	0	0	0	0	512	133	
11	0	0	0	0	508	132	
12	0	0	0	0	506	132	
13	0	0	0	0	505	132	
14	0	0	0	0	505	133	
15	0	0	0	0	507	132	
0	0	0	0	0	509	132	
1	0	0	0	0	511	132	
2	0	0	0	0	514	132	
3	0	0	0	0	517	133	
4	0	0	0	0	519	132	
5	0	0	0	0	522	132	
6	0	0	0	0	523	132	
7	0	0	0	0	523	132	
8	0	0	0	0	522	131	
9	0	0	0	0	519	133	
10	0	0	0	0	515	132	
11	0	0	0	0	513	132	
12	0	0	0	0	511	133	
13	0	0	0	0	508	132	
14	0	0	0	0	506	132	
15	0	0	0	0	506	132	
0	0	0	0	0	508	132	
1	0	0	0	0	509	132	
2	0	0	0	0	511	133	
3	0	0	0	0	514	132	
4	0	0	0	0	517	132	
5	0	0	0	0	520	133	
6	0	0	0	0	521	132	
7	0	0	0	0	521	132	
8	0	0	0	0	519	133	
9	0	0	0	0	518	132	
10	0	0	0	0	514	132	
11	0	0	0	0	511	133	
12	0	0	0	0	509	132	
13	0	0	0	0	506	132	
14	0	0	0	0	503	132	
15	0	0	0	0	502	132	
0	0	0	0	0	503	132	
1	0	0	0	0	506	132	
2	0	0	0	0	509	133	
3	0	0	0	0	511	132	
4	0	0	0	0	513	131	
5	0	0	0	0	515	133	
6	0	0	0	0	518	132	
7	0	0	0	0	520	131	
8	0	0	0	0	521	133	
9	0	0	0	0	521	132	
10	0	0	0	0	518	132	
11	0	0	0	0	515	133	
12	0	0	0	0	512	132	
13	0	0	0	0	508	132	
14	0	0	0	0	507	133	
15	0	0	0	0	505	132	
0	0	0	0	0	504	132	
1	0	0	0	0	504	132	
2	0	0	0	0	505	132	
3	0	0	0	0	507	132	
4	0	0	0	0	508	133	
5	0	0	0	0	511	133	
6	0	0	0	0	515	132	
7	0	0	0	0	518	132	
8	0	0	0	0	518	132	
9	0	0	0	0	518	132	
10	0	0	0	0	516	132	
11	0	0	0	0	514	132	
12	0	0	0	0	511	132	
13	0	0	0	0	509	132	
14	0	0	0	0	507	132	
15	0	0	0	0	505	132	
0	0	0	0	0	505	131	
1	0	0	0	0	507	133	
2	0	0	0	0	509	132	
3	0	0	0	0	511	131	
4	0	0	0	0	513	133	
5	0	0	0	0	518	132	
6	0	0	0	0	520	132	
7	0	0	0	0	522	132	
8	0	0	0	0	524	132	
9	0	0	0	0	524	131	
10	0	0	0	0	523	133	
11	0	0	0	0	520	132	
12	0	0	0	0	517	131	
13	0	0	0	0	515	132	
14	0	0	0	0	512	132	
15	0	0	0	0	510	133	
0	0	0	0	0	508	132	
1	0	0	0	0	508	132	
2	0	0	0	0	511	132	
3	0	0	0	0	513	132	
4	0	0	0	0	516	131	
5	0	0	0	0	519	132	
6	0	0	0	0	524	132	
7	0	0	0	0	527	132	
8	0	0	0	0	528	132	
9	0	0	0	0	529	132	
10	0	0	0	0	529	132	
11	0	0	0	0	529	132	
12	0	0	0	0	529	131	
13	0	0	0	0	527	133	
14	0	0	0	0	523	132	
15	0	0	0	0	520	132	
0	0	0	0	0	516	133	
1	0	0	0	0	514	132	
2	0	0	0	0	513	132	
3	0	0	0	0	513	132	
4	0	0	0	0	514	132	
5	0	0	0	0	516	132	
6	0	0	0	0	520	133	
7	0	0	0	0	524	132	
8	0	0	0	0	528	131	
9	0	0	0	0	532	132	
10	0	0	0	0	534	132	
11	0	0	0	0	536	133	
12	0	0	0	0	536	132	
13	0	0	0	0	534	131	
14	0	0	0	0	529	132	
15	0	0	0	0	525	132	
0	0	0	0	0	522	132	
1	0	0	0	0	520	132	
2	0	0	0	0	519	132	
3	0	0	0	0	520	131	
4	0	0	0	0	521	133	
5	0	0	0	0	524	132	
6	0	0	0	0	527	131	
7	0	0	0	0	530	133	
8	0	0	0	0	533	132	
9	0	0	0	0	535	131	
10	0	0	0	0	537	132	
11	0	0	0	0	538	132	
12	0	0	0	0	537	131	
13	0	0	0	0	534	132	
14	0	0	0	0	530	132	
15	0	0	0	0	527	131	
0	0	0	0	0	525	133	
1	0	0	0	0	524	132	
2	0	0	0	0	523	131	
3	0	0	0	0	523	132	
4	0	0	0	0	523	132	
5	0	0	0	0	524	131	
6	0	0	0	0	524	132	
7	0	0	0	0	526	132	
8	0	0	0	0	529	131	
9	0	0	0	0	533	132	
10	0	0	0	0	536	132	
11	0	0	0	0	536	132	
12	0	0	0	0	536	132	
13	0	0	0	0	533	132	
14	0	0	0	0	530	131	
15	0	0	0	0	526	132	
0	0	0	0	0	522	132	
1	0	0	0	0	518	131	
2	0	0	0	0	515	132	
3	0	0	0	0	511	132	
4	0	0	0	0	510	132	
5	0	0	0	0	510	132	
6	0	0	0	0	511	132	
7	0	0	0	0	512	131	
8	0	0	0	0	515	132	
9	0	0	0	0	519	132	
10	0	0	0	0	522	133	
11	0	0	0	0	524	132	
12	0	0	0	0	525	132	
13	0	0	0	0	525	133	
14	0	0	0	0	524	132	
15	0	0	0	0	522	131	
0	0	0	0	0	518	132	
1	0	0	0	0	513	132	
2	0	0	0	0	510	132	
3	0	0	0	0	508	133	
4	0	0	0	0	507	132	
5	0	0	0	0	508	132	
6	0	0	0	0	509	133	
7	0	0	0	0	511	132	
8	0	0	0	0	513	131	
9	0	0	0	0	518	132	
10	0	0	0	0	522	132	
11	0	0	0	0	525	131	
12	0	0	0	0	526	132	
13	0	0	0	0	525	132	
14	0	0	0	0	525	132	
15	0	0	0	0	523	132	
0	0	0	0	0	519	131	
1	0	0	0	0	516	133	
2	0	0	0	0	512	132	
3	0	0	0	0	510	131	
4	0	0	0	0	508	133	
5	0	0	0	0	507	132	
6	0	0	0	0	507	131	
7	0	0	0	0	508	132	
8	0	0	0	0	510	132	
9	0	0	0	0	512	132	
10	0	0	0	0	515	132	
11	0	0	0	0	518	131	
12	0	0	0	0	520	133	
13	0	0	0	0	521	132	
14	0	0	0	0	521	132	
15	0	0	0	0	519	132	
0	0	0	0	0	516	132	
1	0	0	0	0	511	132	
2	0	0	0	0	507	133	
3	0	0	0	0	503	132	
4	0	0	0	0	500	132	
5	0	0	0	0	497	133	
6	0	0	0	0	496	132	
7	0	0	0	0	496	131	
8	0	0	0	0	497	133	
9	0	0	0	0	499	132	
10	0	0	0	0	502	132	
11	0	0	0	0	507	133	
12	0	0	0	0	511	132	
13	0	0	0	0	512	131	
14	0	0	0	0	512	132	
15	0	0	0	0	510	132	
0	0	0	0	0	507	132	
1	0	0	0	0	505	132	
2	0	0	0	0	499	132	
3	0	0	0	0	495	132	
4	0	0	0	0	492	132	
5	0	0	0	0	491	132	
6	0	0	0	0	488	131	
7	0	0	0	0	489	132	
8	0	0	0	0	490	132	
9	0	0	0	0	491	132	
10	0	0	0	0	494	132	
11	0	0	0	0	497	132	
12	0	0	0	0	501	132	
13	0	0	0	0	503	132	
14	0	0	0	0	504	132	
15	0	0	0	0	504	131	
0	0	0	0	0	503	132	
1	0	0	0	0	502	132	
2	0	0	0	0	497	131	
3	0	0	0	0	493	132	
4	0	0	0	0	490	132	
5	0	0	0	0	487	132	
6	0	0	0	0	486	132	
7	0	0	0	0	485	132	
8	0	0	0	0	486	132	
9	0	0	0	0	486	132	
10	0	0	0	0	489	132	
11	0	0	0	0	491	132	
12	0	0	0	0	494	132	
13	0	0	0	0	495	132	
14	0	0	0	0	496	132	
15	0	0	0	0	496	132	
0	0	0	0	0	495	132	
1	0	0	0	0	493	132	
2	0	0	0	0	490	132	
3	0	0	0	0	486	132	
4	0	0	0	0	483	132	
5	0	0	0	0	481	132	
6	0	0	0	0	479	132	
7	0	0	0	0	478	132	
8	0	0	0	0	477	132	
9	0	0	0	0	478	133	
10	0	0	0	0	480	132	
11	0	0	0	0	483	132	
12	0	0	0	0	487	132	
13	0	0	0	0	490	132	
14	0	0	0	0	493	132	
15	0	0	0	0	495	132	
0	0	0	0	0	496	132	
1	0	0	0	0	495	132	
2	0	0	0	0	493	132	
3	0	0	0	0	489	132	
4	0	0	0	0	485	132	
5	0	0	0	0	481	132	
6	0	0	0	0	478	132	
7	0	0	0	0	477	132	
8	0	0	0	0	476	133	
9	0	0	0	0	476	132	
10	0	0	0	0	477	132	
11	0	0	0	0	480	132	
12	0	0	0	0	483	132	
13	0	0	0	0	486	133	
14	0	0	0	0	489	132	
15	0	0	0	0	493	131	
0	0	0	0	0	496	132	
1	0	0	0	0	497	132	
2	0	0	0	0	497	132	
3	0	0	0	0	495	132	
4	0	0	0	0	493	132	
5	0	0	0	0	491	132	
6	0	0	0	0	488	132	
7	0	0	0	0	485	132	
8	0	0	0	0	483	132	
9	0	0	0	0	483	131	
10	0	0	0	0	484	133	
11	0	0	0	0	486	132	
12	0	0	0	0	487	132	
13	0	0	0	0	490	132	
14	0	0	0	0	493	132	
15	0	0	0	0	495	132	
0	0	0	0	0	497	132	
1	0	0	0	0	499	132	
2	0	0	0	0	500	131	
3	0	0	0	0	499	132	
4	0	0	0	0	498	131	
5	0	0	0	0	496	133	
6	0	0	0	0	492	132	
7	0	0	0	0	489	132	
8	0	0	0	0	486	133	
9	0	0	0	0	485	132	
10	0	0	0	0	483	132	
11	0	0	0	0	483	132	
12	0	0	0	0	485	132	
13	0	0	0	0	487	132	
14	0	0	0	0	489	132	
15	0	0	0	0	492	132	
0	0	0	0	0	495	132	
1	0	0	0	0	496	132	
2	0	0	0	0	497	132	
3	0	0	0	0	497	132	
4	0	0	0	0	496	131	
5	0	0	0	0	493	132	
6	0	0	0	0	488	132	
7	0	0	0	0	485	132	
8	0	0	0	0	481	132	
9	0	0	0	0	479	132	
10	0	0	0	0	477	132	
11	0	0	0	0	477	132	
12	0	0	0	0	477	132	
13	0	0	0	0	479	132	
14	0	0	0	0	482	133	
15	0	0	0	0	485	132	
0	0	0	0	0	488	131	
1	0	0	0	0	492	132	
2	0	0	0	0	494	132	
3	0	0	0	0	494	132	
4	0	0	0	0	492	132	
5	0	0	0	0	489	132	
6	0	0	0	0	486	132	
7	0	0	0	0	483	132	
8	0	0	0	0	480	132	
9	0	0	0	0	478	132	
10	0	0	0	0	477	132	
11	0	0	0	0	477	132	
12	0	0	0	0	477	132	
13	0	0	0	0	477	133	
14	0	0	0	0	479	132	
15	0	0	0	0	480	132	
0	0	0	0	0	483	133	
1	0	0	0	0	486	132	
2	0	0	0	0	488	132	
3	0	0	0	0	489	132	
4	0	0	0	0	491	132	
5	0	0	0	0	490	132	
6	0	0	0	0	489	132	
7	0	0	0	0	486	133	
8	0	0	0	0	483	132	
9	0	0	0	0	481	132	
10	0	0	0	0	480	133	
11	0	0	0	0	480	132	
12	0	0	0	0	480	132	
13	0	0	0	0	480	132	
14	0	0	0	0	481	132	
15	0	0	0	0	483	132	
0	0	0	0	0	485	132	
1	0	0	0	0	489	132	
2	0	0	0	0	492	132	
3	0	0	0	0	494	132	
4	0	0	0	0	494	132	
5	0	0	0	0	494	132	
6	0	0	0	0	493	132	
7	0	0	0	0	491	132	
8	0	0	0	0	487	132	
9	0	0	0	0	486	131	
10	0	0	0	0	483	132	
11	0	0	0	0	482	132	
12	0	0	0	0	482	132	
13	0	0	0	0	483	132	
14	0	0	0	0	484	132	
15	0	0	0	0	486	131	
0	0	0	0	0	488	133	
1	0	0	0	0	492	132	
2	0	0	0	0	496	132	
3	0	0	0	0	500	133	
4	0	0	0	0	501	132	
5	0	0	0	0	502	131	
6	0	0	0	0	500	132	
7	0	0	0	0	498	132	
8	0	0	0	0	494	131	
9	0	0	0	0	490	132	
10	0	0	0	0	487	132	
11	0	0	0	0	485	132	
12	0	0	0	0	483	132	
13	0	0	0	0	481	132	
14	0	0	0	0	481	132	
15	0	0	0	0	483	132	
0	0	0	0	0	487	132	
1	0	0	0	0	490	132	
2	0	0	0	0	494	131	
3	0	0	0	0	497	132	
4	0	0	0	0	500	132	
5	0	0	0	0	500	132	
6	0	0	0	0	500	132	
7	0	0	0	0	498	132	
8	0	0	0	0	495	132	
9	0	0	0	0	491	132	
10	0	0	0	0	489	132	
11	0	0	0	0	487	132	
12	0	0	0	0	484	132	
13	0	0	0	0	483	132	
14	0	0	0	0	483	133	
15	0	0	0	0	484	132	
0	0	0	0	0	485	132	
1	0	0	0	0	486	132	
2	0	0	0	0	488	132	
3	0	0	0	0	491	132	
4	0	0	0	0	492	131	
5	0	0	0	0	495	132	
6	0	0	0	0	497	132	
7	0	0	0	0	497	132	
8	0	0	0	0	495	132	
9	0	0	0	0	493	132	
10	0	0	0	0	490	132	
11	0	0	0	0	487	132	
12	0	0	0	0	483	132	
13	0	0	0	0	482	132	
14	0	0	0	0	481	132	
15	0	0	0	0	481	132	
0	0	0	0	0	483	132	
1	0	0	0	0	485	132	
2	0	0	0	0	488	132	
3	0	0	0	0	492	132	
4	0	0	0	0	496	132	
5	0	0	0	0	499	131	
6	0	0	0	0	503	132	
7	0	0	0	0	504	132	
8	0	0	0	0	503	131	
9	0	0	0	0	502	132	
10	0	0	0	0	499	132	
11	0	0	0	0	496	132	
12	0	0	0	0	493	132	
13	0	0	0	0	490	132	
14	0	0	0	0	489	132	
15	0	0	0	0	489	132	
0	0	0	0	0	490	131	
1	0	0	0	0	493	132	
2	0	0	0	0	496	132	
3	0	0	0	0	499	132	
4	0	0	0	0	501	132	
5	0	0	0	0	504	131	
6	0	0	0	0	508	132	
7	0	0	0	0	512	132	
8	0	0	0	0	513	131	
9	0	0	0	0	512	132	
10	0	0	0	0	510	132	
11	0	0	0	0	508	131	
12	0	0	0	0	504	132	
13	0	0	0	0	500	131	
14	0	0	0	0	496	132	
15	0	0	0	0	496	132	
0	0	0	0	0	495	131	
1	0	0	0	0	496	132	
2	0	0	0	0	499	132	
3	0	0	0	0	502	131	
4	0	0	0	0	505	132	
5	0	0	0	0	509	132	
6	0	0	0	0	512	131	
7	0	0	0	0	515	132	
8	0	0	0	0	516	132	
9	0	0	0	0	518	131	
10	0	0	0	0	519	132	
11	0	0	0	0	516	132	
12	0	0	0	0	512	131	
13	0	0	0	0	510	132	
14	0	0	0	0	508	132	
15	0	0	0	0	507	131	
0	0	0	0	0	506	132	
1	0	0	0	0	507	132	
2	0	0	0	0	508	132	
3	0	0	0	0	510	131	
4	0	0	0	0	513	132	
5	0	0	0	0	517	131	
6	0	0	0	0	520	131	
7	0	0	0	0	524	132	
8	0	0	0	0	527	131	
9	0	0	0	0	528	132	
10	0	0	0	0	529	131	
11	0	0	0	0	528	132	
12	0	0	0	0	526	132	
13	0	0	0	0	523	131	
14	0	0	0	0	520	132	
15	0	0	0	0	519	132	
0	0	0	0	0	517	131	
1	0	0	0	0	517	132	
2	0	0	0	0	517	132	
3	0	0	0	0	518	131	
4	0	0	0	0	519	132	
5	0	0	0	0	520	132	
6	0	0	0	0	521	131	
7	0	0	0	0	524	132	
8	0	0	0	0	526	132	
9	0	0	0	0	528	131	
10	0	0	0	0	527	132	
11	0	0	0	0	526	132	
12	0	0	0	0	524	131	
13	0	0	0	0	522	132	
14	0	0	0	0	520	131	
15	0	0	0	0	519	132	
0	0	0	0	0	518	131	
1	0	0	0	0	515	131	
2	0	0	0	0	514	132	
3	0	0	0	0	513	131	
4	0	0	0	0	513	132	
5	0	0	0	0	514	132	
6	0	0	0	0	516	132	
7	0	0	0	0	517	131	
8	0	0	0	0	519	132	
9	0	0	0	0	522	131	
10	0	0	0	0	523	131	
11	0	0	0	0	523	132	
12	0	0	0	0	521	131	
13	0	0	0	0	519	132	
14	0	0	0	0	514	132	
15	0	0	0	0	511	131	
0	0	0	0	0	508	132	
1	0	0	0	0	506	132	
2	0	0	0	0	507	131	
3	0	0	0	0	507	132	
4	0	0	0	0	507	132	
5	0	0	0	0	510	131	
6	0	0	0	0	513	132	
7	0	0	0	0	517	132	
8	0	0	0	0	520	131	
9	0	0	0	0	523	132	
10	0	0	0	0	523	132	
11	0	0	0	0	523	131	
12	0	0	0	0	522	132	
13	0	0	0	0	520	132	
14	0	0	0	0	519	131	
15	0	0	0	0	516	132	
0	0	0	0	0	515	132	
1	0	0	0	0	512	131	
2	0	0	0	0	510	131	
3	0	0	0	0	508	132	
4	0	0	0	0	508	132	
5	0	0	0	0	510	132	
6	0	0	0	0	513	132	
7	0	0	0	0	517	131	
8	0	0	0	0	521	132	
9	0	0	0	0	526	132	
10	0	0	0	0	530	131	
11	0	0	0	0	532	131	
12	0	0	0	0	531	132	
13	0	0	0	0	530	131	
14	0	0	0	0	528	132	
15	0	0	0	0	524	132	
0	0	0	0	0	520	131	
1	0	0	0	0	516	132	
2	0	0	0	0	513	132	
3	0	0	0	0	512	131	
4	0	0	0	0	512	132	
5	0	0	0	0	513	132	
6	0	0	0	0	516	131	
7	0	0	0	0	519	132	
8	0	0	0	0	523	132	
9	0	0	0	0	526	131	
10	0	0	0	0	529	132	
11	0	0	0	0	532	132	
12	0	0	0	0	532	131	
13	0	0	0	0	530	132	
14	0	0	0	0	527	132	
15	0	0	0	0	524	131	
0	0	0	0	0	520	131	
1	0	0	0	0	516	132	
2	0	0	0	0	512	131	
3	0	0	0	0	508	132	
4	0	0	0	0	506	132	
5	0	0	0	0	506	131	
6	0	0	0	0	507	132	
7	0	0	0	0	508	132	
8	0	0	0	0	509	131	
9	0	0	0	0	512	132	
10	0	0	0	0	514	132	
11	0	0	0	0	518	131	
12	0	0	0	0	520	132	
13	0	0	0	0	521	132	
14	0	0	0	0	521	131	
15	0	0	0	0	518	132	
0	0	0	0	0	514	132	
1	0	0	0	0	510	132	
2	0	0	0	0	507	132	
3	0	0	0	0	503	132	
4	0	0	0	0	501	131	
5	0	0	0	0	501	132	
6	0	0	0	0	502	132	
7	0	0	0	0	504	131	
8	0	0	0	0	505	132	
9	0	0	0	0	507	132	
10	0	0	0	0	509	131	
11	0	0	0	0	512	132	
12	0	0	0	0	514	132	
13	0	0	0	0	515	131	
14	0	0	0	0	515	132	
15	0	0	0	0	515	131	
0	0	0	0	0	512	131	
1	0	0	0	0	509	132	
2	0	0	0	0	505	132	
3	0	0	0	0	503	131	
4	0	0	0	0	502	132	
5	0	0	0	0	500	132	
6	0	0	0	0	501	131	
7	0	0	0	0	502	132	
8	0	0	0	0	504	132	
9	0	0	0	0	506	131	
10	0	0	0	0	509	132	
11	0	0	0	0	512	131	
12	0	0	0	0	514	131	
13	0	0	0	0	517	132	
14	0	0	0	0	520	131	
15	0	0	0	0	520	131	
0	0	0	0	0	518	132	
1	0	0	0	0	515	131	
2	0	0	0	0	512	132	
3	0	0	0	0	510	132	
4	0	0	0	0	507	131	
5	0	0	0	0	504	132	
6	0	0	0	0	501	132	
7	0	0	0	0	502	131	
8	0	0	0	0	503	132	
9	0	0	0	0	505	132	
10	0	0	0	0	508	131	
11	0	0	0	0	512	132	
12	0	0	0	0	516	132	
13	0	0	0	0	519	131	
14	0	0	0	0	522	131	
15	0	0	0	0	522	132	
0	0	0	0	0	522	132	
1	0	0	0	0	520	131	
2	0	0	0	0	516	132	
3	0	0	0	0	511	132	
4	0	0	0	0	507	131	
5	0	0	0	0	504	132	
6	0	0	0	0	501	131	
7	0	0	0	0	501	132	
8	0	0	0	0	501	132	
9	0	0	0	0	503	131	
10	0	0	0	0	505	132	
11	0	0	0	0	510	131	
12	0	0	0	0	512	132	
13	0	0	0	0	514	132	
14	0	0	0	0	515	131	
15	0	0	0	0	515	131	
0	0	0	0	0	515	132	
1	0	0	0	0	512	131	
2	0	0	0	0	511	131	
3	0	0	0	0	508	132	
4	0	0	0	0	506	131	
5	0	0	0	0	504	131	
6	0	0	0	0	501	132	
7	0	0	0	0	499	132	
8	0	0	0	0	499	131	
9	0	0	0	0	499	132	
10	0	0	0	0	501	132	
11	0	0	0	0	504	131	
12	0	0	0	0	506	132	
13	0	0	0	0	509	132	
14	0	0	0	0	511	131	
15	0	0	0	0	513	132	
0	0	0	0	0	515	132	
1	0	0	0	0	515	131	
2	0	0	0	0	513	131	
3	0	0	0	0	511	132	
4	0	0	0	0	509	131	
5	0	0	0	0	508	132	
6	0	0	0	0	505	132	
7	0	0	0	0	504	131	
8	0	0	0	0	503	132	
9	0	0	0	0	502	132	
10	0	0	0	0	502	131	
11	0	0	0	0	504	132	
12	0	0	0	0	505	132	
13	0	0	0	0	509	131	
14	0	0	0	0	512	131	
15	0	0	0	0	515	132	
0	0	0	0	0	517	131	
1	0	0	0	0	518	132	
2	0	0	0	0	517	132	
3	0	0	0	0	514	131	
4	0	0	0	0	512	131	
5	0	0	0	0	510	132	
6	0	0	0	0	507	132	
7	0	0	0	0	504	131	
8	0	0	0	0	503	132	
9	0	0	0	0	501	132	
10	0	0	0	0	501	131	
11	0	0	0	0	502	132	
12	0	0	0	0	504	132	
13	0	0	0	0	506	131	
14	0	0	0	0	510	132	
15	0	0	0	0	512	131	
0	0	0	0	0	513	132	
1	0	0	0	0	515	132	
2	0	0	0	0	515	131	
3	0	0	0	0	513	132	
4	0	0	0	0	511	131	
5	0	0	0	0	508	132	
6	0	0	0	0	505	132	
7	0	0	0	0	502	131	
8	0	0	0	0	499	132	
9	0	0	0	0	498	131	
10	0	0	0	0	499	131	
11	0	0	0	0	502	132	
12	0	0	0	0	504	131	
13	0	0	0	0	507	132	
14	0	0	0	0	509	132	
15	0	0	0	0	512	131	
0	0	0	0	0	515	132	
1	0	0	0	0	516	132	
2	0	0	0	0	518	131	
3	0	0	0	0	519	132	
4	0	0	0	0	517	132	
5	0	0	0	0	515	131	
6	0	0	0	0	511	132	
7	0	0	0	0	508	132	
8	0	0	0	0	504	131	
9	0	0	0	0	501	131	
10	0	0	0	0	499	132	
11	0	0	0	0	497	132	
12	0	0	0	0	498	131	
13	0	0	0	0	500	132	
14	0	0	0	0	503	132	
15	0	0	0	0	506	131	
0	0	0	0	0	509	132	
1	0	0	0	0	511	132	
2	0	0	0	0	512	131	
3	0	0	0	0	512	132	
4	0	0	0	0	511	132	
5	0	0	0	0	509	131	
6	0	0	0	0	507	132	
7	0	0	0	0	505	132	
8	0	0	0	0	503	132	
9	0	0	0	0	500	131	
10	0	0	0	0	497	132	
11	0	0	0	0	496	132	
12	0	0	0	0	496	131	
13	0	0	0	0	498	132	
14	0	0	0	0	501	132	
15	0	0	0	0	505	131	
0	0	0	0	0	510	132	
1	0	0	0	0	514	132	
2	0	0	0	0	516	131	
3	0	0	0	0	517	132	
4	0	0	0	0	516	132	
5	0	0	0	0	514	131	
6	0	0	0	0	512	132	
7	0	0	0	0	510	132	
8	0	0	0	0	507	131	
9	0	0	0	0	505	132	
10	0	0	0	0	504	132	
11	0	0	0	0	502	131	
12	0	0	0	0	501	131	
13	0	0	0	0	503	132	
14	0	0	0	0	505	132	
15	0	0	0	0	508	131	
0	0	0	0	0	511	132	
1	0	0	0	0	513	132	
2	0	0	0	0	515	131	
3	0	0	0	0	515	132	
4	0	0	0	0	515	132	
5	0	0	0	0	514	131	
6	0	0	0	0	512	132	
7	0	0	0	0	511	132	
8	0	0	0	0	508	131	
9	0	0	0	0	505	132	
10	0	0	0	0	501	132	
11	0	0	0	0	498	131	
12	0	0	0	0	496	132	
13	0	0	0	0	495	132	
14	0	0	0	0	493	131	
15	0	0	0	0	493	132	
0	0	0	0	0	496	132	
1	0	0	0	0	500	131	
2	0	0	0	0	504	131	
3	0	0	0	0	508	132	
4	0	0	0	0	511	131	
5	0	0	0	0	510	132	
6	0	0	0	0	507	132	
7	0	0	0	0	503	131	
8	0	0	0	0	497	131	
9	0	0	0	0	492	132	
10	0	0	0	0	488	132	
11	0	0	0	0	484	132	
12	0	0	0	0	483	132	
13	0	0	0	0	483	131	
14	0	0	0	0	483	131	
15	0	0	0	0	485	132	
0	0	0	0	0	488	131	
1	0	0	0	0	492	131	
2	0	0	0	0	495	132	
3	0	0	0	0	497	131	
4	0	0	0	0	499	132	
5	0	0	0	0	499	131	
6	0	0	0	0	499	132	
7	0	0	0	0	496	132	
8	0	0	0	0	494	131	
9	0	0	0	0	491	132	
10	0	0	0	0	487	132	
11	0	0	0	0	484	131	
12	0	0	0	0	483	132	
13	0	0	0	0	481	132	
14	0	0	0	0	480	131	
15	0	0	0	0	481	131	
0	0	0	0	0	482	132	
1	0	0	0	0	483	131	
2	0	0	0	0	486	131	
3	0	0	0	0	490	132	
4	0	0	0	0	493	132	
5	0	0	0	0	494	131	
6	0	0	0	0	496	132	
7	0	0	0	0	496	132	
8	0	0	0	0	495	131	
9	0	0	0	0	492	132	
10	0	0	0	0	490	131	
11	0	0	0	0	487	131	
12	0	0	0	0	483	132	
13	0	0	0	0	480	132	
14	0	0	0	0	479	132	
15	0	0	0	0	479	132	
0	0	0	0	0	480	131	
1	0	0	0	0	481	132	
2	0	0	0	0	483	132	
3	0	0	0	0	486	131	
4	0	0	0	0	490	132	
5	0	0	0	0	493	132	
6	0	0	0	0	495	131	
7	0	0	0	0	495	131	
8	0	0	0	0	493	132	
9	0	0	0	0	491	132	
10	0	0	0	0	489	131	
11	0	0	0	0	487	132	
12	0	0	0	0	484	132	
13	0	0	0	0	482	131	
14	0	0	0	0	481	132	
15	0	0	0	0	481	131	
0	0	0	0	0	483	132	
1	0	0	0	0	485	132	
2	0	0	0	0	487	131	
3	0	0	0	0	490	132	
4	0	0	0	0	492	132	
5	0	0	0	0	496	131	
6	0	0	0	0	499	132	
7	0	0	0	0	502	132	
8	0	0	0	0	502	131	
9	0	0	0	0	502	132	
10	0	0	0	0	499	132	
11	0	0	0	0	497	131	
12	0	0	0	0	496	132	
13	0	0	0	0	493	132	
14	0	0	0	0	491	131	
15	0	0	0	0	490	132	
0	0	0	0	0	491	131	
1	0	0	0	0	492	132	
2	0	0	0	0	494	132	
3	0	0	0	0	498	131	
4	0	0	0	0	502	132	
5	0	0	0	0	506	132	
6	0	0	0	0	508	131	
7	0	0	0	0	509	132	
8	0	0	0	0	511	132	
9	0	0	0	0	510	131	
10	0	0	0	0	508	132	
11	0	0	0	0	506	132	
12	0	0	0	0	504	131	
13	0	0	0	0	499	132	
14	0	0	0	0	496	131	
15	0	0	0	0	495	132	
0	0	0	0	0	495	132	
1	0	0	0	0	496	131	
2	0	0	0	0	497	132	
3	0	0	0	0	499	132	
4	0	0	0	0	503	131	
5	0	0	0	0	506	132	
6	0	0	0	0	509	131	
7	0	0	0	0	512	131	
8	0	0	0	0	513	132	
9	0	0	0	0	513	131	
10	0	0	0	0	513	132	
11	0	0	0	0	510	132	
12	0	0	0	0	508	131	
13	0	0	0	0	505	132	
14	0	0	0	0	503	131	
15	0	0	0	0	501	132	
0	0	0	0	0	499	132	
1	0	0	0	0	497	131	
2	0	0	0	0	498	132	
3	0	0	0	0	500	132	
4	0	0	0	0	504	131	
5	0	0	0	0	506	131	
6	0	0	0	0	510	132	
7	0	0	0	0	511	131	
8	0	0	0	0	512	132	
9	0	0	0	0	512	132	
10	0	0	0	0	511	131	
11	0	0	0	0	509	132	
12	0	0	0	0	506	132	
13	0	0	0	0	502	131	
14	0	0	0	0	499	132	
15	0	0	0	0	496	132	
0	0	0	0	0	494	131	
1	0	0	0	0	494	132	
2	0	0	0	0	494	132	
3	0	0	0	0	495	131	
4	0	0	0	0	497	132	
5	0	0	0	0	500	132	
6	0	0	0	0	502	131	
7	0	0	0	0	504	132	
8	0	0	0	0	505	131	
9	0	0	0	0	507	131	
10	0	0	0	0	507	132	
11	0	0	0	0	507	132	
12	0	0	0	0	506	131	
13	0	0	0	0	504	132	
14	0	0	0	0	500	132	
15	0	0	0	0	497	131	
0	0	0	0	0	495	132	
1	0	0	0	0	493	131	
2	0	0	0	0	492	132	
3	0	0	0	0	492	132	
4	0	0	0	0	492	131	
5	0	0	0	0	495	131	
6	0	0	0	0	498	132	
7	0	0	0	0	502	131	
8	0	0	0	0	505	131	
9	0	0	0	0	508	132	
10	0	0	0	0	509	131	
11	0	0	0	0	508	131	
12	0	0	0	0	505	132	
13	0	0	0	0	504	131	
14	0	0	0	0	501	132	
15	0	0	0	0	498	132	
0	0	0	0	0	496	131	
1	0	0	0	0	495	132	
2	0	0	0	0	495	132	
3	0	0	0	0	493	131	
4	0	0	0	0	493	132	
5	0	0	0	0	492	132	
6	0	0	0	0	494	131	
7	0	0	0	0	496	132	
8	0	0	0	0	500	132	
9	0	0	0	0	504	131	
10	0	0	0	0	507	131	
11	0	0	0	0	509	132	
12	0	0	0	0	509	131	
13	0	0	0	0	507	132	
14	0	0	0	0	504	131	
15	0	0	0	0	502	131	
0	0	0	0	0	500	132	
1	0	0	0	0	498	132	
2	0	0	0	0	497	131	
3	0	0	0	0	497	132	
4	0	0	0	0	501	132	
5	0	0	0	0	505	131	
6	0	0	0	0	509	132	
7	0	0	0	0	514	132	
8	0	0	0	0	519	131	
9	0	0	0	0	524	131	
10	0	0	0	0	529	132	
11	0	0	0	0	533	131	
12	0	0	0	0	536	131	
13	0	0	0	0	538	132	
14	0	0	0	0	537	132	
15	0	0	0	0	537	131	
0	0	0	0	0	535	131	
1	0	0	0	0	535	132	
2	0	0	0	0	536	131	
3	0	0	0	0	538	131	
4	0	0	0	0	540	132	
5	0	0	0	0	543	132	
6	0	0	0	0	548	131	
7	0	0	0	0	554	132	
8	0	0	0	0	559	132	
9	0	0	0	0	563	131	
10	0	0	0	0	568	131	
11	0	0	0	0	572	132	
12	0	0	0	0	575	131	
13	0	0	0	0	576	131	
14	0	0	0	0	576	132	
15	0	0	0	0	574	131	
0	0	0	0	0	567	132	
1	0	0	0	0	559	132	
2	0	0	0	0	551	131	
3	0	0	0	0	545	132	
4	0	0	0	0	539	132	
5	0	0	0	0	533	131	
6	0	0	0	0	529	132	
7	0	0	0	0	527	132	
8	0	0	0	0	526	131	
9	0	0	0	0	525	132	
10	0	0	0	0	525	132	
11	0	0	0	0	523	131	
12	0	0	0	0	519	132	
13	0	0	0	0	513	132	
14	0	0	0	0	507	131	
15	0	0	0	0	502	132	
0	0	0	0	0	497	132	
1	0	0	0	0	492	131	
2	0	0	0	0	486	132	
3	0	0	0	0	482	132	
4	0	0	0	0	477	131	
5	0	0	0	0	473	131	
6	0	0	0	0	470	132	
7	0	0	0	0	468	132	
8	0	0	0	0	465	131	
9	0	0	0	0	463	132	
10	0	0	0	0	462	132	
11	0	0	0	0	463	131	
12	0	0	0	0	465	132	
13	0	0	0	0	467	132	
14	0	0	0	0	471	131	
15	0	0	0	0	474	131	
0	0	0	0	0	480	132	
1	0	0	0	0	485	132	
2	0	0	0	0	487	131	
3	0	0	0	0	484	132	
4	0	0	0	0	479	132	
5	0	0	0	0	477	131	
6	0	0	0	0	477	132	
7	0	0	0	0	479	132	
8	0	0	0	0	483	131	
9	0	0	0	0	489	131	
10	0	0	0	0	496	132	
11	0	0	0	0	505	131	
12	0	0	0	0	512	131	
13	0	0	0	0	514	132	
14	0	0	0	0	516	131	
15	0	0	0	0	519	131	
0	0	0	0	0	521	132	
1	0	0	0	0	522	132	
2	0	0	0	0	521	131	
3	0	0	0	0	520	132	
4	0	0	0	0	519	132	
5	0	0	0	0	516	131	
6	0	0	0	0	515	132	
7	0	0	0	0	516	132	
8	0	0	0	0	517	131	
9	0	0	0	0	519	131	
10	0	0	0	0	524	132	
11	0	0	0	0	528	131	
12	0	0	0	0	531	131	
13	0	0	0	0	536	132	
14	0	0	0	0	540	131	
15	0	0	0	0	543	131	
0	0	0	0	0	541	132	
1	0	0	0	0	537	131	
2	0	0	0	0	534	131	
3	0	0	0	0	529	132	
4	0	0	0	0	524	131	
5	0	0	0	0	521	131	
6	0	0	0	0	518	132	
7	0	0	0	0	516	132	
8	0	0	0	0	516	131	
9	0	0	0	0	519	132	
10	0	0	0	0	521	131	
11	0	0	0	0	524	132	
12	0	0	0	0	527	131	
13	0	0	0	0	531	131	
14	0	0	0	0	534	132	
15	0	0	0	0	536	131	
0	0	0	0	0	535	131	
1	0	0	0	0	532	132	
2	0	0	0	0	529	131	
3	0	0	0	0	527	131	
4	0	0	0	0	525	132	
5	0	0	0	0	523	132	
6	0	0	0	0	521	131	
7	0	0	0	0	518	132	
8	0	0	0	0	517	131	
9	0	0	0	0	517	132	
10	0	0	0	0	517	132	
11	0	0	0	0	518	131	
12	0	0	0	0	520	132	
13	0	0	0	0	522	132	
14	0	0	0	0	524	131	
15	0	0	0	0	526	132	
0	0	0	0	0	527	132	
1	0	0	0	0	527	131	
2	0	0	0	0	525	131	
3	0	0	0	0	523	132	
4	0	0	0	0	518	131	
5	0	0	0	0	515	132	
6	0	0	0	0	512	132	
7	0	0	0	0	510	131	
8	0	0	0	0	508	131	
9	0	0	0	0	508	132	
10	0	0	0	0	508	131	
11	0	0	0	0	509	131	
12	0	0	0	0	512	132	
13	0	0	0	0	514	131	
14	0	0	0	0	517	131	
15	0	0	0	0	519	132	
0	0	0	0	0	522	132	
1	0	0	0	0	523	131	
2	0	0	0	0	522	132	
3	0	0	0	0	520	132	
4	0	0	0	0	518	131	
5	0	0	0	0	513	131	
6	0	0	0	0	509	132	
7	0	0	0	0	506	131	
8	0	0	0	0	504	132	
9	0	0	0	0	502	132	
10	0	0	0	0	500	131	
11	0	0	0	0	500	131	
12	0	0	0	0	500	132	
13	0	0	0	0	502	131	
14	0	0	0	0	504	131	
15	0	0	0	0	507	132	
0	0	0	0	0	510	131	
1	0	0	0	0	511	131	
2	0	0	0	0	511	132	
3	0	0	0	0	509	131	
4	0	0	0	0	506	132	
5	0	0	0	0	504	132	
6	0	0	0	0	500	131	
7	0	0	0	0	496	132	
8	0	0	0	0	492	132	
9	0	0	0	0	488	131	
10	0	0	0	0	487	132	
11	0	0	0	0	486	132	
12	0	0	0	0	487	131	
13	0	0	0	0	489	132	
14	0	0	0	0	492	131	
15	0	0	0	0	496	131	
0	0	0	0	0	499	132	
1	0	0	0	0	500	131	
2	0	0	0	0	502	132	
3	0	0	0	0	501	131	
4	0	0	0	0	500	132	
5	0	0	0	0	497	132	
6	0	0	0	0	495	131	
7	0	0	0	0	491	132	
8	0	0	0	0	487	132	
9	0	0	0	0	486	131	
10	0	0	0	0	484	132	
11	0	0	0	0	484	132	
12	0	0	0	0	485	131	
13	0	0	0	0	486	132	
14	0	0	0	0	488	132	
15	0	0	0	0	491	131	
0	0	0	0	0	494	132	
1	0	0	0	0	497	132	
2	0	0	0	0	500	131	
3	0	0	0	0	502	132	
4	0	0	0	0	501	132	
5	0	0	0	0	499	131	
6	0	0	0	0	497	132	
7	0	0	0	0	494	131	
8	0	0	0	0	491	131	
9	0	0	0	0	488	132	
10	0	0	0	0	486	131	
11	0	0	0	0	484	131	
12	0	0	0	0	484	132	
13	0	0	0	0	485	131	
14	0	0	0	0	487	131	
15	0	0	0	0	490	132	
0	0	0	0	0	493	131	
1	0	0	0	0	495	131	
2	0	0	0	0	498	132	
3	0	0	0	0	498	131	
4	0	0	0	0	498	131	
5	0	0	0	0	497	132	
6	0	0	0	0	495	131	
7	0	0	0	0	493	132	
8	0	0	0	0	489	132	
9	0	0	0	0	485	131	
10	0	0	0	0	482	132	
11	0	0	0	0	480	132	
12	0	0	0	0	481	131	
13	0	0	0	0	482	132	
14	0	0	0	0	484	132	
15	0	0	0	0	487	131	
0	0	0	0	0	492	132	
1	0	0	0	0	496	132	
2	0	0	0	0	501	131	
3	0	0	0	0	505	132	
4	0	0	0	0	508	131	
5	0	0	0	0	509	132	
6	0	0	0	0	510	131	
7	0	0	0	0	508	131	
8	0	0	0	0	505	132	
9	0	0	0	0	501	131	
10	0	0	0	0	499	131	
11	0	0	0	0	497	132	
12	0	0	0	0	495	131	
13	0	0	0	0	495	131	
14	0	0	0	0	494	132	
15	0	0	0	0	496	131	
0	0	0	0	0	498	131	
1	0	0	0	0	501	132	
2	0	0	0	0	504	132	
3	0	0	0	0	506	131	
4	0	0	0	0	508	132	
5	0	0	0	0	510	131	
6	0	0	0	0	510	131	
7	0	0	0	0	508	132	
8	0	0	0	0	507	131	
9	0	0	0	0	504	131	
10	0	0	0	0	502	132	
11	0	0	0	0	500	132	
12	0	0	0	0	497	131	
13	0	0	0	0	498	132	
14	0	0	0	0	499	131	
15	0	0	0	0	500	131	
0	0	0	0	0	501	132	
1	0	0	0	0	503	132	
2	0	0	0	0	505	131	
3	0	0	0	0	507	132	
4	0	0	0	0	509	131	
5	0	0	0	0	510	131	
6	0	0	0	0	510	132	
7	0	0	0	0	510	131	
8	0	0	0	0	507	131	
9	0	0	0	0	504	132	
10	0	0	0	0	500	131	
11	0	0	0	0	497	131	
12	0	0	0	0	495	132	
13	0	0	0	0	493	131	
14	0	0	0	0	492	131	
15	0	0	0	0	492	132	
0	0	0	0	0	494	131	
1	0	0	0	0	496	131	
2	0	0	0	0	499	132	
3	0	0	0	0	502	132	
4	0	0	0	0	506	131	
5	0	0	0	0	510	132	
6	0	0	0	0	512	131	
7	0	0	0	0	513	131	
8	0	0	0	0	511	132	
9	0	0	0	0	510	131	
10	0	0	0	0	508	132	
11	0	0	0	0	505	132	
12	0	0	0	0	504	131	
13	0	0	0	0	501	131	
14	0	0	0	0	499	132	
15	0	0	0	0	497	131	
0	0	0	0	0	497	132	
1	0	0	0	0	499	132	
2	0	0	0	0	502	131	
3	0	0	0	0	504	132	
4	0	0	0	0	507	131	
5	0	0	0	0	511	131	
6	0	0	0	0	513	132	
7	0	0	0	0	515	131	
8	0	0	0	0	514	131	
9	0	0	0	0	512	132	
10	0	0	0	0	509	132	
11	0	0	0	0	507	131	
12	0	0	0	0	505	132	
13	0	0	0	0	502	131	
14	0	0	0	0	500	132	
15	0	0	0	0	499	132	
0	0	0	0	0	499	131	
1	0	0	0	0	500	132	
2	0	0	0	0	503	132	
3	0	0	0	0	507	131	
4	0	0	0	0	510	132	
5	0	0	0	0	512	132	
6	0	0	0	0	514	131	
7	0	0	0	0	516	131	
8	0	0	0	0	518	132	
9	0	0	0	0	517	131	
10	0	0	0	0	515	131	
11	0	0	0	0	512	131	
12	0	0	0	0	509	131	
13	0	0	0	0	506	132	
14	0	0	0	0	503	132	
15	0	0	0	0	501	131	
0	0	0	0	0	500	132	
1	0	0	0	0	501	132	
2	0	0	0	0	503	131	
3	0	0	0	0	505	132	
4	0	0	0	0	507	132	
5	0	0	0	0	509	131	
6	0	0	0	0	511	131	
7	0	0	0	0	512	132	
8	0	0	0	0	513	131	
9	0	0	0	0	512	131	
10	0	0	0	0	512	132	
11	0	0	0	0	510	131	
12	0	0	0	0	508	131	
13	0	0	0	0	505	132	
14	0	0	0	0	502	131	
15	0	0	0	0	499	131	
0	0	0	0	0	497	132	
1	0	0	0	0	496	131	
2	0	0	0	0	496	131	
3	0	0	0	0	497	132	
4	0	0	0	0	499	131	
5	0	0	0	0	502	131	
6	0	0	0	0	504	132	
7	0	0	0	0	507	131	
8	0	0	0	0	509	132	
9	0	0	0	0	511	131	
10	0	0	0	0	513	131	
11	0	0	0	0	512	132	
12	0	0	0	0	509	131	
13	0	0	0	0	506	131	
14	0	0	0	0	503	132	
15	0	0	0	0	499	131	
0	0	0	0	0	496	132	
1	0	0	0	0	494	132	
2	0	0	0	0	495	131	
3	0	0	0	0	495	132	
4	0	0	0	0	496	132	
5	0	0	0	0	498	131	
6	0	0	0	0	500	132	
7	0	0	0	0	504	131	
8	0	0	0	0	509	131	
9	0	0	0	0	512	132	
10	0	0	0	0	513	131	
11	0	0	0	0	513	131	
12	0	0	0	0	511	132	
13	0	0	0	0	507	131	
14	0	0	0	0	503	131	
15	0	0	0	0	499	132	
0	0	0	0	0	497	131	
1	0	0	0	0	495	132	
2	0	0	0	0	494	132	
3	0	0	0	0	495	131	
4	0	0	0	0	497	131	
5	0	0	0	0	500	132	
6	0	0	0	0	502	131	
7	0	0	0	0	505	131	
8	0	0	0	0	509	132	
9	0	0	0	0	512	131	
10	0	0	0	0	514	131	
11	0	0	0	0	514	132	
12	0	0	0	0	513	131	
13	0	0	0	0	511	131	
14	0	0	0	0	509	132	
15	0	0	0	0	507	132	
0	0	0	0	0	503	131	
1	0	0	0	0	501	132	
2	0	0	0	0	500	131	
3	0	0	0	0	500	132	
4	0	0	0	0	502	132	
5	0	0	0	0	505	131	
6	0	0	0	0	509	132	
7	0	0	0	0	513	131	
8	0	0	0	0	518	131	
9	0	0	0	0	521	132	
10	0	0	0	0	523	131	
11	0	0	0	0	524	131	
12	0	0	0	0	525	132	
13	0	0	0	0	524	131	
14	0	0	0	0	523	131	
15	0	0	0	0	520	131	
0	0	0	0	0	518	132	
1	0	0	0	0	516	131	
2	0	0	0	0	513	131	
3	0	0	0	0	511	132	
4	0	0	0	0	512	132	
5	0	0	0	0	514	131	
6	0	0	0	0	517	131	
7	0	0	0	0	520	132	
8	0	0	0	0	523	131	
9	0	0	0	0	526	131	
10	0	0	0	0	529	131	
11	0	0	0	0	531	131	
12	0	0	0	0	531	131	
13	0	0	0	0	530	132	
14	0	0	0	0	527	131	
15	0	0	0	0	525	131	
0	0	0	0	0	521	131	
1	0	0	0	0	518	132	
2	0	0	0	0	515	131	
3	0	0	0	0	513	131	
4	0	0	0	0	512	132	
5	0	0	0	0	511	131	
6	0	0	0	0	512	131	
7	0	0	0	0	513	132	
8	0	0	0	0	515	132	
9	0	0	0	0	516	131	
10	0	0	0	0	518	131	
11	0	0	0	0	520	132	
12	0	0	0	0	523	132	
13	0	0	0	0	523	131	
14	0	0	0	0	523	131	
15	0	0	0	0	522	132	
0	0	0	0	0	519	131	
1	0	0	0	0	515	131	
2	0	0	0	0	512	132	
3	0	0	0	0	510	131	
4	0	0	0	0	508	131	
5	0	0	0	0	507	132	
6	0	0	0	0	507	132	
7	0	0	0	0	509	131	
8	0	0	0	0	512	132	
9	0	0	0	0	516	132	
10	0	0	0	0	519	131	
11	0	0	0	0	522	131	
12	0	0	0	0	524	132	
13	0	0	0	0	524	131	
14	0	0	0	0	521	132	
15	0	0	0	0	519	131	
0	0	0	0	0	517	131	
1	0	0	0	0	514	132	
2	0	0	0	0	512	131	
3	0	0	0	0	511	131	
4	0	0	0	0	510	132	
5	0	0	0	0	509	132	
6	0	0	0	0	508	131	
7	0	0	0	0	509	132	
8	0	0	0	0	510	132	
9	0	0	0	0	513	131	
10	0	0	0	0	516	132	
11	0	0	0	0	520	131	
12	0	0	0	0	524	131	
13	0	0	0	0	527	132	
14	0	0	0	0	527	131	
15	0	0	0	0	528	131	
0	0	0	0	0	525	131	
1	0	0	0	0	522	132	
2	0	0	0	0	518	131	
3	0	0	0	0	515	131	
4	0	0	0	0	512	132	
5	0	0	0	0	510	131	
6	0	0	0	0	511	132	
7	0	0	0	0	512	131	
8	0	0	0	0	513	131	
9	0	0	0	0	515	131	
10	0	0	0	0	519	131	
11	0	0	0	0	521	132	
12	0	0	0	0	525	131	
13	0	0	0	0	528	131	
14	0	0	0	0	529	131	
15	0	0	0	0	528	132	
0	0	0	0	0	527	131	
1	0	0	0	0	525	131	
2	0	0	0	0	522	132	
3	0	0	0	0	519	131	
4	0	0	0	0	515	132	
5	0	0	0	0	513	131	
6	0	0	0	0	512	131	
7	0	0	0	0	512	132	
8	0	0	0	0	512	131	
9	0	0	0	0	513	131	
10	0	0	0	0	516	132	
11	0	0	0	0	518	131	
12	0	0	0	0	521	131	
13	0	0	0	0	523	132	
14	0	0	0	0	524	131	
15	0	0	0	0	525	131	
0	0	0	0	0	524	132	
1	0	0	0	0	524	132	
2	0	0	0	0	522	131	
3	0	0	0	0	518	131	
4	0	0	0	0	515	131	
5	0	0	0	0	512	131	
6	0	0	0	0	509	131	
7	0	0	0	0	507	132	
8	0	0	0	0	507	132	
9	0	0	0	0	507	131	
10	0	0	0	0	509	131	
11	0	0	0	0	512	132	
12	0	0	0	0	514	131	
13	0	0	0	0	517	131	
14	0	0	0	0	520	132	
15	0	0	0	0	523	131	
0	0	0	0	0	524	131	
1	0	0	0	0	523	132	
2	0	0	0	0	522	131	
3	0	0	0	0	519	131	
4	0	0	0	0	514	132	
5	0	0	0	0	510	131	
6	0	0	0	0	508	131	
7	0	0	0	0	506	132	
8	0	0	0	0	505	131	
9	0	0	0	0	507	131	
10	0	0	0	0	508	132	
11	0	0	0	0	510	132	
12	0	0	0	0	513	131	
13	0	0	0	0	517	131	
14	0	0	0	0	521	131	
15	0	0	0	0	526	131	
0	0	0	0	0	528	131	
1	0	0	0	0	529	132	
2	0	0	0	0	528	131	
3	0	0	0	0	526	131	
4	0	0	0	0	523	132	
5	0	0	0	0	520	131	
6	0	0	0	0	519	132	
7	0	0	0	0	516	131	
8	0	0	0	0	514	131	
9	0	0	0	0	513	131	
10	0	0	0	0	512	131	
11	0	0	0	0	513	131	
12	0	0	0	0	515	131	
13	0	0	0	0	518	132	
14	0	0	0	0	521	131	
15	0	0	0	0	526	131	
0	0	0	0	0	528	132	
1	0	0	0	0	532	131	
2	0	0	0	0	533	131	
3	0	0	0	0	531	132	
4	0	0	0	0	528	131	
5	0	0	0	0	526	131	
6	0	0	0	0	523	131	
7	0	0	0	0	522	131	
8	0	0	0	0	520	131	
9	0	0	0	0	518	131	
10	0	0	0	0	516	132	
11	0	0	0	0	517	131	
12	0	0	0	0	519	131	
13	0	0	0	0	521	132	
14	0	0	0	0	524	131	
15	0	0	0	0	527	131	
0	0	0	0	0	529	132	
1	0	0	0	0	530	131	
2	0	0	0	0	530	131	
3	0	0	0	0	528	131	
4	0	0	0	0	526	131	
5	0	0	0	0	523	131	
6	0	0	0	0	519	132	
7	0	0	0	0	516	131	
8	0	0	0	0	516	131	
9	0	0	0	0	516	131	
10	0	0	0	0	515	131	
11	0	0	0	0	515	131	
12	0	0	0	0	516	131	
13	0	0	0	0	518	132	
14	0	0	0	0	521	131	
15	0	0	0	0	524	131	
0	0	0	0	0	527	131	
1	0	0	0	0	530	131	
2	0	0	0	0	533	131	
3	0	0	0	0	534	131	
4	0	0	0	0	534	131	
5	0	0	0	0	530	132	
6	0	0	0	0	525	131	
7	0	0	0	0	520	131	
8	0	0	0	0	516	132	
9	0	0	0	0	513	131	
10	0	0	0	0	510	131	
11	0	0	0	0	509	131	
12	0	0	0	0	509	132	
13	0	0	0	0	510	131	
14	0	0	0	0	512	131	
15	0	0	0	0	515	131	
0	0	0	0	0	519	131	
1	0	0	0	0	523	131	
2	0	0	0	0	525	132	
3	0	0	0	0	526	131	
4	0	0	0	0	526	131	
5	0	0	0	0	525	131	
6	0	0	0	0	521	131	
7	0	0	0	0	516	131	
8	0	0	0	0	512	131	
9	0	0	0	0	509	132	
10	0	0	0	0	508	131	
11	0	0	0	0	506	131	
12	0	0	0	0	507	132	
13	0	0	0	0	508	131	
14	0	0	0	0	509	131	
15	0	0	0	0	510	132	
0	0	0	0	0	512	131	
1	0	0	0	0	514	131	
2	0	0	0	0	517	131	
3	0	0	0	0	519	131	
4	0	0	0	0	521	131	
5	0	0	0	0	521	132	
6	0	0	0	0	520	131	
7	0	0	0	0	518	131	
8	0	0	0	0	514	132	
9	0	0	0	0	510	131	
10	0	0	0	0	508	131	
11	0	0	0	0	504	132	
12	0	0	0	0	503	131	
13	0	0	0	0	504	131	
14	0	0	0	0	507	132	
15	0	0	0	0	509	131	
0	0	0	0	0	513	131	
1	0	0	0	0	518	131	
2	0	0	0	0	521	131	
