# OpenSignals Text File Format. Version 1
# {"98:D3:B1:FD:3D:90": {"position": 0, "device": "bitalino_rev", "device name": "98:D3:B1:FD:3D:90", "device connection": "/dev/tty.BITalino-DevB", "sampling rate": 1000, "resolution": [4, 1, 1, 1, 1, 10, 10], "firmware version": 1281, "comments": "", "keywords": "", "mode": 0, "sync interval": 2, "date": "2022-4-10", "time": "22:18:0.98", "channels": [2, 3], "sensor": ["ECGBIT", "EDABITREV"], "label": ["A2", "A3"], "column": ["nSeq", "I1", "I2", "O1", "O2", "A2", "A3"], "special": [{}, {}], "digital IO": [0, 0, 1, 1]}}
# EndOfHeader
0	0	0	0	0	515	94	
1	0	0	0	0	512	95	
2	0	0	0	0	510	95	
3	0	0	0	0	509	95	
4	0	0	0	0	510	94	
5	0	0	0	0	511	94	
6	0	0	0	0	512	93	
7	0	0	0	0	514	93	
8	0	0	0	0	515	94	
9	0	0	0	0	516	95	
10	0	0	0	0	518	95	
11	0	0	0	0	518	95	
12	0	0	0	0	518	94	
13	0	0	0	0	518	94	
14	0	0	0	0	516	93	
15	0	0	0	0	516	93	
0	0	0	0	0	515	94	
1	0	0	0	0	513	95	
2	0	0	0	0	511	95	
3	0	0	0	0	510	94	
4	0	0	0	0	510	93	
5	0	0	0	0	510	94	
6	0	0	0	0	510	94	
7	0	0	0	0	511	95	
8	0	0	0	0	512	95	
9	0	0	0	0	514	94	
10	0	0	0	0	515	94	
11	0	0	0	0	516	94	
12	0	0	0	0	517	93	
13	0	0	0	0	518	94	
14	0	0	0	0	517	95	
15	0	0	0	0	516	95	
0	0	0	0	0	514	95	
1	0	0	0	0	512	94	
2	0	0	0	0	511	94	
3	0	0	0	0	510	94	
4	0	0	0	0	510	93	
5	0	0	0	0	511	93	
6	0	0	0	0	512	93	
7	0	0	0	0	513	93	
8	0	0	0	0	516	94	
9	0	0	0	0	518	95	
10	0	0	0	0	520	95	
11	0	0	0	0	521	95	
12	0	0	0	0	522	94	
13	0	0	0	0	522	94	
14	0	0	0	0	521	93	
15	0	0	0	0	521	93	
0	0	0	0	0	520	94	
1	0	0	0	0	518	94	
2	0	0	0	0	516	95	
3	0	0	0	0	515	95	
4	0	0	0	0	515	95	
5	0	0	0	0	514	95	
6	0	0	0	0	513	94	
7	0	0	0	0	515	94	
8	0	0	0	0	515	93	
9	0	0	0	0	515	93	
10	0	0	0	0	517	94	
11	0	0	0	0	519	95	
12	0	0	0	0	521	95	
13	0	0	0	0	523	94	
14	0	0	0	0	524	93	
15	0	0	0	0	523	93	
0	0	0	0	0	521	94	
1	0	0	0	0	519	95	
2	0	0	0	0	518	95	
3	0	0	0	0	518	94	
4	0	0	0	0	517	94	
5	0	0	0	0	515	94	
6	0	0	0	0	515	95	
7	0	0	0	0	515	95	
8	0	0	0	0	515	95	
9	0	0	0	0	516	95	
10	0	0	0	0	519	94	
11	0	0	0	0	522	93	
12	0	0	0	0	525	94	
13	0	0	0	0	527	95	
14	0	0	0	0	529	95	
15	0	0	0	0	528	95	
0	0	0	0	0	528	94	
1	0	0	0	0	527	94	
2	0	0	0	0	524	93	
3	0	0	0	0	523	94	
4	0	0	0	0	521	95	
5	0	0	0	0	520	95	
6	0	0	0	0	519	95	
7	0	0	0	0	520	95	
8	0	0	0	0	521	94	
9	0	0	0	0	524	94	
10	0	0	0	0	526	94	
11	0	0	0	0	526	93	
12	0	0	0	0	527	93	
13	0	0	0	0	529	94	
14	0	0	0	0	530	95	
15	0	0	0	0	530	95	
0	0	0	0	0	529	94	
1	0	0	0	0	529	94	
2	0	0	0	0	528	93	
3	0	0	0	0	526	93	
4	0	0	0	0	525	94	
5	0	0	0	0	524	95	
6	0	0	0	0	521	95	
7	0	0	0	0	519	94	
8	0	0	0	0	519	94	
9	0	0	0	0	522	93	
10	0	0	0	0	524	93	
11	0	0	0	0	524	94	
12	0	0	0	0	526	94	
13	0	0	0	0	527	95	
14	0	0	0	0	530	95	
15	0	0	0	0	531	95	
0	0	0	0	0	531	95	
1	0	0	0	0	531	94	
2	0	0	0	0	529	93	
3	0	0	0	0	527	93	
4	0	0	0	0	525	95	
5	0	0	0	0	523	95	
6	0	0	0	0	520	95	
7	0	0	0	0	518	95	
8	0	0	0	0	515	95	
9	0	0	0	0	514	94	
10	0	0	0	0	514	93	
11	0	0	0	0	515	94	
12	0	0	0	0	516	95	
13	0	0	0	0	518	94	
14	0	0	0	0	520	95	
15	0	0	0	0	522	94	
0	0	0	0	0	522	94	
1	0	0	0	0	522	94	
2	0	0	0	0	521	93	
3	0	0	0	0	519	93	
4	0	0	0	0	517	93	
5	0	0	0	0	515	95	
6	0	0	0	0	513	95	
7	0	0	0	0	510	94	
8	0	0	0	0	508	94	
9	0	0	0	0	508	93	
10	0	0	0	0	507	94	
11	0	0	0	0	507	95	
12	0	0	0	0	508	95	
13	0	0	0	0	509	95	
14	0	0	0	0	511	94	
15	0	0	0	0	514	94	
0	0	0	0	0	516	95	
1	0	0	0	0	517	95	
2	0	0	0	0	516	95	
3	0	0	0	0	515	94	
4	0	0	0	0	514	94	
5	0	0	0	0	514	93	
6	0	0	0	0	512	93	
7	0	0	0	0	510	93	
8	0	0	0	0	507	94	
9	0	0	0	0	505	95	
10	0	0	0	0	505	95	
11	0	0	0	0	507	94	
12	0	0	0	0	507	93	
13	0	0	0	0	508	94	
14	0	0	0	0	510	95	
15	0	0	0	0	512	95	
0	0	0	0	0	515	94	
1	0	0	0	0	515	94	
2	0	0	0	0	514	94	
3	0	0	0	0	513	93	
4	0	0	0	0	511	93	
5	0	0	0	0	510	93	
6	0	0	0	0	507	94	
7	0	0	0	0	505	95	
8	0	0	0	0	503	95	
9	0	0	0	0	501	95	
10	0	0	0	0	501	94	
11	0	0	0	0	499	94	
12	0	0	0	0	499	94	
13	0	0	0	0	499	93	
14	0	0	0	0	500	93	
15	0	0	0	0	503	95	
0	0	0	0	0	505	95	
1	0	0	0	0	507	94	
2	0	0	0	0	508	94	
3	0	0	0	0	509	94	
4	0	0	0	0	509	93	
5	0	0	0	0	507	93	
6	0	0	0	0	506	94	
7	0	0	0	0	505	95	
8	0	0	0	0	504	95	
9	0	0	0	0	502	95	
10	0	0	0	0	500	95	
11	0	0	0	0	500	94	
12	0	0	0	0	500	94	
13	0	0	0	0	500	93	
14	0	0	0	0	501	93	
15	0	0	0	0	504	94	
0	0	0	0	0	506	95	
1	0	0	0	0	508	95	
2	0	0	0	0	509	95	
3	0	0	0	0	511	94	
4	0	0	0	0	513	94	
5	0	0	0	0	513	93	
6	0	0	0	0	512	93	
7	0	0	0	0	510	94	
8	0	0	0	0	507	95	
9	0	0	0	0	504	95	
10	0	0	0	0	504	94	
11	0	0	0	0	504	94	
12	0	0	0	0	504	93	
13	0	0	0	0	505	93	
14	0	0	0	0	508	94	
15	0	0	0	0	511	95	
0	0	0	0	0	514	95	
1	0	0	0	0	518	95	
2	0	0	0	0	520	94	
3	0	0	0	0	521	94	
4	0	0	0	0	521	93	
5	0	0	0	0	522	94	
6	0	0	0	0	521	95	
7	0	0	0	0	520	94	
8	0	0	0	0	518	94	
9	0	0	0	0	517	93	
10	0	0	0	0	515	94	
11	0	0	0	0	516	95	
12	0	0	0	0	517	95	
13	0	0	0	0	517	94	
14	0	0	0	0	519	94	
15	0	0	0	0	519	93	
0	0	0	0	0	520	93	
1	0	0	0	0	521	93	
2	0	0	0	0	523	94	
3	0	0	0	0	524	95	
4	0	0	0	0	524	95	
5	0	0	0	0	524	94	
6	0	0	0	0	523	94	
7	0	0	0	0	523	94	
8	0	0	0	0	522	93	
9	0	0	0	0	520	93	
10	0	0	0	0	518	95	
11	0	0	0	0	516	95	
12	0	0	0	0	516	95	
13	0	0	0	0	517	94	
14	0	0	0	0	517	94	
15	0	0	0	0	518	93	
0	0	0	0	0	518	94	
1	0	0	0	0	519	95	
2	0	0	0	0	522	95	
3	0	0	0	0	524	95	
4	0	0	0	0	525	94	
5	0	0	0	0	527	94	
6	0	0	0	0	526	94	
7	0	0	0	0	524	94	
8	0	0	0	0	522	93	
9	0	0	0	0	519	93	
10	0	0	0	0	518	93	
11	0	0	0	0	515	94	
12	0	0	0	0	514	95	
13	0	0	0	0	513	95	
14	0	0	0	0	512	95	
15	0	0	0	0	513	94	
0	0	0	0	0	513	94	
1	0	0	0	0	516	94	
2	0	0	0	0	519	93	
3	0	0	0	0	521	94	
4	0	0	0	0	523	95	
5	0	0	0	0	524	95	
6	0	0	0	0	526	94	
7	0	0	0	0	528	94	
8	0	0	0	0	529	93	
9	0	0	0	0	529	93	
10	0	0	0	0	529	93	
11	0	0	0	0	529	94	
12	0	0	0	0	527	95	
13	0	0	0	0	527	94	
14	0	0	0	0	529	94	
15	0	0	0	0	530	93	
0	0	0	0	0	531	93	
1	0	0	0	0	532	93	
2	0	0	0	0	535	94	
3	0	0	0	0	538	95	
4	0	0	0	0	541	95	
5	0	0	0	0	544	94	
6	0	0	0	0	547	93	
7	0	0	0	0	550	93	
8	0	0	0	0	553	93	
9	0	0	0	0	555	93	
10	0	0	0	0	555	93	
11	0	0	0	0	556	94	
12	0	0	0	0	558	95	
13	0	0	0	0	561	95	
14	0	0	0	0	564	95	
15	0	0	0	0	567	94	
0	0	0	0	0	571	94	
1	0	0	0	0	575	94	
2	0	0	0	0	578	93	
3	0	0	0	0	581	94	
4	0	0	0	0	583	94	
5	0	0	0	0	584	94	
6	0	0	0	0	583	94	
7	0	0	0	0	581	93	
8	0	0	0	0	576	93	
9	0	0	0	0	569	94	
10	0	0	0	0	562	95	
11	0	0	0	0	553	95	
12	0	0	0	0	544	94	
13	0	0	0	0	535	94	
14	0	0	0	0	527	94	
15	0	0	0	0	521	94	
0	0	0	0	0	516	93	
1	0	0	0	0	512	94	
2	0	0	0	0	508	95	
3	0	0	0	0	504	95	
4	0	0	0	0	501	95	
5	0	0	0	0	498	94	
6	0	0	0	0	497	93	
7	0	0	0	0	495	94	
8	0	0	0	0	492	95	
9	0	0	0	0	490	95	
10	0	0	0	0	486	95	
11	0	0	0	0	483	95	
12	0	0	0	0	479	95	
13	0	0	0	0	475	94	
14	0	0	0	0	470	94	
15	0	0	0	0	463	94	
0	0	0	0	0	459	93	
1	0	0	0	0	457	94	
2	0	0	0	0	457	95	
3	0	0	0	0	460	95	
4	0	0	0	0	464	95	
5	0	0	0	0	470	95	
6	0	0	0	0	476	95	
7	0	0	0	0	481	94	
8	0	0	0	0	487	94	
9	0	0	0	0	492	94	
10	0	0	0	0	496	95	
11	0	0	0	0	498	95	
12	0	0	0	0	499	94	
13	0	0	0	0	502	94	
14	0	0	0	0	503	94	
15	0	0	0	0	505	93	
0	0	0	0	0	508	95	
1	0	0	0	0	511	95	
2	0	0	0	0	512	95	
3	0	0	0	0	514	95	
4	0	0	0	0	516	94	
5	0	0	0	0	519	94	
6	0	0	0	0	521	94	
7	0	0	0	0	525	93	
8	0	0	0	0	529	93	
9	0	0	0	0	532	95	
10	0	0	0	0	532	94	
11	0	0	0	0	531	94	
12	0	0	0	0	530	93	
13	0	0	0	0	527	93	
14	0	0	0	0	525	94	
15	0	0	0	0	523	94	
0	0	0	0	0	522	95	
1	0	0	0	0	521	95	
2	0	0	0	0	522	95	
3	0	0	0	0	523	94	
4	0	0	0	0	525	94	
5	0	0	0	0	527	94	
6	0	0	0	0	528	94	
7	0	0	0	0	530	93	
8	0	0	0	0	532	94	
9	0	0	0	0	535	94	
10	0	0	0	0	535	95	
11	0	0	0	0	537	95	
12	0	0	0	0	537	95	
13	0	0	0	0	536	94	
14	0	0	0	0	534	95	
15	0	0	0	0	531	94	
0	0	0	0	0	528	94	
1	0	0	0	0	527	93	
2	0	0	0	0	526	93	
3	0	0	0	0	527	94	
4	0	0	0	0	527	95	
5	0	0	0	0	529	95	
6	0	0	0	0	531	94	
7	0	0	0	0	534	94	
8	0	0	0	0	537	94	
9	0	0	0	0	540	93	
10	0	0	0	0	541	93	
11	0	0	0	0	541	94	
12	0	0	0	0	540	95	
13	0	0	0	0	538	94	
14	0	0	0	0	535	94	
15	0	0	0	0	533	93	
0	0	0	0	0	530	93	
1	0	0	0	0	528	95	
2	0	0	0	0	527	95	
3	0	0	0	0	526	95	
4	0	0	0	0	528	94	
5	0	0	0	0	529	94	
6	0	0	0	0	531	93	
7	0	0	0	0	533	93	
8	0	0	0	0	535	94	
9	0	0	0	0	536	95	
10	0	0	0	0	537	95	
11	0	0	0	0	539	94	
12	0	0	0	0	538	94	
13	0	0	0	0	538	94	
14	0	0	0	0	537	94	
15	0	0	0	0	536	93	
0	0	0	0	0	537	93	
1	0	0	0	0	536	93	
2	0	0	0	0	532	94	
3	0	0	0	0	530	94	
4	0	0	0	0	528	95	
5	0	0	0	0	527	95	
6	0	0	0	0	527	95	
7	0	0	0	0	528	94	
8	0	0	0	0	530	95	
9	0	0	0	0	530	94	
10	0	0	0	0	530	94	
11	0	0	0	0	532	94	
12	0	0	0	0	532	94	
13	0	0	0	0	532	93	
14	0	0	0	0	531	93	
15	0	0	0	0	533	93	
0	0	0	0	0	532	94	
1	0	0	0	0	531	95	
2	0	0	0	0	528	95	
3	0	0	0	0	527	94	
4	0	0	0	0	527	94	
5	0	0	0	0	527	93	
6	0	0	0	0	527	93	
7	0	0	0	0	528	94	
8	0	0	0	0	530	94	
9	0	0	0	0	533	94	
10	0	0	0	0	535	94	
11	0	0	0	0	536	93	
12	0	0	0	0	537	93	
13	0	0	0	0	536	93	
14	0	0	0	0	535	93	
15	0	0	0	0	531	93	
0	0	0	0	0	530	94	
1	0	0	0	0	529	95	
2	0	0	0	0	528	94	
3	0	0	0	0	528	94	
4	0	0	0	0	527	93	
5	0	0	0	0	527	93	
6	0	0	0	0	527	94	
7	0	0	0	0	528	94	
8	0	0	0	0	531	95	
9	0	0	0	0	534	95	
10	0	0	0	0	537	94	
11	0	0	0	0	539	95	
12	0	0	0	0	540	94	
13	0	0	0	0	541	94	
14	0	0	0	0	541	94	
15	0	0	0	0	541	93	
0	0	0	0	0	538	93	
1	0	0	0	0	536	94	
2	0	0	0	0	535	95	
3	0	0	0	0	533	95	
4	0	0	0	0	531	94	
5	0	0	0	0	528	94	
6	0	0	0	0	529	94	
7	0	0	0	0	531	93	
8	0	0	0	0	531	93	
9	0	0	0	0	532	93	
10	0	0	0	0	533	93	
11	0	0	0	0	534	94	
12	0	0	0	0	535	95	
13	0	0	0	0	535	94	
14	0	0	0	0	536	95	
15	0	0	0	0	536	94	
0	0	0	0	0	535	94	
1	0	0	0	0	532	93	
2	0	0	0	0	529	93	
3	0	0	0	0	527	94	
4	0	0	0	0	524	94	
5	0	0	0	0	523	95	
6	0	0	0	0	523	95	
7	0	0	0	0	524	94	
8	0	0	0	0	524	94	
9	0	0	0	0	525	94	
10	0	0	0	0	526	94	
11	0	0	0	0	530	94	
12	0	0	0	0	534	93	
13	0	0	0	0	536	93	
14	0	0	0	0	539	93	
15	0	0	0	0	539	93	
0	0	0	0	0	537	93	
1	0	0	0	0	537	93	
2	0	0	0	0	536	94	
3	0	0	0	0	536	94	
4	0	0	0	0	535	95	
5	0	0	0	0	536	95	
6	0	0	0	0	535	95	
7	0	0	0	0	536	94	
8	0	0	0	0	536	94	
9	0	0	0	0	539	94	
10	0	0	0	0	542	93	
11	0	0	0	0	543	93	
12	0	0	0	0	545	93	
13	0	0	0	0	547	93	
14	0	0	0	0	547	94	
15	0	0	0	0	547	95	
0	0	0	0	0	546	94	
1	0	0	0	0	545	94	
2	0	0	0	0	545	94	
3	0	0	0	0	544	93	
4	0	0	0	0	543	93	
5	0	0	0	0	541	93	
6	0	0	0	0	541	95	
7	0	0	0	0	542	94	
8	0	0	0	0	542	94	
9	0	0	0	0	542	93	
10	0	0	0	0	543	93	
11	0	0	0	0	544	93	
12	0	0	0	0	546	93	
13	0	0	0	0	547	93	
14	0	0	0	0	548	94	
15	0	0	0	0	551	95	
0	0	0	0	0	551	95	
1	0	0	0	0	552	95	
2	0	0	0	0	551	94	
3	0	0	0	0	549	94	
4	0	0	0	0	546	94	
5	0	0	0	0	545	94	
6	0	0	0	0	544	94	
7	0	0	0	0	544	93	
8	0	0	0	0	544	93	
9	0	0	0	0	544	93	
10	0	0	0	0	546	94	
11	0	0	0	0	547	95	
12	0	0	0	0	549	94	
13	0	0	0	0	551	94	
14	0	0	0	0	555	94	
15	0	0	0	0	558	93	
0	0	0	0	0	558	93	
1	0	0	0	0	559	93	
2	0	0	0	0	559	94	
3	0	0	0	0	558	95	
4	0	0	0	0	556	95	
5	0	0	0	0	554	94	
6	0	0	0	0	552	94	
7	0	0	0	0	551	94	
8	0	0	0	0	548	94	
9	0	0	0	0	545	94	
10	0	0	0	0	545	94	
11	0	0	0	0	545	93	
12	0	0	0	0	545	94	
13	0	0	0	0	546	94	
14	0	0	0	0	547	95	
15	0	0	0	0	548	94	
0	0	0	0	0	548	94	
1	0	0	0	0	548	93	
2	0	0	0	0	547	93	
3	0	0	0	0	545	94	
4	0	0	0	0	541	95	
5	0	0	0	0	538	94	
6	0	0	0	0	536	94	
7	0	0	0	0	536	93	
8	0	0	0	0	534	93	
9	0	0	0	0	533	93	
10	0	0	0	0	533	93	
11	0	0	0	0	535	93	
12	0	0	0	0	537	94	
13	0	0	0	0	539	95	
14	0	0	0	0	541	95	
15	0	0	0	0	543	94	
0	0	0	0	0	543	94	
1	0	0	0	0	543	94	
2	0	0	0	0	543	93	
3	0	0	0	0	542	93	
4	0	0	0	0	540	93	
5	0	0	0	0	539	93	
6	0	0	0	0	537	94	
7	0	0	0	0	535	95	
8	0	0	0	0	533	95	
9	0	0	0	0	532	94	
10	0	0	0	0	531	93	
11	0	0	0	0	531	93	
12	0	0	0	0	530	94	
13	0	0	0	0	529	95	
14	0	0	0	0	531	95	
15	0	0	0	0	533	94	
0	0	0	0	0	535	94	
1	0	0	0	0	536	94	
2	0	0	0	0	534	93	
3	0	0	0	0	531	93	
4	0	0	0	0	530	93	
5	0	0	0	0	527	94	
6	0	0	0	0	523	95	
7	0	0	0	0	520	95	
8	0	0	0	0	517	94	
9	0	0	0	0	513	94	
10	0	0	0	0	511	94	
11	0	0	0	0	510	94	
12	0	0	0	0	510	93	
13	0	0	0	0	510	93	
14	0	0	0	0	512	93	
15	0	0	0	0	513	94	
0	0	0	0	0	515	95	
1	0	0	0	0	516	95	
2	0	0	0	0	516	95	
3	0	0	0	0	515	95	
4	0	0	0	0	513	94	
5	0	0	0	0	511	95	
6	0	0	0	0	508	94	
7	0	0	0	0	506	94	
8	0	0	0	0	504	94	
9	0	0	0	0	502	93	
10	0	0	0	0	500	93	
11	0	0	0	0	498	93	
12	0	0	0	0	497	93	
13	0	0	0	0	497	94	
14	0	0	0	0	497	95	
15	0	0	0	0	500	95	
0	0	0	0	0	502	95	
1	0	0	0	0	504	94	
2	0	0	0	0	505	94	
3	0	0	0	0	506	93	
4	0	0	0	0	506	93	
5	0	0	0	0	506	94	
6	0	0	0	0	504	94	
7	0	0	0	0	502	95	
8	0	0	0	0	499	95	
9	0	0	0	0	496	95	
10	0	0	0	0	494	94	
11	0	0	0	0	491	94	
12	0	0	0	0	490	93	
13	0	0	0	0	490	93	
14	0	0	0	0	492	95	
15	0	0	0	0	492	95	
0	0	0	0	0	493	94	
1	0	0	0	0	494	94	
2	0	0	0	0	496	94	
3	0	0	0	0	498	93	
4	0	0	0	0	498	93	
5	0	0	0	0	498	94	
6	0	0	0	0	498	95	
7	0	0	0	0	497	95	
8	0	0	0	0	496	95	
9	0	0	0	0	494	94	
10	0	0	0	0	491	94	
11	0	0	0	0	489	94	
12	0	0	0	0	488	93	
13	0	0	0	0	488	93	
14	0	0	0	0	489	94	
15	0	0	0	0	490	94	
0	0	0	0	0	491	95	
1	0	0	0	0	493	95	
2	0	0	0	0	495	95	
3	0	0	0	0	497	94	
4	0	0	0	0	499	94	
5	0	0	0	0	499	94	
6	0	0	0	0	497	93	
7	0	0	0	0	496	93	
8	0	0	0	0	495	95	
9	0	0	0	0	494	95	
10	0	0	0	0	493	94	
11	0	0	0	0	491	93	
12	0	0	0	0	491	94	
13	0	0	0	0	489	95	
14	0	0	0	0	489	95	
15	0	0	0	0	491	95	
0	0	0	0	0	491	94	
1	0	0	0	0	494	94	
2	0	0	0	0	496	94	
3	0	0	0	0	499	93	
4	0	0	0	0	503	93	
5	0	0	0	0	504	94	
6	0	0	0	0	503	95	
7	0	0	0	0	503	94	
8	0	0	0	0	501	95	
9	0	0	0	0	498	94	
10	0	0	0	0	496	95	
11	0	0	0	0	495	94	
12	0	0	0	0	494	93	
13	0	0	0	0	492	94	
14	0	0	0	0	492	95	
15	0	0	0	0	492	95	
0	0	0	0	0	492	95	
1	0	0	0	0	494	95	
2	0	0	0	0	495	94	
3	0	0	0	0	497	94	
4	0	0	0	0	499	93	
5	0	0	0	0	500	93	
6	0	0	0	0	500	95	
7	0	0	0	0	500	95	
8	0	0	0	0	499	95	
9	0	0	0	0	498	95	
10	0	0	0	0	496	95	
11	0	0	0	0	494	94	
12	0	0	0	0	491	94	
13	0	0	0	0	489	94	
14	0	0	0	0	487	93	
15	0	0	0	0	486	93	
0	0	0	0	0	484	94	
1	0	0	0	0	483	94	
2	0	0	0	0	483	95	
3	0	0	0	0	485	95	
4	0	0	0	0	487	95	
5	0	0	0	0	488	94	
6	0	0	0	0	490	95	
7	0	0	0	0	490	95	
8	0	0	0	0	490	94	
9	0	0	0	0	490	94	
10	0	0	0	0	489	94	
11	0	0	0	0	487	94	
12	0	0	0	0	485	93	
13	0	0	0	0	482	93	
14	0	0	0	0	481	93	
15	0	0	0	0	480	95	
0	0	0	0	0	481	95	
1	0	0	0	0	482	95	
2	0	0	0	0	483	94	
3	0	0	0	0	484	95	
4	0	0	0	0	486	94	
5	0	0	0	0	487	93	
6	0	0	0	0	489	93	
7	0	0	0	0	490	94	
8	0	0	0	0	489	94	
9	0	0	0	0	488	95	
10	0	0	0	0	487	95	
11	0	0	0	0	486	95	
12	0	0	0	0	484	94	
13	0	0	0	0	483	94	
14	0	0	0	0	481	94	
15	0	0	0	0	480	94	
0	0	0	0	0	481	93	
1	0	0	0	0	481	93	
2	0	0	0	0	481	94	
3	0	0	0	0	482	94	
4	0	0	0	0	483	95	
5	0	0	0	0	486	95	
6	0	0	0	0	488	95	
7	0	0	0	0	490	94	
8	0	0	0	0	491	94	
9	0	0	0	0	491	94	
10	0	0	0	0	491	93	
11	0	0	0	0	487	93	
12	0	0	0	0	484	94	
13	0	0	0	0	481	95	
14	0	0	0	0	478	95	
15	0	0	0	0	477	95	
0	0	0	0	0	476	95	
1	0	0	0	0	476	95	
2	0	0	0	0	475	95	
3	0	0	0	0	476	95	
4	0	0	0	0	479	94	
5	0	0	0	0	483	93	
6	0	0	0	0	487	93	
7	0	0	0	0	491	93	
8	0	0	0	0	494	95	
9	0	0	0	0	495	95	
10	0	0	0	0	494	94	
11	0	0	0	0	494	94	
12	0	0	0	0	493	94	
13	0	0	0	0	491	94	
14	0	0	0	0	489	93	
15	0	0	0	0	486	93	
0	0	0	0	0	483	95	
1	0	0	0	0	481	95	
2	0	0	0	0	482	94	
3	0	0	0	0	482	94	
4	0	0	0	0	481	94	
5	0	0	0	0	482	93	
6	0	0	0	0	483	93	
7	0	0	0	0	486	94	
8	0	0	0	0	488	95	
9	0	0	0	0	491	94	
10	0	0	0	0	492	94	
11	0	0	0	0	492	94	
12	0	0	0	0	492	93	
13	0	0	0	0	491	93	
14	0	0	0	0	488	94	
15	0	0	0	0	487	95	
0	0	0	0	0	485	95	
1	0	0	0	0	483	94	
2	0	0	0	0	483	93	
3	0	0	0	0	481	94	
4	0	0	0	0	483	95	
5	0	0	0	0	485	95	
6	0	0	0	0	487	94	
7	0	0	0	0	489	94	
8	0	0	0	0	489	93	
9	0	0	0	0	491	94	
10	0	0	0	0	493	95	
11	0	0	0	0	493	95	
12	0	0	0	0	492	94	
13	0	0	0	0	491	94	
14	0	0	0	0	489	94	
15	0	0	0	0	487	93	
0	0	0	0	0	484	94	
1	0	0	0	0	483	95	
2	0	0	0	0	481	94	
3	0	0	0	0	481	94	
4	0	0	0	0	480	94	
5	0	0	0	0	481	93	
6	0	0	0	0	482	93	
7	0	0	0	0	484	94	
8	0	0	0	0	486	95	
9	0	0	0	0	487	95	
10	0	0	0	0	488	94	
11	0	0	0	0	490	94	
12	0	0	0	0	490	93	
13	0	0	0	0	490	93	
14	0	0	0	0	489	95	
15	0	0	0	0	490	94	
0	0	0	0	0	488	94	
1	0	0	0	0	486	94	
2	0	0	0	0	484	93	
3	0	0	0	0	483	93	
4	0	0	0	0	481	94	
5	0	0	0	0	482	95	
6	0	0	0	0	483	95	
7	0	0	0	0	484	94	
8	0	0	0	0	487	94	
9	0	0	0	0	491	93	
10	0	0	0	0	496	93	
11	0	0	0	0	499	94	
12	0	0	0	0	501	95	
13	0	0	0	0	501	95	
14	0	0	0	0	501	95	
15	0	0	0	0	499	94	
0	0	0	0	0	497	93	
1	0	0	0	0	496	94	
2	0	0	0	0	495	95	
3	0	0	0	0	495	95	
4	0	0	0	0	494	94	
5	0	0	0	0	494	94	
6	0	0	0	0	495	93	
7	0	0	0	0	495	93	
8	0	0	0	0	496	94	
9	0	0	0	0	498	95	
10	0	0	0	0	498	94	
11	0	0	0	0	500	94	
12	0	0	0	0	500	93	
13	0	0	0	0	499	93	
14	0	0	0	0	499	94	
15	0	0	0	0	496	95	
0	0	0	0	0	495	94	
1	0	0	0	0	493	94	
2	0	0	0	0	489	94	
3	0	0	0	0	486	93	
4	0	0	0	0	483	94	
5	0	0	0	0	483	95	
6	0	0	0	0	482	95	
7	0	0	0	0	483	94	
8	0	0	0	0	484	94	
9	0	0	0	0	486	93	
10	0	0	0	0	487	93	
11	0	0	0	0	487	95	
12	0	0	0	0	487	94	
13	0	0	0	0	489	94	
14	0	0	0	0	489	94	
15	0	0	0	0	488	93	
0	0	0	0	0	488	94	
1	0	0	0	0	488	95	
2	0	0	0	0	488	94	
3	0	0	0	0	487	94	
4	0	0	0	0	486	94	
5	0	0	0	0	485	94	
6	0	0	0	0	484	93	
7	0	0	0	0	485	93	
8	0	0	0	0	485	94	
9	0	0	0	0	483	94	
10	0	0	0	0	484	95	
11	0	0	0	0	488	95	
12	0	0	0	0	491	94	
13	0	0	0	0	494	94	
14	0	0	0	0	496	94	
15	0	0	0	0	496	94	
0	0	0	0	0	496	94	
1	0	0	0	0	495	93	
2	0	0	0	0	494	93	
3	0	0	0	0	492	95	
4	0	0	0	0	490	95	
5	0	0	0	0	489	94	
6	0	0	0	0	488	94	
7	0	0	0	0	489	94	
8	0	0	0	0	491	94	
9	0	0	0	0	493	93	
10	0	0	0	0	496	94	
11	0	0	0	0	500	95	
12	0	0	0	0	504	95	
13	0	0	0	0	506	94	
14	0	0	0	0	505	93	
15	0	0	0	0	503	93	
0	0	0	0	0	500	94	
1	0	0	0	0	498	95	
2	0	0	0	0	497	95	
3	0	0	0	0	495	95	
4	0	0	0	0	494	95	
5	0	0	0	0	492	94	
6	0	0	0	0	492	94	
7	0	0	0	0	492	94	
8	0	0	0	0	492	93	
9	0	0	0	0	495	93	
10	0	0	0	0	497	94	
11	0	0	0	0	499	95	
12	0	0	0	0	502	95	
13	0	0	0	0	503	95	
14	0	0	0	0	505	95	
15	0	0	0	0	508	94	
0	0	0	0	0	508	94	
1	0	0	0	0	508	93	
2	0	0	0	0	508	93	
3	0	0	0	0	505	93	
4	0	0	0	0	503	94	
5	0	0	0	0	501	95	
6	0	0	0	0	501	95	
7	0	0	0	0	500	95	
8	0	0	0	0	499	94	
9	0	0	0	0	499	94	
10	0	0	0	0	500	94	
11	0	0	0	0	502	94	
12	0	0	0	0	504	93	
13	0	0	0	0	507	93	
14	0	0	0	0	508	94	
15	0	0	0	0	508	95	
0	0	0	0	0	508	94	
1	0	0	0	0	506	94	
2	0	0	0	0	502	94	
3	0	0	0	0	499	93	
4	0	0	0	0	499	93	
5	0	0	0	0	497	93	
6	0	0	0	0	496	94	
7	0	0	0	0	495	95	
8	0	0	0	0	495	95	
9	0	0	0	0	495	94	
10	0	0	0	0	498	94	
11	0	0	0	0	500	93	
12	0	0	0	0	504	93	
13	0	0	0	0	507	94	
14	0	0	0	0	510	94	
15	0	0	0	0	512	94	
0	0	0	0	0	514	94	
1	0	0	0	0	515	93	
2	0	0	0	0	515	94	
3	0	0	0	0	514	95	
4	0	0	0	0	511	94	
5	0	0	0	0	510	94	
6	0	0	0	0	506	93	
7	0	0	0	0	504	93	
8	0	0	0	0	501	94	
9	0	0	0	0	500	94	
10	0	0	0	0	500	94	
11	0	0	0	0	502	94	
12	0	0	0	0	504	93	
13	0	0	0	0	506	93	
14	0	0	0	0	508	94	
15	0	0	0	0	512	95	
0	0	0	0	0	516	94	
1	0	0	0	0	517	94	
2	0	0	0	0	518	94	
3	0	0	0	0	517	94	
4	0	0	0	0	516	93	
5	0	0	0	0	513	93	
6	0	0	0	0	511	93	
7	0	0	0	0	508	94	
8	0	0	0	0	504	95	
9	0	0	0	0	501	95	
10	0	0	0	0	499	94	
11	0	0	0	0	497	94	
12	0	0	0	0	498	94	
13	0	0	0	0	499	93	
14	0	0	0	0	500	93	
15	0	0	0	0	501	95	
0	0	0	0	0	501	95	
1	0	0	0	0	499	94	
2	0	0	0	0	496	94	
3	0	0	0	0	496	93	
4	0	0	0	0	493	94	
5	0	0	0	0	490	95	
6	0	0	0	0	488	95	
7	0	0	0	0	486	94	
8	0	0	0	0	483	94	
9	0	0	0	0	484	94	
10	0	0	0	0	484	94	
11	0	0	0	0	484	93	
12	0	0	0	0	485	93	
13	0	0	0	0	486	94	
14	0	0	0	0	487	95	
15	0	0	0	0	490	94	
0	0	0	0	0	493	94	
1	0	0	0	0	495	94	
2	0	0	0	0	497	94	
3	0	0	0	0	496	93	
4	0	0	0	0	495	93	
5	0	0	0	0	493	95	
6	0	0	0	0	492	94	
7	0	0	0	0	492	94	
8	0	0	0	0	492	94	
9	0	0	0	0	492	93	
10	0	0	0	0	491	93	
11	0	0	0	0	492	94	
12	0	0	0	0	493	94	
13	0	0	0	0	492	95	
14	0	0	0	0	492	95	
15	0	0	0	0	495	94	
0	0	0	0	0	498	94	
1	0	0	0	0	501	94	
2	0	0	0	0	502	94	
3	0	0	0	0	504	93	
4	0	0	0	0	504	93	
5	0	0	0	0	505	93	
6	0	0	0	0	504	94	
7	0	0	0	0	504	94	
8	0	0	0	0	504	95	
9	0	0	0	0	504	95	
10	0	0	0	0	503	94	
11	0	0	0	0	502	94	
12	0	0	0	0	502	94	
13	0	0	0	0	501	94	
14	0	0	0	0	500	94	
15	0	0	0	0	501	93	
0	0	0	0	0	503	93	
1	0	0	0	0	505	94	
2	0	0	0	0	507	94	
3	0	0	0	0	508	95	
4	0	0	0	0	508	94	
5	0	0	0	0	508	95	
6	0	0	0	0	507	94	
7	0	0	0	0	506	94	
8	0	0	0	0	505	93	
9	0	0	0	0	505	93	
10	0	0	0	0	503	94	
11	0	0	0	0	500	94	
12	0	0	0	0	499	94	
13	0	0	0	0	496	94	
14	0	0	0	0	497	94	
15	0	0	0	0	500	93	
0	0	0	0	0	503	93	
1	0	0	0	0	505	93	
2	0	0	0	0	507	95	
3	0	0	0	0	509	94	
4	0	0	0	0	511	94	
5	0	0	0	0	511	94	
6	0	0	0	0	511	94	
7	0	0	0	0	511	93	
8	0	0	0	0	511	93	
9	0	0	0	0	510	95	
10	0	0	0	0	507	94	
11	0	0	0	0	504	94	
12	0	0	0	0	502	94	
13	0	0	0	0	502	93	
14	0	0	0	0	503	93	
15	0	0	0	0	503	94	
0	0	0	0	0	505	94	
1	0	0	0	0	508	94	
2	0	0	0	0	510	94	
3	0	0	0	0	511	94	
4	0	0	0	0	511	94	
5	0	0	0	0	512	93	
6	0	0	0	0	512	93	
7	0	0	0	0	511	93	
8	0	0	0	0	509	94	
9	0	0	0	0	508	94	
10	0	0	0	0	507	94	
11	0	0	0	0	505	94	
12	0	0	0	0	504	93	
13	0	0	0	0	504	94	
14	0	0	0	0	503	95	
15	0	0	0	0	502	94	
0	0	0	0	0	501	94	
1	0	0	0	0	501	94	
2	0	0	0	0	502	94	
3	0	0	0	0	504	93	
4	0	0	0	0	507	93	
5	0	0	0	0	508	94	
6	0	0	0	0	510	94	
7	0	0	0	0	511	95	
8	0	0	0	0	511	94	
9	0	0	0	0	509	94	
10	0	0	0	0	506	94	
11	0	0	0	0	504	93	
12	0	0	0	0	502	94	
13	0	0	0	0	500	94	
14	0	0	0	0	499	95	
15	0	0	0	0	499	94	
0	0	0	0	0	500	94	
1	0	0	0	0	498	94	
2	0	0	0	0	499	94	
3	0	0	0	0	500	94	
4	0	0	0	0	501	93	
5	0	0	0	0	503	93	
6	0	0	0	0	505	93	
7	0	0	0	0	506	94	
8	0	0	0	0	505	95	
9	0	0	0	0	504	95	
10	0	0	0	0	503	94	
11	0	0	0	0	499	94	
12	0	0	0	0	497	94	
13	0	0	0	0	496	94	
14	0	0	0	0	494	94	
15	0	0	0	0	494	93	
0	0	0	0	0	493	93	
1	0	0	0	0	492	95	
2	0	0	0	0	491	94	
3	0	0	0	0	493	94	
4	0	0	0	0	497	94	
5	0	0	0	0	501	93	
6	0	0	0	0	503	93	
7	0	0	0	0	504	93	
8	0	0	0	0	504	94	
9	0	0	0	0	502	95	
10	0	0	0	0	499	94	
11	0	0	0	0	497	94	
12	0	0	0	0	496	94	
13	0	0	0	0	495	93	
14	0	0	0	0	495	93	
15	0	0	0	0	495	95	
0	0	0	0	0	497	94	
1	0	0	0	0	501	94	
2	0	0	0	0	504	94	
3	0	0	0	0	508	93	
4	0	0	0	0	512	93	
5	0	0	0	0	514	93	
6	0	0	0	0	515	95	
7	0	0	0	0	516	94	
8	0	0	0	0	519	94	
9	0	0	0	0	522	93	
10	0	0	0	0	524	93	
11	0	0	0	0	526	93	
12	0	0	0	0	526	93	
13	0	0	0	0	525	95	
14	0	0	0	0	523	95	
15	0	0	0	0	524	94	
0	0	0	0	0	527	94	
1	0	0	0	0	531	93	
2	0	0	0	0	536	93	
3	0	0	0	0	542	93	
4	0	0	0	0	546	93	
5	0	0	0	0	549	94	
6	0	0	0	0	551	94	
7	0	0	0	0	555	94	
8	0	0	0	0	557	94	
9	0	0	0	0	555	93	
10	0	0	0	0	553	93	
11	0	0	0	0	550	95	
12	0	0	0	0	545	94	
13	0	0	0	0	540	94	
14	0	0	0	0	532	94	
15	0	0	0	0	526	93	
0	0	0	0	0	519	94	
1	0	0	0	0	513	95	
2	0	0	0	0	508	95	
3	0	0	0	0	502	94	
4	0	0	0	0	501	94	
5	0	0	0	0	499	94	
6	0	0	0	0	496	93	
7	0	0	0	0	490	93	
8	0	0	0	0	486	93	
9	0	0	0	0	484	94	
10	0	0	0	0	480	95	
11	0	0	0	0	475	94	
12	0	0	0	0	470	94	
13	0	0	0	0	466	94	
14	0	0	0	0	465	94	
15	0	0	0	0	461	93	
0	0	0	0	0	458	95	
1	0	0	0	0	455	95	
2	0	0	0	0	449	95	
3	0	0	0	0	445	94	
4	0	0	0	0	442	94	
5	0	0	0	0	441	94	
6	0	0	0	0	443	93	
7	0	0	0	0	446	94	
8	0	0	0	0	448	95	
9	0	0	0	0	449	95	
10	0	0	0	0	450	94	
11	0	0	0	0	453	94	
12	0	0	0	0	454	93	
13	0	0	0	0	455	93	
14	0	0	0	0	454	94	
15	0	0	0	0	451	95	
0	0	0	0	0	449	95	
1	0	0	0	0	450	94	
2	0	0	0	0	453	94	
3	0	0	0	0	458	93	
4	0	0	0	0	464	93	
5	0	0	0	0	470	94	
6	0	0	0	0	476	95	
7	0	0	0	0	485	94	
8	0	0	0	0	492	94	
9	0	0	0	0	497	94	
10	0	0	0	0	500	94	
11	0	0	0	0	500	93	
12	0	0	0	0	497	93	
13	0	0	0	0	495	95	
14	0	0	0	0	495	94	
15	0	0	0	0	496	94	
0	0	0	0	0	496	93	
1	0	0	0	0	495	93	
2	0	0	0	0	494	94	
3	0	0	0	0	494	94	
4	0	0	0	0	494	94	
5	0	0	0	0	495	94	
6	0	0	0	0	496	94	
7	0	0	0	0	499	93	
8	0	0	0	0	503	93	
9	0	0	0	0	507	95	
10	0	0	0	0	511	94	
11	0	0	0	0	513	94	
12	0	0	0	0	513	94	
13	0	0	0	0	511	94	
14	0	0	0	0	508	93	
15	0	0	0	0	503	93	
0	0	0	0	0	498	93	
1	0	0	0	0	494	94	
2	0	0	0	0	492	95	
3	0	0	0	0	492	95	
4	0	0	0	0	494	94	
5	0	0	0	0	495	94	
6	0	0	0	0	495	94	
7	0	0	0	0	496	93	
8	0	0	0	0	498	93	
9	0	0	0	0	500	94	
10	0	0	0	0	503	95	
11	0	0	0	0	505	95	
12	0	0	0	0	508	94	
13	0	0	0	0	510	95	
14	0	0	0	0	508	94	
15	0	0	0	0	507	94	
0	0	0	0	0	504	93	
1	0	0	0	0	498	93	
2	0	0	0	0	493	94	
3	0	0	0	0	491	94	
4	0	0	0	0	491	94	
5	0	0	0	0	492	94	
6	0	0	0	0	493	93	
7	0	0	0	0	494	93	
8	0	0	0	0	496	93	
9	0	0	0	0	499	95	
10	0	0	0	0	502	94	
11	0	0	0	0	505	94	
12	0	0	0	0	507	94	
13	0	0	0	0	507	93	
14	0	0	0	0	507	93	
15	0	0	0	0	505	93	
0	0	0	0	0	503	93	
1	0	0	0	0	502	95	
2	0	0	0	0	502	95	
3	0	0	0	0	503	94	
4	0	0	0	0	501	94	
5	0	0	0	0	500	94	
6	0	0	0	0	501	94	
7	0	0	0	0	504	93	
8	0	0	0	0	505	93	
9	0	0	0	0	507	93	
10	0	0	0	0	508	94	
11	0	0	0	0	509	95	
12	0	0	0	0	508	94	
13	0	0	0	0	507	94	
14	0	0	0	0	505	94	
15	0	0	0	0	504	94	
0	0	0	0	0	502	93	
1	0	0	0	0	499	93	
2	0	0	0	0	497	94	
3	0	0	0	0	494	95	
4	0	0	0	0	492	94	
5	0	0	0	0	491	94	
6	0	0	0	0	491	94	
7	0	0	0	0	493	94	
8	0	0	0	0	493	94	
9	0	0	0	0	494	93	
10	0	0	0	0	496	93	
11	0	0	0	0	497	93	
12	0	0	0	0	499	94	
13	0	0	0	0	501	95	
14	0	0	0	0	503	95	
15	0	0	0	0	503	94	
0	0	0	0	0	502	94	
1	0	0	0	0	501	94	
2	0	0	0	0	499	93	
3	0	0	0	0	498	93	
4	0	0	0	0	497	93	
5	0	0	0	0	497	95	
6	0	0	0	0	497	94	
7	0	0	0	0	498	94	
8	0	0	0	0	499	94	
9	0	0	0	0	500	93	
10	0	0	0	0	502	93	
11	0	0	0	0	505	94	
12	0	0	0	0	508	95	
13	0	0	0	0	510	94	
14	0	0	0	0	511	95	
15	0	0	0	0	510	94	
0	0	0	0	0	508	94	
1	0	0	0	0	506	93	
2	0	0	0	0	505	93	
3	0	0	0	0	505	93	
4	0	0	0	0	504	94	
5	0	0	0	0	503	95	
6	0	0	0	0	500	94	
7	0	0	0	0	499	94	
8	0	0	0	0	499	94	
9	0	0	0	0	500	93	
10	0	0	0	0	502	93	
11	0	0	0	0	505	94	
12	0	0	0	0	510	94	
13	0	0	0	0	512	94	
14	0	0	0	0	516	94	
15	0	0	0	0	519	93	
0	0	0	0	0	519	93	
1	0	0	0	0	520	93	
2	0	0	0	0	519	95	
3	0	0	0	0	516	94	
4	0	0	0	0	515	94	
5	0	0	0	0	515	94	
6	0	0	0	0	513	94	
7	0	0	0	0	511	93	
8	0	0	0	0	509	94	
9	0	0	0	0	509	94	
10	0	0	0	0	510	94	
11	0	0	0	0	512	93	
12	0	0	0	0	514	93	
13	0	0	0	0	515	93	
14	0	0	0	0	518	93	
15	0	0	0	0	520	94	
0	0	0	0	0	519	95	
1	0	0	0	0	519	94	
2	0	0	0	0	518	94	
3	0	0	0	0	515	94	
4	0	0	0	0	513	94	
5	0	0	0	0	511	93	
6	0	0	0	0	509	93	
7	0	0	0	0	508	93	
8	0	0	0	0	508	94	
9	0	0	0	0	509	95	
10	0	0	0	0	510	94	
11	0	0	0	0	511	94	
12	0	0	0	0	512	94	
13	0	0	0	0	512	93	
14	0	0	0	0	515	95	
15	0	0	0	0	516	94	
0	0	0	0	0	518	94	
1	0	0	0	0	518	94	
2	0	0	0	0	519	93	
3	0	0	0	0	519	93	
4	0	0	0	0	518	93	
5	0	0	0	0	517	93	
6	0	0	0	0	515	94	
7	0	0	0	0	514	94	
8	0	0	0	0	513	94	
9	0	0	0	0	513	94	
10	0	0	0	0	515	94	
11	0	0	0	0	516	93	
12	0	0	0	0	519	93	
13	0	0	0	0	522	93	
14	0	0	0	0	525	94	
15	0	0	0	0	527	95	
0	0	0	0	0	528	94	
1	0	0	0	0	529	94	
2	0	0	0	0	529	94	
3	0	0	0	0	528	94	
4	0	0	0	0	526	93	
5	0	0	0	0	523	93	
6	0	0	0	0	520	93	
7	0	0	0	0	519	93	
8	0	0	0	0	518	95	
9	0	0	0	0	516	94	
10	0	0	0	0	517	94	
11	0	0	0	0	518	94	
12	0	0	0	0	517	94	
13	0	0	0	0	519	94	
14	0	0	0	0	521	93	
15	0	0	0	0	524	93	
0	0	0	0	0	528	94	
1	0	0	0	0	529	94	
2	0	0	0	0	527	94	
3	0	0	0	0	529	94	
4	0	0	0	0	528	94	
5	0	0	0	0	527	94	
6	0	0	0	0	525	93	
7	0	0	0	0	523	93	
8	0	0	0	0	522	95	
9	0	0	0	0	520	94	
10	0	0	0	0	520	94	
11	0	0	0	0	523	94	
12	0	0	0	0	524	93	
13	0	0	0	0	525	93	
14	0	0	0	0	527	93	
15	0	0	0	0	530	94	
0	0	0	0	0	534	94	
1	0	0	0	0	536	94	
2	0	0	0	0	536	93	
3	0	0	0	0	535	93	
4	0	0	0	0	534	94	
5	0	0	0	0	534	94	
6	0	0	0	0	532	94	
7	0	0	0	0	529	94	
8	0	0	0	0	527	94	
9	0	0	0	0	526	93	
10	0	0	0	0	526	93	
11	0	0	0	0	526	93	
12	0	0	0	0	526	93	
13	0	0	0	0	525	93	
14	0	0	0	0	525	93	
15	0	0	0	0	527	95	
0	0	0	0	0	529	94	
1	0	0	0	0	531	94	
2	0	0	0	0	533	94	
3	0	0	0	0	534	94	
4	0	0	0	0	535	93	
5	0	0	0	0	533	93	
6	0	0	0	0	532	93	
7	0	0	0	0	531	93	
8	0	0	0	0	529	93	
9	0	0	0	0	527	94	
10	0	0	0	0	524	94	
11	0	0	0	0	524	94	
12	0	0	0	0	525	94	
13	0	0	0	0	527	94	
14	0	0	0	0	527	93	
15	0	0	0	0	527	93	
0	0	0	0	0	528	93	
1	0	0	0	0	531	95	
2	0	0	0	0	534	94	
3	0	0	0	0	534	94	
4	0	0	0	0	532	94	
5	0	0	0	0	530	93	
6	0	0	0	0	528	93	
7	0	0	0	0	527	93	
8	0	0	0	0	526	93	
9	0	0	0	0	524	94	
10	0	0	0	0	521	95	
11	0	0	0	0	521	94	
12	0	0	0	0	521	94	
13	0	0	0	0	521	94	
14	0	0	0	0	523	94	
15	0	0	0	0	524	94	
0	0	0	0	0	523	93	
1	0	0	0	0	524	93	
2	0	0	0	0	525	93	
3	0	0	0	0	525	94	
4	0	0	0	0	525	94	
5	0	0	0	0	524	94	
6	0	0	0	0	523	94	
7	0	0	0	0	522	94	
8	0	0	0	0	520	93	
9	0	0	0	0	518	93	
10	0	0	0	0	515	94	
11	0	0	0	0	514	94	
12	0	0	0	0	514	94	
13	0	0	0	0	513	94	
14	0	0	0	0	512	94	
15	0	0	0	0	513	94	
0	0	0	0	0	515	93	
1	0	0	0	0	517	93	
2	0	0	0	0	519	94	
3	0	0	0	0	520	95	
4	0	0	0	0	521	94	
5	0	0	0	0	523	94	
6	0	0	0	0	523	94	
7	0	0	0	0	523	93	
8	0	0	0	0	521	93	
9	0	0	0	0	519	93	
10	0	0	0	0	516	94	
11	0	0	0	0	513	94	
12	0	0	0	0	511	94	
13	0	0	0	0	508	94	
14	0	0	0	0	506	93	
15	0	0	0	0	507	93	
0	0	0	0	0	507	93	
1	0	0	0	0	508	94	
2	0	0	0	0	510	94	
3	0	0	0	0	510	94	
4	0	0	0	0	512	94	
5	0	0	0	0	512	94	
6	0	0	0	0	513	93	
7	0	0	0	0	513	93	
8	0	0	0	0	512	93	
9	0	0	0	0	511	94	
10	0	0	0	0	509	94	
11	0	0	0	0	507	94	
12	0	0	0	0	504	94	
13	0	0	0	0	503	94	
14	0	0	0	0	501	93	
15	0	0	0	0	501	93	
0	0	0	0	0	501	93	
1	0	0	0	0	503	94	
2	0	0	0	0	504	95	
3	0	0	0	0	506	94	
4	0	0	0	0	509	94	
5	0	0	0	0	511	93	
6	0	0	0	0	513	93	
7	0	0	0	0	514	93	
8	0	0	0	0	513	94	
9	0	0	0	0	511	95	
10	0	0	0	0	508	94	
11	0	0	0	0	507	94	
12	0	0	0	0	506	94	
13	0	0	0	0	504	94	
14	0	0	0	0	504	93	
15	0	0	0	0	504	93	
0	0	0	0	0	504	94	
1	0	0	0	0	505	94	
2	0	0	0	0	506	94	
3	0	0	0	0	507	94	
4	0	0	0	0	506	93	
5	0	0	0	0	507	93	
6	0	0	0	0	509	94	
7	0	0	0	0	511	95	
8	0	0	0	0	511	94	
9	0	0	0	0	510	94	
10	0	0	0	0	509	94	
11	0	0	0	0	508	93	
12	0	0	0	0	506	94	
13	0	0	0	0	504	94	
14	0	0	0	0	503	94	
15	0	0	0	0	504	94	
0	0	0	0	0	504	94	
1	0	0	0	0	506	93	
2	0	0	0	0	507	93	
3	0	0	0	0	509	93	
4	0	0	0	0	512	94	
5	0	0	0	0	515	94	
6	0	0	0	0	518	94	
7	0	0	0	0	519	94	
8	0	0	0	0	520	94	
9	0	0	0	0	521	94	
10	0	0	0	0	522	93	
11	0	0	0	0	522	93	
12	0	0	0	0	520	93	
13	0	0	0	0	518	94	
14	0	0	0	0	517	95	
15	0	0	0	0	517	94	
0	0	0	0	0	518	94	
1	0	0	0	0	519	94	
2	0	0	0	0	519	93	
3	0	0	0	0	520	93	
4	0	0	0	0	520	93	
5	0	0	0	0	522	94	
6	0	0	0	0	525	94	
7	0	0	0	0	529	94	
8	0	0	0	0	530	94	
9	0	0	0	0	530	94	
10	0	0	0	0	531	93	
11	0	0	0	0	531	93	
12	0	0	0	0	530	93	
13	0	0	0	0	529	94	
14	0	0	0	0	529	94	
15	0	0	0	0	528	94	
0	0	0	0	0	527	94	
1	0	0	0	0	526	94	
2	0	0	0	0	526	93	
3	0	0	0	0	526	93	
4	0	0	0	0	527	93	
5	0	0	0	0	529	94	
6	0	0	0	0	530	95	
7	0	0	0	0	531	94	
8	0	0	0	0	532	94	
9	0	0	0	0	532	94	
10	0	0	0	0	532	94	
11	0	0	0	0	532	93	
12	0	0	0	0	534	93	
13	0	0	0	0	534	94	
14	0	0	0	0	530	94	
15	0	0	0	0	528	94	
0	0	0	0	0	526	94	
1	0	0	0	0	525	94	
2	0	0	0	0	525	93	
3	0	0	0	0	526	93	
4	0	0	0	0	528	93	
5	0	0	0	0	529	93	
6	0	0	0	0	529	94	
7	0	0	0	0	529	94	
8	0	0	0	0	531	94	
9	0	0	0	0	532	94	
10	0	0	0	0	536	94	
11	0	0	0	0	537	93	
12	0	0	0	0	532	93	
13	0	0	0	0	529	93	
14	0	0	0	0	527	94	
15	0	0	0	0	525	94	
0	0	0	0	0	523	94	
1	0	0	0	0	520	94	
2	0	0	0	0	516	93	
3	0	0	0	0	515	93	
4	0	0	0	0	516	93	
5	0	0	0	0	520	94	
6	0	0	0	0	520	94	
7	0	0	0	0	523	94	
8	0	0	0	0	525	94	
9	0	0	0	0	527	94	
10	0	0	0	0	527	94	
11	0	0	0	0	527	93	
12	0	0	0	0	527	93	
13	0	0	0	0	525	93	
14	0	0	0	0	523	93	
15	0	0	0	0	520	93	
0	0	0	0	0	519	94	
1	0	0	0	0	518	94	
2	0	0	0	0	516	94	
3	0	0	0	0	514	94	
4	0	0	0	0	513	94	
5	0	0	0	0	515	94	
6	0	0	0	0	516	93	
7	0	0	0	0	518	93	
8	0	0	0	0	519	93	
9	0	0	0	0	521	93	
10	0	0	0	0	522	94	
11	0	0	0	0	523	94	
12	0	0	0	0	523	94	
13	0	0	0	0	522	94	
14	0	0	0	0	520	94	
15	0	0	0	0	518	93	
0	0	0	0	0	516	93	
1	0	0	0	0	513	93	
2	0	0	0	0	511	94	
3	0	0	0	0	511	94	
4	0	0	0	0	511	94	
5	0	0	0	0	514	94	
6	0	0	0	0	516	94	
7	0	0	0	0	518	94	
8	0	0	0	0	521	93	
9	0	0	0	0	523	93	
10	0	0	0	0	526	94	
11	0	0	0	0	528	95	
12	0	0	0	0	529	94	
13	0	0	0	0	529	94	
14	0	0	0	0	528	94	
15	0	0	0	0	528	94	
0	0	0	0	0	526	93	
1	0	0	0	0	525	93	
2	0	0	0	0	524	93	
3	0	0	0	0	520	94	
4	0	0	0	0	520	94	
5	0	0	0	0	520	94	
6	0	0	0	0	519	94	
7	0	0	0	0	520	94	
8	0	0	0	0	520	93	
9	0	0	0	0	522	93	
10	0	0	0	0	523	94	
11	0	0	0	0	524	94	
12	0	0	0	0	527	93	
13	0	0	0	0	528	93	
14	0	0	0	0	529	93	
15	0	0	0	0	528	93	
0	0	0	0	0	527	94	
1	0	0	0	0	526	94	
2	0	0	0	0	525	94	
3	0	0	0	0	523	93	
4	0	0	0	0	520	93	
5	0	0	0	0	519	93	
6	0	0	0	0	521	93	
7	0	0	0	0	523	94	
8	0	0	0	0	526	94	
9	0	0	0	0	528	94	
10	0	0	0	0	530	94	
11	0	0	0	0	531	94	
12	0	0	0	0	533	94	
13	0	0	0	0	535	93	
14	0	0	0	0	535	93	
15	0	0	0	0	536	94	
0	0	0	0	0	533	94	
1	0	0	0	0	530	94	
2	0	0	0	0	527	94	
3	0	0	0	0	526	93	
4	0	0	0	0	524	94	
5	0	0	0	0	523	94	
6	0	0	0	0	521	94	
7	0	0	0	0	522	94	
8	0	0	0	0	522	94	
9	0	0	0	0	524	93	
10	0	0	0	0	525	93	
11	0	0	0	0	527	93	
12	0	0	0	0	530	93	
13	0	0	0	0	532	94	
14	0	0	0	0	533	94	
15	0	0	0	0	532	94	
0	0	0	0	0	530	93	
1	0	0	0	0	527	93	
2	0	0	0	0	525	93	
3	0	0	0	0	523	94	
4	0	0	0	0	522	94	
5	0	0	0	0	520	94	
6	0	0	0	0	519	94	
7	0	0	0	0	518	94	
8	0	0	0	0	519	93	
9	0	0	0	0	518	93	
10	0	0	0	0	519	93	
11	0	0	0	0	521	94	
12	0	0	0	0	524	94	
13	0	0	0	0	528	94	
14	0	0	0	0	530	94	
15	0	0	0	0	531	94	
0	0	0	0	0	531	93	
1	0	0	0	0	531	93	
2	0	0	0	0	530	93	
3	0	0	0	0	528	93	
4	0	0	0	0	527	93	
5	0	0	0	0	526	94	
6	0	0	0	0	524	95	
7	0	0	0	0	523	94	
8	0	0	0	0	524	94	
9	0	0	0	0	525	94	
10	0	0	0	0	526	94	
11	0	0	0	0	527	93	
12	0	0	0	0	528	93	
13	0	0	0	0	529	94	
14	0	0	0	0	530	94	
15	0	0	0	0	531	94	
0	0	0	0	0	530	94	
1	0	0	0	0	529	93	
2	0	0	0	0	527	93	
3	0	0	0	0	524	93	
4	0	0	0	0	521	93	
5	0	0	0	0	519	94	
6	0	0	0	0	517	94	
7	0	0	0	0	514	94	
8	0	0	0	0	512	94	
9	0	0	0	0	513	94	
10	0	0	0	0	515	94	
11	0	0	0	0	515	93	
12	0	0	0	0	517	93	
13	0	0	0	0	517	93	
14	0	0	0	0	519	93	
15	0	0	0	0	520	94	
0	0	0	0	0	520	94	
1	0	0	0	0	520	94	
2	0	0	0	0	518	94	
3	0	0	0	0	516	94	
4	0	0	0	0	515	93	
5	0	0	0	0	514	93	
6	0	0	0	0	512	94	
7	0	0	0	0	511	94	
8	0	0	0	0	510	94	
9	0	0	0	0	509	94	
10	0	0	0	0	508	93	
11	0	0	0	0	510	93	
12	0	0	0	0	512	93	
13	0	0	0	0	515	93	
14	0	0	0	0	519	94	
15	0	0	0	0	521	94	
0	0	0	0	0	524	94	
1	0	0	0	0	526	94	
2	0	0	0	0	526	93	
3	0	0	0	0	526	93	
4	0	0	0	0	524	93	
5	0	0	0	0	521	93	
6	0	0	0	0	519	93	
7	0	0	0	0	519	94	
8	0	0	0	0	518	94	
9	0	0	0	0	517	94	
10	0	0	0	0	518	94	
11	0	0	0	0	519	93	
12	0	0	0	0	521	93	
13	0	0	0	0	524	93	
14	0	0	0	0	526	93	
15	0	0	0	0	528	93	
0	0	0	0	0	529	94	
1	0	0	0	0	530	94	
2	0	0	0	0	528	94	
3	0	0	0	0	527	94	
4	0	0	0	0	526	93	
5	0	0	0	0	524	93	
6	0	0	0	0	524	94	
7	0	0	0	0	522	94	
8	0	0	0	0	520	94	
9	0	0	0	0	520	94	
10	0	0	0	0	519	93	
11	0	0	0	0	521	93	
12	0	0	0	0	522	93	
13	0	0	0	0	522	93	
14	0	0	0	0	524	95	
15	0	0	0	0	527	94	
0	0	0	0	0	529	94	
1	0	0	0	0	530	93	
2	0	0	0	0	531	93	
3	0	0	0	0	530	93	
4	0	0	0	0	528	93	
5	0	0	0	0	528	93	
6	0	0	0	0	527	94	
7	0	0	0	0	526	94	
8	0	0	0	0	524	94	
9	0	0	0	0	523	94	
10	0	0	0	0	524	94	
11	0	0	0	0	524	94	
12	0	0	0	0	526	93	
13	0	0	0	0	527	93	
14	0	0	0	0	529	94	
15	0	0	0	0	532	94	
0	0	0	0	0	535	94	
1	0	0	0	0	537	94	
2	0	0	0	0	540	93	
3	0	0	0	0	539	93	
4	0	0	0	0	540	93	
5	0	0	0	0	539	93	
6	0	0	0	0	537	94	
7	0	0	0	0	536	94	
8	0	0	0	0	534	94	
9	0	0	0	0	532	94	
10	0	0	0	0	531	94	
11	0	0	0	0	531	93	
12	0	0	0	0	532	93	
13	0	0	0	0	534	93	
14	0	0	0	0	535	94	
15	0	0	0	0	537	94	
0	0	0	0	0	540	94	
1	0	0	0	0	543	94	
2	0	0	0	0	543	93	
3	0	0	0	0	543	93	
4	0	0	0	0	542	94	
5	0	0	0	0	541	94	
6	0	0	0	0	540	94	
7	0	0	0	0	537	94	
8	0	0	0	0	535	94	
9	0	0	0	0	531	94	
10	0	0	0	0	528	93	
11	0	0	0	0	526	93	
12	0	0	0	0	524	93	
13	0	0	0	0	525	93	
14	0	0	0	0	525	94	
15	0	0	0	0	527	94	
0	0	0	0	0	527	94	
1	0	0	0	0	529	94	
2	0	0	0	0	532	94	
3	0	0	0	0	533	94	
4	0	0	0	0	535	94	
5	0	0	0	0	534	93	
6	0	0	0	0	531	93	
7	0	0	0	0	530	94	
8	0	0	0	0	527	94	
9	0	0	0	0	524	94	
10	0	0	0	0	523	93	
11	0	0	0	0	521	93	
12	0	0	0	0	520	93	
13	0	0	0	0	520	94	
14	0	0	0	0	520	94	
15	0	0	0	0	521	94	
0	0	0	0	0	524	94	
1	0	0	0	0	526	94	
2	0	0	0	0	528	93	
3	0	0	0	0	531	93	
4	0	0	0	0	534	93	
5	0	0	0	0	536	94	
6	0	0	0	0	537	94	
7	0	0	0	0	536	94	
8	0	0	0	0	535	94	
9	0	0	0	0	532	94	
10	0	0	0	0	530	94	
11	0	0	0	0	528	94	
12	0	0	0	0	525	94	
13	0	0	0	0	525	93	
14	0	0	0	0	527	93	
15	0	0	0	0	528	93	
0	0	0	0	0	530	93	
1	0	0	0	0	531	94	
2	0	0	0	0	532	94	
3	0	0	0	0	535	94	
4	0	0	0	0	536	94	
5	0	0	0	0	538	93	
6	0	0	0	0	539	93	
7	0	0	0	0	539	93	
8	0	0	0	0	538	93	
9	0	0	0	0	536	94	
10	0	0	0	0	534	94	
11	0	0	0	0	531	94	
12	0	0	0	0	528	94	
13	0	0	0	0	527	94	
14	0	0	0	0	526	94	
15	0	0	0	0	526	93	
0	0	0	0	0	525	93	
1	0	0	0	0	527	93	
2	0	0	0	0	528	94	
3	0	0	0	0	531	94	
4	0	0	0	0	534	94	
5	0	0	0	0	536	94	
6	0	0	0	0	537	93	
7	0	0	0	0	537	93	
8	0	0	0	0	536	93	
9	0	0	0	0	535	93	
10	0	0	0	0	533	94	
11	0	0	0	0	531	94	
12	0	0	0	0	529	94	
13	0	0	0	0	527	94	
14	0	0	0	0	526	94	
15	0	0	0	0	526	94	
0	0	0	0	0	527	94	
1	0	0	0	0	529	94	
2	0	0	0	0	531	93	
3	0	0	0	0	532	93	
4	0	0	0	0	534	93	
5	0	0	0	0	535	94	
6	0	0	0	0	535	94	
7	0	0	0	0	537	94	
8	0	0	0	0	537	94	
9	0	0	0	0	537	94	
10	0	0	0	0	536	94	
11	0	0	0	0	535	93	
12	0	0	0	0	532	93	
13	0	0	0	0	531	94	
14	0	0	0	0	531	94	
15	0	0	0	0	531	94	
0	0	0	0	0	532	94	
1	0	0	0	0	532	93	
2	0	0	0	0	535	93	
3	0	0	0	0	536	93	
4	0	0	0	0	539	94	
5	0	0	0	0	540	94	
6	0	0	0	0	540	94	
7	0	0	0	0	540	94	
8	0	0	0	0	539	94	
9	0	0	0	0	539	93	
10	0	0	0	0	536	93	
11	0	0	0	0	533	93	
12	0	0	0	0	531	93	
13	0	0	0	0	531	93	
14	0	0	0	0	529	94	
15	0	0	0	0	528	94	
0	0	0	0	0	527	94	
1	0	0	0	0	528	94	
2	0	0	0	0	528	94	
3	0	0	0	0	529	94	
4	0	0	0	0	530	94	
5	0	0	0	0	532	93	
6	0	0	0	0	534	93	
7	0	0	0	0	536	93	
8	0	0	0	0	534	94	
9	0	0	0	0	533	94	
10	0	0	0	0	531	94	
11	0	0	0	0	529	94	
12	0	0	0	0	527	94	
13	0	0	0	0	524	94	
14	0	0	0	0	522	94	
15	0	0	0	0	519	93	
0	0	0	0	0	517	93	
1	0	0	0	0	516	93	
2	0	0	0	0	517	93	
3	0	0	0	0	518	94	
4	0	0	0	0	519	94	
5	0	0	0	0	521	94	
6	0	0	0	0	523	94	
7	0	0	0	0	526	94	
8	0	0	0	0	527	94	
9	0	0	0	0	527	93	
10	0	0	0	0	527	93	
11	0	0	0	0	527	94	
12	0	0	0	0	526	94	
13	0	0	0	0	524	94	
14	0	0	0	0	522	94	
15	0	0	0	0	521	94	
0	0	0	0	0	520	94	
1	0	0	0	0	520	94	
2	0	0	0	0	520	93	
3	0	0	0	0	521	93	
4	0	0	0	0	522	93	
5	0	0	0	0	524	93	
6	0	0	0	0	527	93	
7	0	0	0	0	529	93	
8	0	0	0	0	530	94	
9	0	0	0	0	531	95	
10	0	0	0	0	530	94	
11	0	0	0	0	530	94	
12	0	0	0	0	528	94	
13	0	0	0	0	525	94	
14	0	0	0	0	523	93	
15	0	0	0	0	521	93	
0	0	0	0	0	519	93	
1	0	0	0	0	519	93	
2	0	0	0	0	519	93	
3	0	0	0	0	521	94	
4	0	0	0	0	524	94	
5	0	0	0	0	527	93	
6	0	0	0	0	529	93	
7	0	0	0	0	532	92	
8	0	0	0	0	535	93	
9	0	0	0	0	536	94	
10	0	0	0	0	539	94	
11	0	0	0	0	540	94	
12	0	0	0	0	540	94	
13	0	0	0	0	539	94	
14	0	0	0	0	537	93	
15	0	0	0	0	535	93	
0	0	0	0	0	535	93	
1	0	0	0	0	535	93	
2	0	0	0	0	535	94	
3	0	0	0	0	537	94	
4	0	0	0	0	541	94	
5	0	0	0	0	545	94	
6	0	0	0	0	548	94	
7	0	0	0	0	554	93	
8	0	0	0	0	557	93	
9	0	0	0	0	561	93	
10	0	0	0	0	565	94	
11	0	0	0	0	568	94	
12	0	0	0	0	568	94	
13	0	0	0	0	568	94	
14	0	0	0	0	569	94	
15	0	0	0	0	569	93	
0	0	0	0	0	567	93	
1	0	0	0	0	564	92	
2	0	0	0	0	560	93	
3	0	0	0	0	557	94	
4	0	0	0	0	553	94	
5	0	0	0	0	551	94	
6	0	0	0	0	549	94	
7	0	0	0	0	545	94	
8	0	0	0	0	540	94	
9	0	0	0	0	536	94	
10	0	0	0	0	532	93	
11	0	0	0	0	529	93	
12	0	0	0	0	525	93	
13	0	0	0	0	519	93	
14	0	0	0	0	512	94	
15	0	0	0	0	505	95	
0	0	0	0	0	497	94	
1	0	0	0	0	489	94	
2	0	0	0	0	482	94	
3	0	0	0	0	477	94	
4	0	0	0	0	474	93	
5	0	0	0	0	473	93	
6	0	0	0	0	472	94	
7	0	0	0	0	471	94	
8	0	0	0	0	470	94	
9	0	0	0	0	468	93	
10	0	0	0	0	467	93	
11	0	0	0	0	464	93	
12	0	0	0	0	460	95	
13	0	0	0	0	457	94	
14	0	0	0	0	455	94	
15	0	0	0	0	454	94	
0	0	0	0	0	452	94	
1	0	0	0	0	453	94	
2	0	0	0	0	455	93	
3	0	0	0	0	456	93	
4	0	0	0	0	461	93	
5	0	0	0	0	465	94	
6	0	0	0	0	469	94	
7	0	0	0	0	473	94	
8	0	0	0	0	478	94	
9	0	0	0	0	482	93	
10	0	0	0	0	486	93	
11	0	0	0	0	491	93	
12	0	0	0	0	496	93	
13	0	0	0	0	500	93	
14	0	0	0	0	503	94	
15	0	0	0	0	505	94	
0	0	0	0	0	506	94	
1	0	0	0	0	507	94	
2	0	0	0	0	507	94	
3	0	0	0	0	507	94	
4	0	0	0	0	508	94	
5	0	0	0	0	512	94	
6	0	0	0	0	514	93	
7	0	0	0	0	516	94	
8	0	0	0	0	519	94	
9	0	0	0	0	522	94	
10	0	0	0	0	525	94	
11	0	0	0	0	527	94	
12	0	0	0	0	530	94	
13	0	0	0	0	533	94	
14	0	0	0	0	535	94	
15	0	0	0	0	534	93	
0	0	0	0	0	533	93	
1	0	0	0	0	532	93	
2	0	0	0	0	532	93	
3	0	0	0	0	531	94	
4	0	0	0	0	529	94	
5	0	0	0	0	527	94	
6	0	0	0	0	526	94	
7	0	0	0	0	526	94	
8	0	0	0	0	526	94	
9	0	0	0	0	527	93	
10	0	0	0	0	529	93	
11	0	0	0	0	531	93	
12	0	0	0	0	535	94	
13	0	0	0	0	537	94	
14	0	0	0	0	539	94	
15	0	0	0	0	539	94	
0	0	0	0	0	537	94	
1	0	0	0	0	537	93	
2	0	0	0	0	535	93	
3	0	0	0	0	534	93	
4	0	0	0	0	533	94	
5	0	0	0	0	532	94	
6	0	0	0	0	532	94	
7	0	0	0	0	532	94	
8	0	0	0	0	531	94	
9	0	0	0	0	533	93	
10	0	0	0	0	534	93	
11	0	0	0	0	537	93	
12	0	0	0	0	539	92	
13	0	0	0	0	542	92	
14	0	0	0	0	545	93	
15	0	0	0	0	546	94	
0	0	0	0	0	546	94	
1	0	0	0	0	545	94	
2	0	0	0	0	543	94	
3	0	0	0	0	540	94	
4	0	0	0	0	539	93	
5	0	0	0	0	539	93	
6	0	0	0	0	537	93	
7	0	0	0	0	535	93	
8	0	0	0	0	535	94	
9	0	0	0	0	535	94	
10	0	0	0	0	537	94	
11	0	0	0	0	540	94	
12	0	0	0	0	540	94	
13	0	0	0	0	543	93	
14	0	0	0	0	544	93	
15	0	0	0	0	547	93	
0	0	0	0	0	548	93	
1	0	0	0	0	548	93	
2	0	0	0	0	546	94	
3	0	0	0	0	544	94	
4	0	0	0	0	543	94	
5	0	0	0	0	541	94	
6	0	0	0	0	539	94	
7	0	0	0	0	537	94	
8	0	0	0	0	536	93	
9	0	0	0	0	538	93	
10	0	0	0	0	539	94	
11	0	0	0	0	540	94	
12	0	0	0	0	540	94	
13	0	0	0	0	543	93	
14	0	0	0	0	545	93	
15	0	0	0	0	547	93	
0	0	0	0	0	548	93	
1	0	0	0	0	547	94	
2	0	0	0	0	545	94	
3	0	0	0	0	544	94	
4	0	0	0	0	542	94	
5	0	0	0	0	540	94	
6	0	0	0	0	538	94	
7	0	0	0	0	536	93	
8	0	0	0	0	536	94	
9	0	0	0	0	536	94	
10	0	0	0	0	536	94	
11	0	0	0	0	537	94	
12	0	0	0	0	539	94	
13	0	0	0	0	541	94	
14	0	0	0	0	542	93	
15	0	0	0	0	544	92	
0	0	0	0	0	546	94	
1	0	0	0	0	547	94	
2	0	0	0	0	547	94	
3	0	0	0	0	546	94	
4	0	0	0	0	543	94	
5	0	0	0	0	542	94	
6	0	0	0	0	542	93	
7	0	0	0	0	541	93	
8	0	0	0	0	540	94	
9	0	0	0	0	539	94	
10	0	0	0	0	539	94	
11	0	0	0	0	540	94	
12	0	0	0	0	543	94	
13	0	0	0	0	545	94	
14	0	0	0	0	548	94	
15	0	0	0	0	551	94	
0	0	0	0	0	553	94	
1	0	0	0	0	555	93	
2	0	0	0	0	556	92	
3	0	0	0	0	555	94	
4	0	0	0	0	556	94	
5	0	0	0	0	555	94	
6	0	0	0	0	552	94	
7	0	0	0	0	551	93	
8	0	0	0	0	551	93	
9	0	0	0	0	551	93	
10	0	0	0	0	550	93	
11	0	0	0	0	552	92	
12	0	0	0	0	552	94	
13	0	0	0	0	552	94	
14	0	0	0	0	554	94	
15	0	0	0	0	555	93	
0	0	0	0	0	557	92	
1	0	0	0	0	558	92	
2	0	0	0	0	557	93	
3	0	0	0	0	558	94	
4	0	0	0	0	556	94	
5	0	0	0	0	555	94	
6	0	0	0	0	553	94	
7	0	0	0	0	552	94	
8	0	0	0	0	551	94	
9	0	0	0	0	549	94	
10	0	0	0	0	551	93	
11	0	0	0	0	551	93	
12	0	0	0	0	554	92	
13	0	0	0	0	556	92	
14	0	0	0	0	558	93	
15	0	0	0	0	561	94	
0	0	0	0	0	563	94	
1	0	0	0	0	566	94	
2	0	0	0	0	568	94	
3	0	0	0	0	568	94	
4	0	0	0	0	568	94	
5	0	0	0	0	566	94	
6	0	0	0	0	566	94	
7	0	0	0	0	566	93	
8	0	0	0	0	564	93	
9	0	0	0	0	563	93	
10	0	0	0	0	562	92	
11	0	0	0	0	562	92	
12	0	0	0	0	563	93	
13	0	0	0	0	563	94	
14	0	0	0	0	563	94	
15	0	0	0	0	563	94	
0	0	0	0	0	566	94	
1	0	0	0	0	567	94	
2	0	0	0	0	568	94	
3	0	0	0	0	569	94	
4	0	0	0	0	569	94	
5	0	0	0	0	568	94	
6	0	0	0	0	567	94	
7	0	0	0	0	565	93	
8	0	0	0	0	562	93	
9	0	0	0	0	561	93	
10	0	0	0	0	560	92	
11	0	0	0	0	558	92	
12	0	0	0	0	557	93	
13	0	0	0	0	556	94	
14	0	0	0	0	556	94	
15	0	0	0	0	558	94	
0	0	0	0	0	560	94	
1	0	0	0	0	561	94	
2	0	0	0	0	562	93	
3	0	0	0	0	562	93	
4	0	0	0	0	562	93	
5	0	0	0	0	563	93	
6	0	0	0	0	562	92	
7	0	0	0	0	561	92	
8	0	0	0	0	558	93	
9	0	0	0	0	555	94	
10	0	0	0	0	553	94	
11	0	0	0	0	551	94	
12	0	0	0	0	550	94	
13	0	0	0	0	550	94	
14	0	0	0	0	550	94	
15	0	0	0	0	551	93	
0	0	0	0	0	551	93	
1	0	0	0	0	553	93	
2	0	0	0	0	556	94	
3	0	0	0	0	556	94	
4	0	0	0	0	558	94	
5	0	0	0	0	558	94	
6	0	0	0	0	558	94	
7	0	0	0	0	556	93	
8	0	0	0	0	554	93	
9	0	0	0	0	551	93	
10	0	0	0	0	548	93	
11	0	0	0	0	546	94	
12	0	0	0	0	542	94	
13	0	0	0	0	541	94	
14	0	0	0	0	540	94	
15	0	0	0	0	540	93	
0	0	0	0	0	541	93	
1	0	0	0	0	542	92	
2	0	0	0	0	543	93	
3	0	0	0	0	544	94	
4	0	0	0	0	545	94	
5	0	0	0	0	547	94	
6	0	0	0	0	547	94	
7	0	0	0	0	545	94	
8	0	0	0	0	543	93	
9	0	0	0	0	539	93	
10	0	0	0	0	537	93	
11	0	0	0	0	534	93	
12	0	0	0	0	532	94	
13	0	0	0	0	530	94	
14	0	0	0	0	527	94	
15	0	0	0	0	527	94	
0	0	0	0	0	527	94	
1	0	0	0	0	528	93	
2	0	0	0	0	529	93	
3	0	0	0	0	529	94	
4	0	0	0	0	529	94	
5	0	0	0	0	529	94	
6	0	0	0	0	529	94	
7	0	0	0	0	529	94	
8	0	0	0	0	527	93	
9	0	0	0	0	526	93	
10	0	0	0	0	524	93	
11	0	0	0	0	522	93	
12	0	0	0	0	519	93	
13	0	0	0	0	517	94	
14	0	0	0	0	515	94	
15	0	0	0	0	515	94	
0	0	0	0	0	515	94	
1	0	0	0	0	516	93	
2	0	0	0	0	517	93	
3	0	0	0	0	520	93	
4	0	0	0	0	523	94	
5	0	0	0	0	525	94	
6	0	0	0	0	526	94	
7	0	0	0	0	526	94	
8	0	0	0	0	526	94	
9	0	0	0	0	524	94	
10	0	0	0	0	521	94	
11	0	0	0	0	518	94	
12	0	0	0	0	515	93	
13	0	0	0	0	514	93	
14	0	0	0	0	511	93	
15	0	0	0	0	509	94	
0	0	0	0	0	506	94	
1	0	0	0	0	506	94	
2	0	0	0	0	508	94	
3	0	0	0	0	509	93	
4	0	0	0	0	511	93	
5	0	0	0	0	513	93	
6	0	0	0	0	515	93	
7	0	0	0	0	516	94	
8	0	0	0	0	516	94	
9	0	0	0	0	517	94	
10	0	0	0	0	516	94	
11	0	0	0	0	514	93	
12	0	0	0	0	513	93	
13	0	0	0	0	512	93	
14	0	0	0	0	510	93	
15	0	0	0	0	508	93	
0	0	0	0	0	507	94	
1	0	0	0	0	506	94	
2	0	0	0	0	507	94	
3	0	0	0	0	507	93	
4	0	0	0	0	508	93	
5	0	0	0	0	510	93	
6	0	0	0	0	512	93	
7	0	0	0	0	512	93	
8	0	0	0	0	513	94	
9	0	0	0	0	513	94	
10	0	0	0	0	512	94	
11	0	0	0	0	511	94	
12	0	0	0	0	510	93	
13	0	0	0	0	510	93	
14	0	0	0	0	508	94	
15	0	0	0	0	507	94	
0	0	0	0	0	506	94	
1	0	0	0	0	505	94	
2	0	0	0	0	505	94	
3	0	0	0	0	505	93	
4	0	0	0	0	507	93	
5	0	0	0	0	509	94	
6	0	0	0	0	511	94	
7	0	0	0	0	513	94	
8	0	0	0	0	515	94	
9	0	0	0	0	516	93	
10	0	0	0	0	516	93	
11	0	0	0	0	515	93	
12	0	0	0	0	514	93	
13	0	0	0	0	512	94	
14	0	0	0	0	511	94	
15	0	0	0	0	510	94	
0	0	0	0	0	509	94	
1	0	0	0	0	509	93	
2	0	0	0	0	509	93	
3	0	0	0	0	511	93	
4	0	0	0	0	512	94	
5	0	0	0	0	513	94	
6	0	0	0	0	516	94	
7	0	0	0	0	519	94	
8	0	0	0	0	522	93	
9	0	0	0	0	524	93	
10	0	0	0	0	524	94	
11	0	0	0	0	525	94	
12	0	0	0	0	524	94	
13	0	0	0	0	523	93	
14	0	0	0	0	522	93	
15	0	0	0	0	521	93	
0	0	0	0	0	519	93	
1	0	0	0	0	517	94	
2	0	0	0	0	516	94	
3	0	0	0	0	517	94	
4	0	0	0	0	518	94	
5	0	0	0	0	518	93	
6	0	0	0	0	519	93	
7	0	0	0	0	521	94	
8	0	0	0	0	522	94	
9	0	0	0	0	522	94	
10	0	0	0	0	523	93	
11	0	0	0	0	522	93	
12	0	0	0	0	520	94	
13	0	0	0	0	518	94	
14	0	0	0	0	515	94	
15	0	0	0	0	513	93	
0	0	0	0	0	510	93	
1	0	0	0	0	508	94	
2	0	0	0	0	505	94	
3	0	0	0	0	506	94	
4	0	0	0	0	507	93	
5	0	0	0	0	508	94	
6	0	0	0	0	509	94	
7	0	0	0	0	511	94	
8	0	0	0	0	512	94	
9	0	0	0	0	514	93	
10	0	0	0	0	516	94	
11	0	0	0	0	515	94	
12	0	0	0	0	515	94	
13	0	0	0	0	514	93	
14	0	0	0	0	513	93	
15	0	0	0	0	511	94	
0	0	0	0	0	509	94	
1	0	0	0	0	507	94	
2	0	0	0	0	505	93	
3	0	0	0	0	504	93	
4	0	0	0	0	503	94	
5	0	0	0	0	504	94	
6	0	0	0	0	504	94	
7	0	0	0	0	508	93	
8	0	0	0	0	511	93	
9	0	0	0	0	513	95	
10	0	0	0	0	515	94	
11	0	0	0	0	518	94	
12	0	0	0	0	519	93	
13	0	0	0	0	520	94	
14	0	0	0	0	520	94	
15	0	0	0	0	519	94	
0	0	0	0	0	517	94	
1	0	0	0	0	515	93	
2	0	0	0	0	512	93	
3	0	0	0	0	510	94	
4	0	0	0	0	509	94	
5	0	0	0	0	510	94	
6	0	0	0	0	512	93	
7	0	0	0	0	513	93	
8	0	0	0	0	515	94	
9	0	0	0	0	516	94	
10	0	0	0	0	519	94	
11	0	0	0	0	521	93	
12	0	0	0	0	523	93	
13	0	0	0	0	524	93	
14	0	0	0	0	523	94	
15	0	0	0	0	523	94	
0	0	0	0	0	524	94	
1	0	0	0	0	523	93	
2	0	0	0	0	521	93	
3	0	0	0	0	519	94	
4	0	0	0	0	518	94	
5	0	0	0	0	518	93	
6	0	0	0	0	518	93	
7	0	0	0	0	520	94	
8	0	0	0	0	522	94	
9	0	0	0	0	524	93	
10	0	0	0	0	525	93	
11	0	0	0	0	526	94	
12	0	0	0	0	526	94	
13	0	0	0	0	526	93	
14	0	0	0	0	526	93	
15	0	0	0	0	525	94	
0	0	0	0	0	522	94	
1	0	0	0	0	519	93	
2	0	0	0	0	518	93	
3	0	0	0	0	516	94	
4	0	0	0	0	516	94	
5	0	0	0	0	517	94	
6	0	0	0	0	517	94	
7	0	0	0	0	518	93	
8	0	0	0	0	519	94	
9	0	0	0	0	520	94	
10	0	0	0	0	523	94	
11	0	0	0	0	524	93	
12	0	0	0	0	525	94	
13	0	0	0	0	525	94	
14	0	0	0	0	525	93	
15	0	0	0	0	524	93	
0	0	0	0	0	523	94	
1	0	0	0	0	521	94	
2	0	0	0	0	519	93	
3	0	0	0	0	518	94	
4	0	0	0	0	516	94	
5	0	0	0	0	515	94	
6	0	0	0	0	514	93	
7	0	0	0	0	514	94	
8	0	0	0	0	515	94	
9	0	0	0	0	517	93	
10	0	0	0	0	517	94	
11	0	0	0	0	518	94	
12	0	0	0	0	519	94	
13	0	0	0	0	521	94	
14	0	0	0	0	521	93	
15	0	0	0	0	521	93	
0	0	0	0	0	520	94	
1	0	0	0	0	519	94	
2	0	0	0	0	516	94	
3	0	0	0	0	514	93	
4	0	0	0	0	512	93	
5	0	0	0	0	510	94	
6	0	0	0	0	507	94	
7	0	0	0	0	506	94	
8	0	0	0	0	505	94	
9	0	0	0	0	506	93	
10	0	0	0	0	508	94	
11	0	0	0	0	510	94	
12	0	0	0	0	512	94	
13	0	0	0	0	515	93	
14	0	0	0	0	515	93	
15	0	0	0	0	516	94	
0	0	0	0	0	516	94	
1	0	0	0	0	515	94	
2	0	0	0	0	513	93	
3	0	0	0	0	510	93	
4	0	0	0	0	507	93	
5	0	0	0	0	504	93	
6	0	0	0	0	503	95	
7	0	0	0	0	502	94	
8	0	0	0	0	502	94	
9	0	0	0	0	503	94	
10	0	0	0	0	505	94	
11	0	0	0	0	507	93	
12	0	0	0	0	508	93	
13	0	0	0	0	509	93	
14	0	0	0	0	510	94	
15	0	0	0	0	511	94	
0	0	0	0	0	511	94	
1	0	0	0	0	511	94	
2	0	0	0	0	510	94	
3	0	0	0	0	507	93	
4	0	0	0	0	506	93	
5	0	0	0	0	505	93	
6	0	0	0	0	504	94	
7	0	0	0	0	504	94	
8	0	0	0	0	504	94	
9	0	0	0	0	505	94	
10	0	0	0	0	504	94	
11	0	0	0	0	505	94	
12	0	0	0	0	506	94	
13	0	0	0	0	508	94	
14	0	0	0	0	512	93	
15	0	0	0	0	514	93	
0	0	0	0	0	514	93	
1	0	0	0	0	512	93	
2	0	0	0	0	510	94	
3	0	0	0	0	508	94	
4	0	0	0	0	507	94	
5	0	0	0	0	506	94	
6	0	0	0	0	504	94	
7	0	0	0	0	502	93	
8	0	0	0	0	501	93	
9	0	0	0	0	501	93	
10	0	0	0	0	501	94	
11	0	0	0	0	504	94	
12	0	0	0	0	505	94	
13	0	0	0	0	506	94	
14	0	0	0	0	508	94	
15	0	0	0	0	511	93	
0	0	0	0	0	511	93	
1	0	0	0	0	512	94	
2	0	0	0	0	512	94	
3	0	0	0	0	511	94	
4	0	0	0	0	511	94	
5	0	0	0	0	510	93	
6	0	0	0	0	508	93	
7	0	0	0	0	506	93	
8	0	0	0	0	505	94	
9	0	0	0	0	504	94	
10	0	0	0	0	504	94	
11	0	0	0	0	504	94	
12	0	0	0	0	506	94	
13	0	0	0	0	507	93	
14	0	0	0	0	507	93	
15	0	0	0	0	509	94	
0	0	0	0	0	511	94	
1	0	0	0	0	512	94	
2	0	0	0	0	512	94	
3	0	0	0	0	512	93	
4	0	0	0	0	510	93	
5	0	0	0	0	508	93	
6	0	0	0	0	506	93	
7	0	0	0	0	503	93	
8	0	0	0	0	501	93	
9	0	0	0	0	500	94	
10	0	0	0	0	500	94	
11	0	0	0	0	502	94	
12	0	0	0	0	503	94	
13	0	0	0	0	503	94	
14	0	0	0	0	504	94	
15	0	0	0	0	506	93	
0	0	0	0	0	508	93	
1	0	0	0	0	508	93	
2	0	0	0	0	508	93	
3	0	0	0	0	508	94	
4	0	0	0	0	505	94	
5	0	0	0	0	503	94	
6	0	0	0	0	502	94	
7	0	0	0	0	500	94	
8	0	0	0	0	498	94	
9	0	0	0	0	496	93	
10	0	0	0	0	494	93	
11	0	0	0	0	493	93	
12	0	0	0	0	491	94	
13	0	0	0	0	492	94	
14	0	0	0	0	494	94	
15	0	0	0	0	498	94	
0	0	0	0	0	499	94	
1	0	0	0	0	502	94	
2	0	0	0	0	504	93	
3	0	0	0	0	504	93	
4	0	0	0	0	504	93	
5	0	0	0	0	502	94	
6	0	0	0	0	500	94	
7	0	0	0	0	499	94	
8	0	0	0	0	496	94	
9	0	0	0	0	495	94	
10	0	0	0	0	492	94	
11	0	0	0	0	490	94	
12	0	0	0	0	490	93	
13	0	0	0	0	491	93	
14	0	0	0	0	493	93	
15	0	0	0	0	495	93	
0	0	0	0	0	496	94	
1	0	0	0	0	498	94	
2	0	0	0	0	498	94	
3	0	0	0	0	500	94	
4	0	0	0	0	502	94	
5	0	0	0	0	504	93	
6	0	0	0	0	503	93	
7	0	0	0	0	501	93	
8	0	0	0	0	500	93	
9	0	0	0	0	498	93	
10	0	0	0	0	496	94	
11	0	0	0	0	495	94	
12	0	0	0	0	494	94	
13	0	0	0	0	494	94	
14	0	0	0	0	495	94	
15	0	0	0	0	496	94	
0	0	0	0	0	497	94	
1	0	0	0	0	497	94	
2	0	0	0	0	499	93	
3	0	0	0	0	503	93	
4	0	0	0	0	505	93	
5	0	0	0	0	508	94	
6	0	0	0	0	507	94	
7	0	0	0	0	505	94	
8	0	0	0	0	501	94	
9	0	0	0	0	498	93	
10	0	0	0	0	496	93	
11	0	0	0	0	494	94	
12	0	0	0	0	491	94	
13	0	0	0	0	489	93	
14	0	0	0	0	487	93	
15	0	0	0	0	488	93	
0	0	0	0	0	489	93	
1	0	0	0	0	492	94	
2	0	0	0	0	493	94	
3	0	0	0	0	494	94	
4	0	0	0	0	494	93	
5	0	0	0	0	495	93	
6	0	0	0	0	495	93	
7	0	0	0	0	494	93	
8	0	0	0	0	494	93	
9	0	0	0	0	494	93	
10	0	0	0	0	494	94	
11	0	0	0	0	492	94	
12	0	0	0	0	489	94	
13	0	0	0	0	487	94	
14	0	0	0	0	486	93	
15	0	0	0	0	486	93	
0	0	0	0	0	486	93	
1	0	0	0	0	489	93	
2	0	0	0	0	492	94	
3	0	0	0	0	494	94	
4	0	0	0	0	495	94	
5	0	0	0	0	498	94	
6	0	0	0	0	499	94	
7	0	0	0	0	500	93	
8	0	0	0	0	499	93	
9	0	0	0	0	498	94	
10	0	0	0	0	496	94	
11	0	0	0	0	493	94	
12	0	0	0	0	491	94	
13	0	0	0	0	487	94	
14	0	0	0	0	487	94	
15	0	0	0	0	487	94	
0	0	0	0	0	489	93	
1	0	0	0	0	491	93	
2	0	0	0	0	494	93	
3	0	0	0	0	496	93	
4	0	0	0	0	499	94	
5	0	0	0	0	502	94	
6	0	0	0	0	504	94	
7	0	0	0	0	504	94	
8	0	0	0	0	502	94	
9	0	0	0	0	500	93	
10	0	0	0	0	498	93	
11	0	0	0	0	495	94	
12	0	0	0	0	494	94	
13	0	0	0	0	492	94	
14	0	0	0	0	492	94	
15	0	0	0	0	491	94	
0	0	0	0	0	491	93	
1	0	0	0	0	493	93	
2	0	0	0	0	493	94	
3	0	0	0	0	494	94	
4	0	0	0	0	495	94	
5	0	0	0	0	496	94	
6	0	0	0	0	496	94	
7	0	0	0	0	496	94	
8	0	0	0	0	496	93	
9	0	0	0	0	495	93	
10	0	0	0	0	494	93	
11	0	0	0	0	494	94	
12	0	0	0	0	492	94	
13	0	0	0	0	490	94	
14	0	0	0	0	489	94	
15	0	0	0	0	490	94	
0	0	0	0	0	489	94	
1	0	0	0	0	490	93	
2	0	0	0	0	492	93	
3	0	0	0	0	493	93	
4	0	0	0	0	495	94	
5	0	0	0	0	496	94	
6	0	0	0	0	499	94	
7	0	0	0	0	500	94	
8	0	0	0	0	501	94	
9	0	0	0	0	503	94	
10	0	0	0	0	504	93	
11	0	0	0	0	503	93	
12	0	0	0	0	501	93	
13	0	0	0	0	499	93	
14	0	0	0	0	497	94	
15	0	0	0	0	497	94	
0	0	0	0	0	496	94	
1	0	0	0	0	497	94	
2	0	0	0	0	496	94	
3	0	0	0	0	496	94	
4	0	0	0	0	498	94	
5	0	0	0	0	502	93	
6	0	0	0	0	504	93	
7	0	0	0	0	505	93	
8	0	0	0	0	508	94	
9	0	0	0	0	507	94	
10	0	0	0	0	505	94	
11	0	0	0	0	504	94	
12	0	0	0	0	503	93	
13	0	0	0	0	499	93	
14	0	0	0	0	496	93	
15	0	0	0	0	493	93	
0	0	0	0	0	492	93	
1	0	0	0	0	493	94	
2	0	0	0	0	494	94	
3	0	0	0	0	496	94	
4	0	0	0	0	497	94	
5	0	0	0	0	500	94	
6	0	0	0	0	502	94	
7	0	0	0	0	505	94	
8	0	0	0	0	507	94	
9	0	0	0	0	507	94	
10	0	0	0	0	508	93	
11	0	0	0	0	508	93	
12	0	0	0	0	507	93	
13	0	0	0	0	504	93	
14	0	0	0	0	501	93	
15	0	0	0	0	498	93	
0	0	0	0	0	497	94	
1	0	0	0	0	495	94	
2	0	0	0	0	495	94	
3	0	0	0	0	495	94	
4	0	0	0	0	496	94	
5	0	0	0	0	498	94	
6	0	0	0	0	501	93	
7	0	0	0	0	503	93	
8	0	0	0	0	505	93	
9	0	0	0	0	506	93	
10	0	0	0	0	505	93	
11	0	0	0	0	505	94	
12	0	0	0	0	505	94	
13	0	0	0	0	503	94	
14	0	0	0	0	501	94	
15	0	0	0	0	497	93	
0	0	0	0	0	495	93	
1	0	0	0	0	493	93	
2	0	0	0	0	492	94	
3	0	0	0	0	492	94	
4	0	0	0	0	492	94	
5	0	0	0	0	493	93	
6	0	0	0	0	495	93	
7	0	0	0	0	497	93	
8	0	0	0	0	499	93	
9	0	0	0	0	501	94	
10	0	0	0	0	502	94	
11	0	0	0	0	501	94	
12	0	0	0	0	499	94	
13	0	0	0	0	499	94	
14	0	0	0	0	497	93	
15	0	0	0	0	495	93	
0	0	0	0	0	493	93	
1	0	0	0	0	491	93	
2	0	0	0	0	489	94	
3	0	0	0	0	488	94	
4	0	0	0	0	488	94	
5	0	0	0	0	489	94	
6	0	0	0	0	490	94	
7	0	0	0	0	493	94	
8	0	0	0	0	495	93	
9	0	0	0	0	499	93	
10	0	0	0	0	501	93	
11	0	0	0	0	503	93	
12	0	0	0	0	502	93	
13	0	0	0	0	502	94	
14	0	0	0	0	500	94	
15	0	0	0	0	499	94	
0	0	0	0	0	499	93	
1	0	0	0	0	497	93	
2	0	0	0	0	495	94	
3	0	0	0	0	493	94	
4	0	0	0	0	494	94	
5	0	0	0	0	495	94	
6	0	0	0	0	496	93	
7	0	0	0	0	499	93	
8	0	0	0	0	501	93	
9	0	0	0	0	503	94	
10	0	0	0	0	505	94	
11	0	0	0	0	507	94	
12	0	0	0	0	509	93	
13	0	0	0	0	510	93	
14	0	0	0	0	509	94	
15	0	0	0	0	507	94	
0	0	0	0	0	506	93	
1	0	0	0	0	505	93	
2	0	0	0	0	505	94	
3	0	0	0	0	504	94	
4	0	0	0	0	502	94	
5	0	0	0	0	501	94	
6	0	0	0	0	502	94	
7	0	0	0	0	505	94	
8	0	0	0	0	506	94	
9	0	0	0	0	507	93	
10	0	0	0	0	508	93	
11	0	0	0	0	510	93	
12	0	0	0	0	511	93	
13	0	0	0	0	511	94	
14	0	0	0	0	511	94	
15	0	0	0	0	510	94	
0	0	0	0	0	508	94	
1	0	0	0	0	507	94	
2	0	0	0	0	503	93	
3	0	0	0	0	501	93	
4	0	0	0	0	499	94	
5	0	0	0	0	500	94	
6	0	0	0	0	502	94	
7	0	0	0	0	503	93	
8	0	0	0	0	505	93	
9	0	0	0	0	507	93	
10	0	0	0	0	510	93	
11	0	0	0	0	512	94	
12	0	0	0	0	514	94	
13	0	0	0	0	515	94	
14	0	0	0	0	515	94	
15	0	0	0	0	514	93	
0	0	0	0	0	513	93	
1	0	0	0	0	513	93	
2	0	0	0	0	513	93	
3	0	0	0	0	514	94	
4	0	0	0	0	515	94	
5	0	0	0	0	513	94	
6	0	0	0	0	513	94	
7	0	0	0	0	514	94	
8	0	0	0	0	515	94	
9	0	0	0	0	518	93	
10	0	0	0	0	521	93	
11	0	0	0	0	524	93	
12	0	0	0	0	527	93	
13	0	0	0	0	530	94	
14	0	0	0	0	532	94	
15	0	0	0	0	535	94	
0	0	0	0	0	535	94	
1	0	0	0	0	536	94	
2	0	0	0	0	536	93	
3	0	0	0	0	537	92	
4	0	0	0	0	538	94	
5	0	0	0	0	539	94	
6	0	0	0	0	542	94	
7	0	0	0	0	545	93	
8	0	0	0	0	548	93	
9	0	0	0	0	552	92	
10	0	0	0	0	558	93	
11	0	0	0	0	561	94	
12	0	0	0	0	565	94	
13	0	0	0	0	568	94	
14	0	0	0	0	568	94	
15	0	0	0	0	566	94	
0	0	0	0	0	561	94	
1	0	0	0	0	556	94	
2	0	0	0	0	549	94	
3	0	0	0	0	543	94	
4	0	0	0	0	537	93	
5	0	0	0	0	531	93	
6	0	0	0	0	526	93	
7	0	0	0	0	523	93	
8	0	0	0	0	521	94	
9	0	0	0	0	521	94	
10	0	0	0	0	517	94	
11	0	0	0	0	513	94	
12	0	0	0	0	509	93	
13	0	0	0	0	504	93	
14	0	0	0	0	499	93	
15	0	0	0	0	494	93	
0	0	0	0	0	490	94	
1	0	0	0	0	487	94	
2	0	0	0	0	483	94	
3	0	0	0	0	478	94	
4	0	0	0	0	473	94	
5	0	0	0	0	467	94	
6	0	0	0	0	461	94	
7	0	0	0	0	453	94	
8	0	0	0	0	447	94	
9	0	0	0	0	442	94	
10	0	0	0	0	439	94	
11	0	0	0	0	438	93	
12	0	0	0	0	440	94	
13	0	0	0	0	442	94	
14	0	0	0	0	446	94	
15	0	0	0	0	449	94	
0	0	0	0	0	452	94	
1	0	0	0	0	455	93	
2	0	0	0	0	458	93	
3	0	0	0	0	460	93	
4	0	0	0	0	463	93	
5	0	0	0	0	465	94	
6	0	0	0	0	466	94	
7	0	0	0	0	468	94	
8	0	0	0	0	469	94	
9	0	0	0	0	472	94	
10	0	0	0	0	475	94	
11	0	0	0	0	480	94	
12	0	0	0	0	484	94	
13	0	0	0	0	488	94	
14	0	0	0	0	493	93	
15	0	0	0	0	497	93	
0	0	0	0	0	501	93	
1	0	0	0	0	503	94	
2	0	0	0	0	504	94	
3	0	0	0	0	506	94	
4	0	0	0	0	505	94	
5	0	0	0	0	504	94	
6	0	0	0	0	504	94	
7	0	0	0	0	503	94	
8	0	0	0	0	502	94	
9	0	0	0	0	502	93	
10	0	0	0	0	503	93	
11	0	0	0	0	504	93	
12	0	0	0	0	504	93	
13	0	0	0	0	507	93	
14	0	0	0	0	508	94	
15	0	0	0	0	509	94	
0	0	0	0	0	511	94	
1	0	0	0	0	512	94	
2	0	0	0	0	513	94	
3	0	0	0	0	513	94	
4	0	0	0	0	513	94	
5	0	0	0	0	511	94	
6	0	0	0	0	509	93	
7	0	0	0	0	507	93	
8	0	0	0	0	503	93	
9	0	0	0	0	502	93	
10	0	0	0	0	501	93	
11	0	0	0	0	501	94	
12	0	0	0	0	503	94	
13	0	0	0	0	504	94	
14	0	0	0	0	507	94	
15	0	0	0	0	510	94	
0	0	0	0	0	511	94	
1	0	0	0	0	512	93	
2	0	0	0	0	513	93	
3	0	0	0	0	513	93	
4	0	0	0	0	512	93	
5	0	0	0	0	510	94	
6	0	0	0	0	507	94	
7	0	0	0	0	505	94	
8	0	0	0	0	503	94	
9	0	0	0	0	501	93	
10	0	0	0	0	498	93	
11	0	0	0	0	498	93	
12	0	0	0	0	497	93	
13	0	0	0	0	497	94	
14	0	0	0	0	499	94	
15	0	0	0	0	500	94	
0	0	0	0	0	502	94	
1	0	0	0	0	503	94	
2	0	0	0	0	504	93	
3	0	0	0	0	504	93	
4	0	0	0	0	505	93	
5	0	0	0	0	505	93	
6	0	0	0	0	504	93	
7	0	0	0	0	502	94	
8	0	0	0	0	499	94	
9	0	0	0	0	498	94	
10	0	0	0	0	497	94	
11	0	0	0	0	497	94	
12	0	0	0	0	498	94	
13	0	0	0	0	499	94	
14	0	0	0	0	500	93	
15	0	0	0	0	502	93	
0	0	0	0	0	503	93	
1	0	0	0	0	503	93	
2	0	0	0	0	505	93	
3	0	0	0	0	507	93	
4	0	0	0	0	508	94	
5	0	0	0	0	507	94	
6	0	0	0	0	508	94	
7	0	0	0	0	506	94	
8	0	0	0	0	504	93	
9	0	0	0	0	502	93	
10	0	0	0	0	501	93	
11	0	0	0	0	500	94	
12	0	0	0	0	499	94	
13	0	0	0	0	500	94	
14	0	0	0	0	502	94	
15	0	0	0	0	504	94	
0	0	0	0	0	506	94	
1	0	0	0	0	508	94	
2	0	0	0	0	510	93	
3	0	0	0	0	511	93	
4	0	0	0	0	512	93	
5	0	0	0	0	513	94	
6	0	0	0	0	513	94	
7	0	0	0	0	513	94	
8	0	0	0	0	511	94	
9	0	0	0	0	510	94	
10	0	0	0	0	508	93	
11	0	0	0	0	506	93	
12	0	0	0	0	505	93	
13	0	0	0	0	505	94	
14	0	0	0	0	508	94	
15	0	0	0	0	511	94	
0	0	0	0	0	514	94	
1	0	0	0	0	516	94	
2	0	0	0	0	519	93	
3	0	0	0	0	523	93	
4	0	0	0	0	524	93	
5	0	0	0	0	524	93	
6	0	0	0	0	524	93	
7	0	0	0	0	524	93	
8	0	0	0	0	523	93	
9	0	0	0	0	522	93	
10	0	0	0	0	521	94	
11	0	0	0	0	520	94	
12	0	0	0	0	520	94	
13	0	0	0	0	521	94	
14	0	0	0	0	523	94	
15	0	0	0	0	526	93	
0	0	0	0	0	528	93	
1	0	0	0	0	531	93	
2	0	0	0	0	534	93	
3	0	0	0	0	536	93	
4	0	0	0	0	538	94	
5	0	0	0	0	540	94	
6	0	0	0	0	541	94	
7	0	0	0	0	540	94	
8	0	0	0	0	539	94	
9	0	0	0	0	536	94	
10	0	0	0	0	533	94	
11	0	0	0	0	531	94	
12	0	0	0	0	530	93	
13	0	0	0	0	529	93	
14	0	0	0	0	530	93	
15	0	0	0	0	531	92	
0	0	0	0	0	532	93	
1	0	0	0	0	534	94	
2	0	0	0	0	536	94	
3	0	0	0	0	538	94	
4	0	0	0	0	540	94	
5	0	0	0	0	543	94	
6	0	0	0	0	543	94	
7	0	0	0	0	543	94	
8	0	0	0	0	541	94	
9	0	0	0	0	539	93	
10	0	0	0	0	537	93	
11	0	0	0	0	536	93	
12	0	0	0	0	534	93	
13	0	0	0	0	532	92	
14	0	0	0	0	531	93	
15	0	0	0	0	530	94	
0	0	0	0	0	530	94	
1	0	0	0	0	531	94	
2	0	0	0	0	533	94	
3	0	0	0	0	535	94	
4	0	0	0	0	537	94	
5	0	0	0	0	539	94	
6	0	0	0	0	540	94	
7	0	0	0	0	540	93	
8	0	0	0	0	538	92	
9	0	0	0	0	537	94	
10	0	0	0	0	535	94	
11	0	0	0	0	533	94	
12	0	0	0	0	531	94	
13	0	0	0	0	529	94	
14	0	0	0	0	529	94	
15	0	0	0	0	527	94	
0	0	0	0	0	528	94	
1	0	0	0	0	529	93	
2	0	0	0	0	529	93	
3	0	0	0	0	531	92	
4	0	0	0	0	533	93	
5	0	0	0	0	535	94	
6	0	0	0	0	537	94	
7	0	0	0	0	537	94	
8	0	0	0	0	537	93	
9	0	0	0	0	536	93	
10	0	0	0	0	536	92	
11	0	0	0	0	535	93	
12	0	0	0	0	532	94	
13	0	0	0	0	530	94	
14	0	0	0	0	529	94	
15	0	0	0	0	528	94	
0	0	0	0	0	526	94	
1	0	0	0	0	527	94	
2	0	0	0	0	528	94	
3	0	0	0	0	530	93	
4	0	0	0	0	530	93	
5	0	0	0	0	531	93	
6	0	0	0	0	532	93	
7	0	0	0	0	534	92	
8	0	0	0	0	534	93	
9	0	0	0	0	533	94	
10	0	0	0	0	531	94	
11	0	0	0	0	529	94	
12	0	0	0	0	527	94	
13	0	0	0	0	525	94	
14	0	0	0	0	523	94	
15	0	0	0	0	520	94	
0	0	0	0	0	519	93	
1	0	0	0	0	519	93	
2	0	0	0	0	521	93	
3	0	0	0	0	523	93	
4	0	0	0	0	525	93	
5	0	0	0	0	527	94	
6	0	0	0	0	528	94	
7	0	0	0	0	530	94	
8	0	0	0	0	531	94	
9	0	0	0	0	531	93	
10	0	0	0	0	531	93	
11	0	0	0	0	530	94	
12	0	0	0	0	528	94	
13	0	0	0	0	527	94	
14	0	0	0	0	525	93	
15	0	0	0	0	521	93	
0	0	0	0	0	520	93	
1	0	0	0	0	519	93	
2	0	0	0	0	518	93	
3	0	0	0	0	520	94	
4	0	0	0	0	522	94	
5	0	0	0	0	524	94	
6	0	0	0	0	525	94	
7	0	0	0	0	526	94	
8	0	0	0	0	527	94	
9	0	0	0	0	527	94	
10	0	0	0	0	528	94	
11	0	0	0	0	527	94	
12	0	0	0	0	524	94	
13	0	0	0	0	522	93	
14	0	0	0	0	520	93	
15	0	0	0	0	518	93	
0	0	0	0	0	516	94	
1	0	0	0	0	515	94	
2	0	0	0	0	513	94	
3	0	0	0	0	512	94	
4	0	0	0	0	513	94	
5	0	0	0	0	514	94	
6	0	0	0	0	516	93	
7	0	0	0	0	519	93	
8	0	0	0	0	520	93	
9	0	0	0	0	520	93	
10	0	0	0	0	518	93	
11	0	0	0	0	517	94	
12	0	0	0	0	515	94	
13	0	0	0	0	514	94	
14	0	0	0	0	512	94	
15	0	0	0	0	510	93	
0	0	0	0	0	508	93	
1	0	0	0	0	505	93	
2	0	0	0	0	504	93	
3	0	0	0	0	505	93	
4	0	0	0	0	505	93	
5	0	0	0	0	506	93	
6	0	0	0	0	508	94	
7	0	0	0	0	509	94	
8	0	0	0	0	511	94	
9	0	0	0	0	512	94	
10	0	0	0	0	513	94	
11	0	0	0	0	511	94	
12	0	0	0	0	510	94	
13	0	0	0	0	508	93	
14	0	0	0	0	506	93	
15	0	0	0	0	504	93	
0	0	0	0	0	502	93	
1	0	0	0	0	500	93	
2	0	0	0	0	500	94	
3	0	0	0	0	500	94	
4	0	0	0	0	500	94	
5	0	0	0	0	502	94	
6	0	0	0	0	502	93	
7	0	0	0	0	504	93	
8	0	0	0	0	505	93	
9	0	0	0	0	507	94	
10	0	0	0	0	508	94	
11	0	0	0	0	507	94	
12	0	0	0	0	507	94	
13	0	0	0	0	504	93	
14	0	0	0	0	500	93	
15	0	0	0	0	498	93	
0	0	0	0	0	496	93	
1	0	0	0	0	494	94	
2	0	0	0	0	492	94	
3	0	0	0	0	491	94	
4	0	0	0	0	490	94	
5	0	0	0	0	490	94	
6	0	0	0	0	491	94	
7	0	0	0	0	493	94	
8	0	0	0	0	495	93	
9	0	0	0	0	496	93	
10	0	0	0	0	496	93	
11	0	0	0	0	497	94	
12	0	0	0	0	497	94	
13	0	0	0	0	495	94	
14	0	0	0	0	493	94	
15	0	0	0	0	491	94	
0	0	0	0	0	489	94	
1	0	0	0	0	487	94	
2	0	0	0	0	486	94	
3	0	0	0	0	484	94	
4	0	0	0	0	483	94	
5	0	0	0	0	483	94	
6	0	0	0	0	483	93	
7	0	0	0	0	483	93	
8	0	0	0	0	486	93	
9	0	0	0	0	487	94	
10	0	0	0	0	489	94	
11	0	0	0	0	491	94	
12	0	0	0	0	492	94	
13	0	0	0	0	493	93	
14	0	0	0	0	492	93	
15	0	0	0	0	492	93	
0	0	0	0	0	491	93	
1	0	0	0	0	488	94	
2	0	0	0	0	487	94	
3	0	0	0	0	485	94	
4	0	0	0	0	484	94	
5	0	0	0	0	483	94	
6	0	0	0	0	482	94	
7	0	0	0	0	483	94	
8	0	0	0	0	484	93	
9	0	0	0	0	487	93	
10	0	0	0	0	488	93	
11	0	0	0	0	491	93	
12	0	0	0	0	492	94	
13	0	0	0	0	493	94	
14	0	0	0	0	492	94	
15	0	0	0	0	491	94	
0	0	0	0	0	489	93	
1	0	0	0	0	487	93	
2	0	0	0	0	484	94	
3	0	0	0	0	482	94	
4	0	0	0	0	481	94	
5	0	0	0	0	480	94	
6	0	0	0	0	479	94	
7	0	0	0	0	479	93	
8	0	0	0	0	480	93	
9	0	0	0	0	483	94	
10	0	0	0	0	485	94	
11	0	0	0	0	487	94	
12	0	0	0	0	488	94	
13	0	0	0	0	489	94	
14	0	0	0	0	489	94	
15	0	0	0	0	488	93	
0	0	0	0	0	485	93	
1	0	0	0	0	483	93	
2	0	0	0	0	483	93	
3	0	0	0	0	481	94	
4	0	0	0	0	480	94	
5	0	0	0	0	478	94	
6	0	0	0	0	477	94	
7	0	0	0	0	477	94	
8	0	0	0	0	478	94	
9	0	0	0	0	479	94	
10	0	0	0	0	481	93	
11	0	0	0	0	483	93	
12	0	0	0	0	487	93	
13	0	0	0	0	491	94	
14	0	0	0	0	491	94	
15	0	0	0	0	489	94	
0	0	0	0	0	488	94	
1	0	0	0	0	487	94	
2	0	0	0	0	485	93	
3	0	0	0	0	482	93	
4	0	0	0	0	480	94	
5	0	0	0	0	478	94	
6	0	0	0	0	476	94	
7	0	0	0	0	475	94	
8	0	0	0	0	475	93	
9	0	0	0	0	476	93	
10	0	0	0	0	478	94	
11	0	0	0	0	480	94	
12	0	0	0	0	482	94	
13	0	0	0	0	485	93	
14	0	0	0	0	487	93	
15	0	0	0	0	488	93	
0	0	0	0	0	489	93	
1	0	0	0	0	488	93	
2	0	0	0	0	487	94	
3	0	0	0	0	484	94	
4	0	0	0	0	481	94	
5	0	0	0	0	481	94	
6	0	0	0	0	481	94	
7	0	0	0	0	481	93	
8	0	0	0	0	481	93	
9	0	0	0	0	481	93	
10	0	0	0	0	481	94	
11	0	0	0	0	483	94	
12	0	0	0	0	484	94	
13	0	0	0	0	485	94	
14	0	0	0	0	486	94	
15	0	0	0	0	487	94	
0	0	0	0	0	488	93	
1	0	0	0	0	489	94	
2	0	0	0	0	488	94	
3	0	0	0	0	486	94	
4	0	0	0	0	484	94	
5	0	0	0	0	481	94	
6	0	0	0	0	479	94	
7	0	0	0	0	477	93	
8	0	0	0	0	476	93	
9	0	0	0	0	475	93	
10	0	0	0	0	476	93	
11	0	0	0	0	478	93	
12	0	0	0	0	479	94	
13	0	0	0	0	481	94	
14	0	0	0	0	483	94	
15	0	0	0	0	486	94	
0	0	0	0	0	488	94	
1	0	0	0	0	489	94	
2	0	0	0	0	489	93	
3	0	0	0	0	488	93	
4	0	0	0	0	487	93	
5	0	0	0	0	485	94	
6	0	0	0	0	483	94	
7	0	0	0	0	483	94	
8	0	0	0	0	482	94	
9	0	0	0	0	482	94	
10	0	0	0	0	484	94	
11	0	0	0	0	485	93	
12	0	0	0	0	487	93	
13	0	0	0	0	487	93	
14	0	0	0	0	489	94	
15	0	0	0	0	490	94	
0	0	0	0	0	492	94	
1	0	0	0	0	494	94	
2	0	0	0	0	493	94	
3	0	0	0	0	492	94	
4	0	0	0	0	490	94	
5	0	0	0	0	487	93	
6	0	0	0	0	486	93	
7	0	0	0	0	484	93	
8	0	0	0	0	483	93	
9	0	0	0	0	484	93	
10	0	0	0	0	484	93	
11	0	0	0	0	486	94	
12	0	0	0	0	486	94	
13	0	0	0	0	487	94	
14	0	0	0	0	490	94	
15	0	0	0	0	492	94	
0	0	0	0	0	492	94	
1	0	0	0	0	494	94	
2	0	0	0	0	496	94	
3	0	0	0	0	496	94	
4	0	0	0	0	495	93	
5	0	0	0	0	494	93	
6	0	0	0	0	493	93	
7	0	0	0	0	492	94	
8	0	0	0	0	489	94	
9	0	0	0	0	488	94	
10	0	0	0	0	488	94	
11	0	0	0	0	489	94	
12	0	0	0	0	490	93	
13	0	0	0	0	492	93	
14	0	0	0	0	495	93	
15	0	0	0	0	499	93	
0	0	0	0	0	503	94	
1	0	0	0	0	504	94	
2	0	0	0	0	504	94	
3	0	0	0	0	503	93	
4	0	0	0	0	502	93	
5	0	0	0	0	500	92	
6	0	0	0	0	498	94	
7	0	0	0	0	496	94	
8	0	0	0	0	494	94	
9	0	0	0	0	493	94	
10	0	0	0	0	491	94	
11	0	0	0	0	490	93	
12	0	0	0	0	490	93	
13	0	0	0	0	491	93	
14	0	0	0	0	493	93	
15	0	0	0	0	497	94	
0	0	0	0	0	499	94	
1	0	0	0	0	501	94	
2	0	0	0	0	503	94	
3	0	0	0	0	504	94	
4	0	0	0	0	503	93	
5	0	0	0	0	502	93	
6	0	0	0	0	501	93	
7	0	0	0	0	500	94	
8	0	0	0	0	498	94	
9	0	0	0	0	496	94	
10	0	0	0	0	495	94	
11	0	0	0	0	493	94	
12	0	0	0	0	493	94	
13	0	0	0	0	492	94	
14	0	0	0	0	492	93	
15	0	0	0	0	493	93	
0	0	0	0	0	495	93	
1	0	0	0	0	497	94	
2	0	0	0	0	498	94	
3	0	0	0	0	498	94	
4	0	0	0	0	499	94	
5	0	0	0	0	499	94	
6	0	0	0	0	499	94	
7	0	0	0	0	497	93	
8	0	0	0	0	494	93	
9	0	0	0	0	491	93	
10	0	0	0	0	489	94	
11	0	0	0	0	487	94	
12	0	0	0	0	487	94	
13	0	0	0	0	487	94	
14	0	0	0	0	487	93	
15	0	0	0	0	487	93	
0	0	0	0	0	487	93	
1	0	0	0	0	489	94	
2	0	0	0	0	492	94	
3	0	0	0	0	494	94	
4	0	0	0	0	496	94	
5	0	0	0	0	497	94	
6	0	0	0	0	498	94	
7	0	0	0	0	498	93	
8	0	0	0	0	496	93	
9	0	0	0	0	494	93	
10	0	0	0	0	493	93	
11	0	0	0	0	489	93	
12	0	0	0	0	487	94	
13	0	0	0	0	487	94	
14	0	0	0	0	487	94	
15	0	0	0	0	487	94	
0	0	0	0	0	488	94	
1	0	0	0	0	490	94	
2	0	0	0	0	492	93	
3	0	0	0	0	494	93	
4	0	0	0	0	496	94	
5	0	0	0	0	497	94	
6	0	0	0	0	499	94	
7	0	0	0	0	499	94	
8	0	0	0	0	497	94	
9	0	0	0	0	495	94	
10	0	0	0	0	493	94	
11	0	0	0	0	491	94	
12	0	0	0	0	489	93	
13	0	0	0	0	487	93	
14	0	0	0	0	487	93	
15	0	0	0	0	487	93	
0	0	0	0	0	489	94	
1	0	0	0	0	492	94	
2	0	0	0	0	495	94	
3	0	0	0	0	497	94	
4	0	0	0	0	500	93	
5	0	0	0	0	503	93	
6	0	0	0	0	505	93	
7	0	0	0	0	508	93	
8	0	0	0	0	509	93	
9	0	0	0	0	509	93	
10	0	0	0	0	508	94	
11	0	0	0	0	507	94	
12	0	0	0	0	504	94	
13	0	0	0	0	503	94	
14	0	0	0	0	501	94	
15	0	0	0	0	502	94	
0	0	0	0	0	504	94	
1	0	0	0	0	505	94	
2	0	0	0	0	508	93	
3	0	0	0	0	511	93	
4	0	0	0	0	513	93	
5	0	0	0	0	515	93	
6	0	0	0	0	516	93	
7	0	0	0	0	516	93	
8	0	0	0	0	515	94	
9	0	0	0	0	515	94	
10	0	0	0	0	513	94	
11	0	0	0	0	512	94	
12	0	0	0	0	510	94	
13	0	0	0	0	508	94	
14	0	0	0	0	506	94	
15	0	0	0	0	505	93	
0	0	0	0	0	504	93	
1	0	0	0	0	505	93	
2	0	0	0	0	505	93	
3	0	0	0	0	506	94	
4	0	0	0	0	509	94	
5	0	0	0	0	512	94	
6	0	0	0	0	515	94	
7	0	0	0	0	518	94	
8	0	0	0	0	519	94	
9	0	0	0	0	519	93	
10	0	0	0	0	518	93	
11	0	0	0	0	517	93	
12	0	0	0	0	515	93	
13	0	0	0	0	513	92	
14	0	0	0	0	511	93	
15	0	0	0	0	510	94	
0	0	0	0	0	511	94	
1	0	0	0	0	512	94	
2	0	0	0	0	514	94	
3	0	0	0	0	515	94	
4	0	0	0	0	518	93	
5	0	0	0	0	520	93	
6	0	0	0	0	523	94	
7	0	0	0	0	526	94	
8	0	0	0	0	527	94	
9	0	0	0	0	527	93	
10	0	0	0	0	527	93	
11	0	0	0	0	526	92	
12	0	0	0	0	524	92	
13	0	0	0	0	521	93	
14	0	0	0	0	519	94	
15	0	0	0	0	518	94	
0	0	0	0	0	517	94	
1	0	0	0	0	517	94	
2	0	0	0	0	517	94	
3	0	0	0	0	518	94	
4	0	0	0	0	520	93	
5	0	0	0	0	521	93	
6	0	0	0	0	523	93	
7	0	0	0	0	524	92	
8	0	0	0	0	524	94	
9	0	0	0	0	522	94	
10	0	0	0	0	521	94	
11	0	0	0	0	519	94	
12	0	0	0	0	515	94	
13	0	0	0	0	512	94	
14	0	0	0	0	510	93	
15	0	0	0	0	507	93	
0	0	0	0	0	505	93	
1	0	0	0	0	504	93	
2	0	0	0	0	504	93	
3	0	0	0	0	505	93	
4	0	0	0	0	506	94	
5	0	0	0	0	510	94	
6	0	0	0	0	512	94	
7	0	0	0	0	515	94	
8	0	0	0	0	516	94	
9	0	0	0	0	517	94	
10	0	0	0	0	517	94	
11	0	0	0	0	516	93	
12	0	0	0	0	515	93	
13	0	0	0	0	513	93	
14	0	0	0	0	511	93	
15	0	0	0	0	509	94	
0	0	0	0	0	507	94	
1	0	0	0	0	505	94	
2	0	0	0	0	504	94	
3	0	0	0	0	504	93	
4	0	0	0	0	505	93	
5	0	0	0	0	505	93	
6	0	0	0	0	506	94	
7	0	0	0	0	508	94	
8	0	0	0	0	509	94	
9	0	0	0	0	511	94	
10	0	0	0	0	512	94	
11	0	0	0	0	512	94	
12	0	0	0	0	510	94	
13	0	0	0	0	508	94	
14	0	0	0	0	506	93	
15	0	0	0	0	502	93	
0	0	0	0	0	500	93	
1	0	0	0	0	498	93	
2	0	0	0	0	497	93	
3	0	0	0	0	496	93	
4	0	0	0	0	497	94	
5	0	0	0	0	499	94	
6	0	0	0	0	499	94	
7	0	0	0	0	500	94	
8	0	0	0	0	501	94	
9	0	0	0	0	502	94	
10	0	0	0	0	504	94	
11	0	0	0	0	503	94	
12	0	0	0	0	502	94	
13	0	0	0	0	500	93	
14	0	0	0	0	499	93	
15	0	0	0	0	496	93	
0	0	0	0	0	494	93	
1	0	0	0	0	492	94	
2	0	0	0	0	490	94	
3	0	0	0	0	489	94	
4	0	0	0	0	489	94	
5	0	0	0	0	488	94	
6	0	0	0	0	489	94	
7	0	0	0	0	492	94	
8	0	0	0	0	494	93	
9	0	0	0	0	496	93	
10	0	0	0	0	496	93	
11	0	0	0	0	497	93	
12	0	0	0	0	498	93	
13	0	0	0	0	497	93	
14	0	0	0	0	496	94	
15	0	0	0	0	495	94	
0	0	0	0	0	492	94	
1	0	0	0	0	491	94	
2	0	0	0	0	488	94	
3	0	0	0	0	486	94	
4	0	0	0	0	484	94	
5	0	0	0	0	484	94	
6	0	0	0	0	485	93	
7	0	0	0	0	486	93	
8	0	0	0	0	488	93	
9	0	0	0	0	489	93	
10	0	0	0	0	492	93	
11	0	0	0	0	493	94	
12	0	0	0	0	492	94	
13	0	0	0	0	492	94	
14	0	0	0	0	491	94	
15	0	0	0	0	489	93	
0	0	0	0	0	487	93	
1	0	0	0	0	486	93	
2	0	0	0	0	484	93	
3	0	0	0	0	483	93	
4	0	0	0	0	482	93	
5	0	0	0	0	483	93	
6	0	0	0	0	483	94	
7	0	0	0	0	485	94	
8	0	0	0	0	487	94	
9	0	0	0	0	490	94	
10	0	0	0	0	494	94	
11	0	0	0	0	496	94	
12	0	0	0	0	498	93	
13	0	0	0	0	499	93	
14	0	0	0	0	498	93	
15	0	0	0	0	497	93	
0	0	0	0	0	495	94	
1	0	0	0	0	494	94	
2	0	0	0	0	494	94	
3	0	0	0	0	493	94	
4	0	0	0	0	492	94	
5	0	0	0	0	492	94	
6	0	0	0	0	491	94	
7	0	0	0	0	492	94	
8	0	0	0	0	495	93	
9	0	0	0	0	497	93	
10	0	0	0	0	497	93	
11	0	0	0	0	498	94	
12	0	0	0	0	499	94	
13	0	0	0	0	500	94	
14	0	0	0	0	502	94	
15	0	0	0	0	502	94	
0	0	0	0	0	500	93	
1	0	0	0	0	498	94	
2	0	0	0	0	495	93	
3	0	0	0	0	492	93	
4	0	0	0	0	491	93	
5	0	0	0	0	488	93	
6	0	0	0	0	488	93	
7	0	0	0	0	489	94	
8	0	0	0	0	492	94	
9	0	0	0	0	495	94	
10	0	0	0	0	497	94	
11	0	0	0	0	500	94	
12	0	0	0	0	503	94	
13	0	0	0	0	504	94	
14	0	0	0	0	506	94	
15	0	0	0	0	506	94	
0	0	0	0	0	505	94	
1	0	0	0	0	502	94	
2	0	0	0	0	500	94	
3	0	0	0	0	499	94	
4	0	0	0	0	498	94	
5	0	0	0	0	497	93	
6	0	0	0	0	496	93	
7	0	0	0	0	495	93	
8	0	0	0	0	496	93	
9	0	0	0	0	497	93	
10	0	0	0	0	497	93	
11	0	0	0	0	499	93	
12	0	0	0	0	500	93	
13	0	0	0	0	503	93	
14	0	0	0	0	505	94	
15	0	0	0	0	506	94	
0	0	0	0	0	505	94	
1	0	0	0	0	503	94	
2	0	0	0	0	500	94	
3	0	0	0	0	498	93	
4	0	0	0	0	496	93	
5	0	0	0	0	494	93	
6	0	0	0	0	492	93	
7	0	0	0	0	492	93	
8	0	0	0	0	494	94	
9	0	0	0	0	496	94	
10	0	0	0	0	498	94	
11	0	0	0	0	500	94	
12	0	0	0	0	502	94	
13	0	0	0	0	503	94	
14	0	0	0	0	505	94	
15	0	0	0	0	507	93	
0	0	0	0	0	508	93	
1	0	0	0	0	508	93	
2	0	0	0	0	507	93	
3	0	0	0	0	506	94	
4	0	0	0	0	506	94	
5	0	0	0	0	507	94	
6	0	0	0	0	508	94	
7	0	0	0	0	511	94	
8	0	0	0	0	514	93	
9	0	0	0	0	518	92	
10	0	0	0	0	524	93	
11	0	0	0	0	528	94	
12	0	0	0	0	534	94	
13	0	0	0	0	539	94	
14	0	0	0	0	544	94	
15	0	0	0	0	549	94	
0	0	0	0	0	553	94	
1	0	0	0	0	556	94	
2	0	0	0	0	556	93	
3	0	0	0	0	555	93	
4	0	0	0	0	554	92	
5	0	0	0	0	552	92	
6	0	0	0	0	549	92	
7	0	0	0	0	545	93	
8	0	0	0	0	540	94	
9	0	0	0	0	537	94	
10	0	0	0	0	534	94	
11	0	0	0	0	531	93	
12	0	0	0	0	530	93	
13	0	0	0	0	530	93	
14	0	0	0	0	532	93	
15	0	0	0	0	532	93	
0	0	0	0	0	529	93	
1	0	0	0	0	524	94	
2	0	0	0	0	518	94	
3	0	0	0	0	512	94	
4	0	0	0	0	506	94	
5	0	0	0	0	501	94	
6	0	0	0	0	496	94	
7	0	0	0	0	492	94	
8	0	0	0	0	488	94	
9	0	0	0	0	484	94	
10	0	0	0	0	481	93	
11	0	0	0	0	478	93	
12	0	0	0	0	474	93	
13	0	0	0	0	471	93	
14	0	0	0	0	469	93	
15	0	0	0	0	467	93	
0	0	0	0	0	466	93	
1	0	0	0	0	463	93	
2	0	0	0	0	461	94	
3	0	0	0	0	460	94	
4	0	0	0	0	460	94	
5	0	0	0	0	460	94	
6	0	0	0	0	461	94	
7	0	0	0	0	463	94	
8	0	0	0	0	463	94	
9	0	0	0	0	464	94	
10	0	0	0	0	467	94	
11	0	0	0	0	469	94	
12	0	0	0	0	472	93	
13	0	0	0	0	476	93	
14	0	0	0	0	481	93	
15	0	0	0	0	485	93	
0	0	0	0	0	488	94	
1	0	0	0	0	492	94	
2	0	0	0	0	495	94	
3	0	0	0	0	496	94	
4	0	0	0	0	497	94	
5	0	0	0	0	498	94	
6	0	0	0	0	498	94	
7	0	0	0	0	498	94	
8	0	0	0	0	498	94	
9	0	0	0	0	499	94	
10	0	0	0	0	500	94	
11	0	0	0	0	502	94	
12	0	0	0	0	501	93	
13	0	0	0	0	501	93	
14	0	0	0	0	503	93	
15	0	0	0	0	507	93	
0	0	0	0	0	512	93	
1	0	0	0	0	515	92	
2	0	0	0	0	516	92	
3	0	0	0	0	518	93	
4	0	0	0	0	518	93	
5	0	0	0	0	517	94	
6	0	0	0	0	515	94	
7	0	0	0	0	515	94	
8	0	0	0	0	513	94	
9	0	0	0	0	511	93	
10	0	0	0	0	511	92	
11	0	0	0	0	510	93	
12	0	0	0	0	509	94	
13	0	0	0	0	509	94	
14	0	0	0	0	510	94	
15	0	0	0	0	512	94	
0	0	0	0	0	514	94	
1	0	0	0	0	517	94	
2	0	0	0	0	519	94	
3	0	0	0	0	519	94	
4	0	0	0	0	519	93	
5	0	0	0	0	517	93	
6	0	0	0	0	515	93	
7	0	0	0	0	513	92	
8	0	0	0	0	513	94	
9	0	0	0	0	512	94	
10	0	0	0	0	511	94	
11	0	0	0	0	510	94	
12	0	0	0	0	511	94	
13	0	0	0	0	512	94	
14	0	0	0	0	513	94	
15	0	0	0	0	515	94	
0	0	0	0	0	516	94	
1	0	0	0	0	519	93	
2	0	0	0	0	520	93	
3	0	0	0	0	522	93	
4	0	0	0	0	522	93	
5	0	0	0	0	523	93	
6	0	0	0	0	521	93	
7	0	0	0	0	520	93	
8	0	0	0	0	519	93	
9	0	0	0	0	516	94	
10	0	0	0	0	514	94	
11	0	0	0	0	512	94	
12	0	0	0	0	510	94	
13	0	0	0	0	509	93	
14	0	0	0	0	510	93	
15	0	0	0	0	511	93	
0	0	0	0	0	513	93	
1	0	0	0	0	515	92	
2	0	0	0	0	517	94	
3	0	0	0	0	518	94	
4	0	0	0	0	519	94	
5	0	0	0	0	519	94	
6	0	0	0	0	519	94	
7	0	0	0	0	518	94	
8	0	0	0	0	515	93	
9	0	0	0	0	511	92	
10	0	0	0	0	509	93	
11	0	0	0	0	506	93	
12	0	0	0	0	505	94	
13	0	0	0	0	504	94	
14	0	0	0	0	502	94	
15	0	0	0	0	501	94	
0	0	0	0	0	501	94	
1	0	0	0	0	502	94	
2	0	0	0	0	503	94	
3	0	0	0	0	504	93	
4	0	0	0	0	506	93	
5	0	0	0	0	507	93	
6	0	0	0	0	507	94	
7	0	0	0	0	505	94	
8	0	0	0	0	504	94	
9	0	0	0	0	502	94	
10	0	0	0	0	499	93	
11	0	0	0	0	498	93	
12	0	0	0	0	496	93	
13	0	0	0	0	494	94	
14	0	0	0	0	493	94	
15	0	0	0	0	493	94	
0	0	0	0	0	495	94	
1	0	0	0	0	497	93	
2	0	0	0	0	499	93	
3	0	0	0	0	501	94	
4	0	0	0	0	504	94	
5	0	0	0	0	507	94	
6	0	0	0	0	509	94	
7	0	0	0	0	511	94	
8	0	0	0	0	511	94	
9	0	0	0	0	510	93	
10	0	0	0	0	507	93	
11	0	0	0	0	504	93	
12	0	0	0	0	502	93	
13	0	0	0	0	499	93	
14	0	0	0	0	497	93	
15	0	0	0	0	498	92	
0	0	0	0	0	499	93	
1	0	0	0	0	500	94	
2	0	0	0	0	502	94	
3	0	0	0	0	504	94	
4	0	0	0	0	508	94	
5	0	0	0	0	510	94	
6	0	0	0	0	511	94	
7	0	0	0	0	512	93	
8	0	0	0	0	512	92	
9	0	0	0	0	511	92	
10	0	0	0	0	509	93	
11	0	0	0	0	505	93	
12	0	0	0	0	504	94	
13	0	0	0	0	502	94	
14	0	0	0	0	501	94	
15	0	0	0	0	500	94	
0	0	0	0	0	500	94	
1	0	0	0	0	502	93	
2	0	0	0	0	504	93	
3	0	0	0	0	507	93	
4	0	0	0	0	510	92	
5	0	0	0	0	512	93	
6	0	0	0	0	513	94	
7	0	0	0	0	514	94	
8	0	0	0	0	514	94	
9	0	0	0	0	513	94	
10	0	0	0	0	512	93	
11	0	0	0	0	511	93	
12	0	0	0	0	508	93	
13	0	0	0	0	507	94	
14	0	0	0	0	504	94	
15	0	0	0	0	502	94	
0	0	0	0	0	501	94	
1	0	0	0	0	500	94	
2	0	0	0	0	501	93	
3	0	0	0	0	502	93	
4	0	0	0	0	504	93	
5	0	0	0	0	505	93	
6	0	0	0	0	508	93	
7	0	0	0	0	510	93	
8	0	0	0	0	510	93	
9	0	0	0	0	511	94	
10	0	0	0	0	510	94	
11	0	0	0	0	509	94	
12	0	0	0	0	508	94	
13	0	0	0	0	508	93	
14	0	0	0	0	506	93	
15	0	0	0	0	504	93	
0	0	0	0	0	503	94	
1	0	0	0	0	503	94	
2	0	0	0	0	503	94	
3	0	0	0	0	504	94	
4	0	0	0	0	507	94	
5	0	0	0	0	508	94	
6	0	0	0	0	511	93	
7	0	0	0	0	512	93	
8	0	0	0	0	512	93	
9	0	0	0	0	513	93	
10	0	0	0	0	514	92	
11	0	0	0	0	514	93	
12	0	0	0	0	514	94	
13	0	0	0	0	512	94	
14	0	0	0	0	511	94	
15	0	0	0	0	510	94	
0	0	0	0	0	510	94	
1	0	0	0	0	508	94	
2	0	0	0	0	508	93	
3	0	0	0	0	508	93	
4	0	0	0	0	510	93	
5	0	0	0	0	513	92	
6	0	0	0	0	515	94	
7	0	0	0	0	518	94	
8	0	0	0	0	520	94	
9	0	0	0	0	521	93	
10	0	0	0	0	522	93	
11	0	0	0	0	522	92	
12	0	0	0	0	522	92	
13	0	0	0	0	519	93	
14	0	0	0	0	517	94	
15	0	0	0	0	515	94	
0	0	0	0	0	512	94	
1	0	0	0	0	510	94	
2	0	0	0	0	508	93	
3	0	0	0	0	508	92	
4	0	0	0	0	508	94	
5	0	0	0	0	510	94	
6	0	0	0	0	512	94	
7	0	0	0	0	513	94	
8	0	0	0	0	515	94	
9	0	0	0	0	516	93	
10	0	0	0	0	516	93	
11	0	0	0	0	516	93	
12	0	0	0	0	515	92	
13	0	0	0	0	511	92	
14	0	0	0	0	509	93	
15	0	0	0	0	507	94	
0	0	0	0	0	504	94	
1	0	0	0	0	502	94	
2	0	0	0	0	501	94	
3	0	0	0	0	501	94	
4	0	0	0	0	503	94	
5	0	0	0	0	504	93	
6	0	0	0	0	505	93	
7	0	0	0	0	506	92	
8	0	0	0	0	508	93	
9	0	0	0	0	510	94	
10	0	0	0	0	512	94	
11	0	0	0	0	512	94	
12	0	0	0	0	512	94	
13	0	0	0	0	512	94	
14	0	0	0	0	510	94	
15	0	0	0	0	507	93	
0	0	0	0	0	504	93	
1	0	0	0	0	502	93	
2	0	0	0	0	499	94	
3	0	0	0	0	495	94	
4	0	0	0	0	494	94	
5	0	0	0	0	495	94	
6	0	0	0	0	495	94	
7	0	0	0	0	496	94	
8	0	0	0	0	498	93	
9	0	0	0	0	499	93	
10	0	0	0	0	500	92	
11	0	0	0	0	501	93	
12	0	0	0	0	502	94	
13	0	0	0	0	500	94	
14	0	0	0	0	499	94	
15	0	0	0	0	497	94	
0	0	0	0	0	496	94	
1	0	0	0	0	495	93	
2	0	0	0	0	493	93	
3	0	0	0	0	492	92	
4	0	0	0	0	491	93	
5	0	0	0	0	491	94	
6	0	0	0	0	492	94	
7	0	0	0	0	493	94	
8	0	0	0	0	494	94	
9	0	0	0	0	495	94	
10	0	0	0	0	496	94	
11	0	0	0	0	497	93	
12	0	0	0	0	498	93	
13	0	0	0	0	497	93	
14	0	0	0	0	496	94	
15	0	0	0	0	495	94	
0	0	0	0	0	494	94	
1	0	0	0	0	493	94	
2	0	0	0	0	492	94	
3	0	0	0	0	491	93	
4	0	0	0	0	489	93	
5	0	0	0	0	489	93	
6	0	0	0	0	487	93	
7	0	0	0	0	488	93	
8	0	0	0	0	489	93	
9	0	0	0	0	490	94	
10	0	0	0	0	490	94	
11	0	0	0	0	490	94	
12	0	0	0	0	491	94	
13	0	0	0	0	491	94	
14	0	0	0	0	489	93	
15	0	0	0	0	488	93	
0	0	0	0	0	487	93	
1	0	0	0	0	486	93	
2	0	0	0	0	485	93	
3	0	0	0	0	483	93	
4	0	0	0	0	482	93	
5	0	0	0	0	480	94	
6	0	0	0	0	479	94	
7	0	0	0	0	480	94	
8	0	0	0	0	481	94	
9	0	0	0	0	484	94	
10	0	0	0	0	486	93	
11	0	0	0	0	487	93	
12	0	0	0	0	489	93	
13	0	0	0	0	490	93	
14	0	0	0	0	491	93	
15	0	0	0	0	490	93	
0	0	0	0	0	489	93	
1	0	0	0	0	487	94	
2	0	0	0	0	484	94	
3	0	0	0	0	481	94	
4	0	0	0	0	478	94	
5	0	0	0	0	476	94	
6	0	0	0	0	476	93	
7	0	0	0	0	476	93	
8	0	0	0	0	478	93	
9	0	0	0	0	479	93	
10	0	0	0	0	482	94	
11	0	0	0	0	485	94	
12	0	0	0	0	487	94	
13	0	0	0	0	488	94	
14	0	0	0	0	489	94	
15	0	0	0	0	489	93	
0	0	0	0	0	487	93	
1	0	0	0	0	486	93	
2	0	0	0	0	485	94	
3	0	0	0	0	483	94	
4	0	0	0	0	481	94	
5	0	0	0	0	479	94	
6	0	0	0	0	478	93	
7	0	0	0	0	478	93	
8	0	0	0	0	478	93	
9	0	0	0	0	479	93	
10	0	0	0	0	480	92	
11	0	0	0	0	482	93	
12	0	0	0	0	485	94	
13	0	0	0	0	488	94	
14	0	0	0	0	491	94	
15	0	0	0	0	491	94	
0	0	0	0	0	491	94	
1	0	0	0	0	489	94	
2	0	0	0	0	487	94	
3	0	0	0	0	485	94	
4	0	0	0	0	483	93	
5	0	0	0	0	480	93	
6	0	0	0	0	479	93	
7	0	0	0	0	478	93	
8	0	0	0	0	477	94	
9	0	0	0	0	479	94	
10	0	0	0	0	480	94	
11	0	0	0	0	483	93	
12	0	0	0	0	486	93	
13	0	0	0	0	488	92	
14	0	0	0	0	490	94	
15	0	0	0	0	491	94	
0	0	0	0	0	493	94	
1	0	0	0	0	493	94	
2	0	0	0	0	492	94	
3	0	0	0	0	490	94	
4	0	0	0	0	487	94	
5	0	0	0	0	484	93	
6	0	0	0	0	481	93	
7	0	0	0	0	480	93	
8	0	0	0	0	478	93	
9	0	0	0	0	477	94	
10	0	0	0	0	478	94	
11	0	0	0	0	480	94	
12	0	0	0	0	481	94	
13	0	0	0	0	482	93	
14	0	0	0	0	483	93	
15	0	0	0	0	486	94	
0	0	0	0	0	487	94	
1	0	0	0	0	487	94	
2	0	0	0	0	486	94	
3	0	0	0	0	485	94	
4	0	0	0	0	483	94	
5	0	0	0	0	482	93	
6	0	0	0	0	479	93	
7	0	0	0	0	477	94	
8	0	0	0	0	476	94	
9	0	0	0	0	476	94	
10	0	0	0	0	477	93	
11	0	0	0	0	478	93	
12	0	0	0	0	481	94	
13	0	0	0	0	483	94	
14	0	0	0	0	486	94	
15	0	0	0	0	488	94	
0	0	0	0	0	489	94	
1	0	0	0	0	489	94	
2	0	0	0	0	489	93	
3	0	0	0	0	489	93	
4	0	0	0	0	487	93	
5	0	0	0	0	484	93	
6	0	0	0	0	483	93	
7	0	0	0	0	481	94	
8	0	0	0	0	480	94	
9	0	0	0	0	480	93	
10	0	0	0	0	480	93	
11	0	0	0	0	480	94	
12	0	0	0	0	481	94	
13	0	0	0	0	483	94	
14	0	0	0	0	486	94	
15	0	0	0	0	489	93	
0	0	0	0	0	493	93	
1	0	0	0	0	495	93	
2	0	0	0	0	496	92	
3	0	0	0	0	496	93	
4	0	0	0	0	496	94	
5	0	0	0	0	495	94	
6	0	0	0	0	493	94	
7	0	0	0	0	492	93	
8	0	0	0	0	489	93	
9	0	0	0	0	487	93	
10	0	0	0	0	487	94	
11	0	0	0	0	487	94	
12	0	0	0	0	488	94	
13	0	0	0	0	489	94	
14	0	0	0	0	491	94	
15	0	0	0	0	492	94	
0	0	0	0	0	494	94	
1	0	0	0	0	496	94	
2	0	0	0	0	498	94	
3	0	0	0	0	499	94	
4	0	0	0	0	499	93	
5	0	0	0	0	497	93	
6	0	0	0	0	496	93	
7	0	0	0	0	496	93	
8	0	0	0	0	493	93	
9	0	0	0	0	492	92	
10	0	0	0	0	491	92	
11	0	0	0	0	492	92	
12	0	0	0	0	492	93	
13	0	0	0	0	492	93	
14	0	0	0	0	494	94	
15	0	0	0	0	496	94	
0	0	0	0	0	498	94	
1	0	0	0	0	499	94	
2	0	0	0	0	501	94	
3	0	0	0	0	502	94	
4	0	0	0	0	502	94	
5	0	0	0	0	502	94	
6	0	0	0	0	502	94	
7	0	0	0	0	500	93	
8	0	0	0	0	498	93	
9	0	0	0	0	496	92	
10	0	0	0	0	495	93	
11	0	0	0	0	494	94	
12	0	0	0	0	495	94	
13	0	0	0	0	495	94	
14	0	0	0	0	495	94	
15	0	0	0	0	496	94	
0	0	0	0	0	499	93	
1	0	0	0	0	501	93	
2	0	0	0	0	504	92	
3	0	0	0	0	505	93	
4	0	0	0	0	505	94	
5	0	0	0	0	504	94	
6	0	0	0	0	503	94	
7	0	0	0	0	501	94	
8	0	0	0	0	499	94	
9	0	0	0	0	496	94	
10	0	0	0	0	495	94	
11	0	0	0	0	493	94	
12	0	0	0	0	493	93	
13	0	0	0	0	493	93	
14	0	0	0	0	494	93	
15	0	0	0	0	496	92	
0	0	0	0	0	498	92	
1	0	0	0	0	499	93	
2	0	0	0	0	500	93	
3	0	0	0	0	501	94	
4	0	0	0	0	501	94	
5	0	0	0	0	501	94	
6	0	0	0	0	501	94	
7	0	0	0	0	499	94	
8	0	0	0	0	497	94	
9	0	0	0	0	495	94	
10	0	0	0	0	493	93	
11	0	0	0	0	491	93	
12	0	0	0	0	491	93	
13	0	0	0	0	491	93	
14	0	0	0	0	490	92	
15	0	0	0	0	492	93	
0	0	0	0	0	495	94	
1	0	0	0	0	497	94	
2	0	0	0	0	498	94	
3	0	0	0	0	499	94	
4	0	0	0	0	499	94	
5	0	0	0	0	500	94	
6	0	0	0	0	500	94	
7	0	0	0	0	499	93	
8	0	0	0	0	498	93	
9	0	0	0	0	495	93	
10	0	0	0	0	493	94	
11	0	0	0	0	491	94	
12	0	0	0	0	490	94	
13	0	0	0	0	489	94	
14	0	0	0	0	489	94	
15	0	0	0	0	491	94	
0	0	0	0	0	492	93	
1	0	0	0	0	495	92	
2	0	0	0	0	496	92	
3	0	0	0	0	498	94	
4	0	0	0	0	500	94	
5	0	0	0	0	500	94	
6	0	0	0	0	501	94	
7	0	0	0	0	500	94	
8	0	0	0	0	499	94	
9	0	0	0	0	496	93	
10	0	0	0	0	493	93	
11	0	0	0	0	491	93	
12	0	0	0	0	488	94	
13	0	0	0	0	487	94	
14	0	0	0	0	485	94	
15	0	0	0	0	485	93	
0	0	0	0	0	484	92	
1	0	0	0	0	485	93	
2	0	0	0	0	486	93	
3	0	0	0	0	488	94	
4	0	0	0	0	491	94	
5	0	0	0	0	492	94	
6	0	0	0	0	493	94	
7	0	0	0	0	494	94	
8	0	0	0	0	493	94	
9	0	0	0	0	492	93	
10	0	0	0	0	490	92	
11	0	0	0	0	489	93	
12	0	0	0	0	487	94	
13	0	0	0	0	485	94	
14	0	0	0	0	483	94	
15	0	0	0	0	483	94	
0	0	0	0	0	483	94	
1	0	0	0	0	484	93	
2	0	0	0	0	487	93	
3	0	0	0	0	489	93	
4	0	0	0	0	493	92	
5	0	0	0	0	495	92	
6	0	0	0	0	497	93	
7	0	0	0	0	497	94	
8	0	0	0	0	496	94	
9	0	0	0	0	496	94	
10	0	0	0	0	494	94	
11	0	0	0	0	493	94	
12	0	0	0	0	493	93	
13	0	0	0	0	492	93	
14	0	0	0	0	490	93	
15	0	0	0	0	489	93	
0	0	0	0	0	489	93	
1	0	0	0	0	491	94	
2	0	0	0	0	492	94	
3	0	0	0	0	494	94	
4	0	0	0	0	497	94	
5	0	0	0	0	501	93	
6	0	0	0	0	503	93	
7	0	0	0	0	505	93	
8	0	0	0	0	507	94	
9	0	0	0	0	507	94	
10	0	0	0	0	508	94	
11	0	0	0	0	508	94	
12	0	0	0	0	507	94	
13	0	0	0	0	506	93	
14	0	0	0	0	505	93	
15	0	0	0	0	504	92	
0	0	0	0	0	504	93	
1	0	0	0	0	504	93	
2	0	0	0	0	506	94	
3	0	0	0	0	507	94	
4	0	0	0	0	508	94	
5	0	0	0	0	510	93	
6	0	0	0	0	512	93	
7	0	0	0	0	515	93	
8	0	0	0	0	517	92	
9	0	0	0	0	518	93	
10	0	0	0	0	519	93	
11	0	0	0	0	519	94	
12	0	0	0	0	518	94	
13	0	0	0	0	516	94	
14	0	0	0	0	514	94	
15	0	0	0	0	513	94	
0	0	0	0	0	511	93	
1	0	0	0	0	510	92	
2	0	0	0	0	510	93	
3	0	0	0	0	510	94	
4	0	0	0	0	513	94	
5	0	0	0	0	514	94	
6	0	0	0	0	515	94	
7	0	0	0	0	516	94	
8	0	0	0	0	519	94	
9	0	0	0	0	522	93	
10	0	0	0	0	523	92	
11	0	0	0	0	523	92	
12	0	0	0	0	522	92	
13	0	0	0	0	519	93	
14	0	0	0	0	518	94	
15	0	0	0	0	516	94	
0	0	0	0	0	515	94	
1	0	0	0	0	513	94	
2	0	0	0	0	513	94	
3	0	0	0	0	515	94	
4	0	0	0	0	516	93	
5	0	0	0	0	519	92	
6	0	0	0	0	519	94	
7	0	0	0	0	520	94	
8	0	0	0	0	522	94	
9	0	0	0	0	523	94	
10	0	0	0	0	524	94	
11	0	0	0	0	524	94	
12	0	0	0	0	522	93	
13	0	0	0	0	519	93	
14	0	0	0	0	517	92	
15	0	0	0	0	516	92	
0	0	0	0	0	514	93	
1	0	0	0	0	511	93	
2	0	0	0	0	510	94	
3	0	0	0	0	508	94	
4	0	0	0	0	510	94	
5	0	0	0	0	511	94	
6	0	0	0	0	513	93	
7	0	0	0	0	515	92	
8	0	0	0	0	516	92	
9	0	0	0	0	519	93	
10	0	0	0	0	521	93	
11	0	0	0	0	523	94	
12	0	0	0	0	523	94	
13	0	0	0	0	523	94	
14	0	0	0	0	521	94	
15	0	0	0	0	518	94	
0	0	0	0	0	514	94	
1	0	0	0	0	511	93	
2	0	0	0	0	508	93	
3	0	0	0	0	508	93	
4	0	0	0	0	508	92	
5	0	0	0	0	509	93	
6	0	0	0	0	511	94	
7	0	0	0	0	515	94	
8	0	0	0	0	518	94	
9	0	0	0	0	520	94	
10	0	0	0	0	523	93	
11	0	0	0	0	524	93	
12	0	0	0	0	524	92	
13	0	0	0	0	523	94	
14	0	0	0	0	519	94	
15	0	0	0	0	515	94	
0	0	0	0	0	512	93	
1	0	0	0	0	508	93	
2	0	0	0	0	506	92	
3	0	0	0	0	505	92	
4	0	0	0	0	504	92	
5	0	0	0	0	504	93	
6	0	0	0	0	506	94	
7	0	0	0	0	508	94	
8	0	0	0	0	510	94	
9	0	0	0	0	510	94	
10	0	0	0	0	509	94	
11	0	0	0	0	510	93	
12	0	0	0	0	510	93	
13	0	0	0	0	508	92	
14	0	0	0	0	505	92	
15	0	0	0	0	501	93	
0	0	0	0	0	497	94	
1	0	0	0	0	494	94	
2	0	0	0	0	489	94	
3	0	0	0	0	486	94	
4	0	0	0	0	482	94	
5	0	0	0	0	480	93	
6	0	0	0	0	480	93	
7	0	0	0	0	480	92	
8	0	0	0	0	480	93	
9	0	0	0	0	480	94	
10	0	0	0	0	483	94	
11	0	0	0	0	485	94	
12	0	0	0	0	485	94	
13	0	0	0	0	484	94	
14	0	0	0	0	483	94	
15	0	0	0	0	481	93	
0	0	0	0	0	479	93	
1	0	0	0	0	477	94	
2	0	0	0	0	475	94	
3	0	0	0	0	473	94	
4	0	0	0	0	472	94	
5	0	0	0	0	472	94	
6	0	0	0	0	471	94	
7	0	0	0	0	472	93	
8	0	0	0	0	474	93	
9	0	0	0	0	476	92	
10	0	0	0	0	477	94	
11	0	0	0	0	480	94	
12	0	0	0	0	481	94	
13	0	0	0	0	482	93	
14	0	0	0	0	483	93	
15	0	0	0	0	483	93	
0	0	0	0	0	482	93	
1	0	0	0	0	480	93	
2	0	0	0	0	477	94	
3	0	0	0	0	475	94	
4	0	0	0	0	474	94	
5	0	0	0	0	473	94	
6	0	0	0	0	472	94	
7	0	0	0	0	475	94	
8	0	0	0	0	478	93	
9	0	0	0	0	481	93	
10	0	0	0	0	484	93	
11	0	0	0	0	487	92	
12	0	0	0	0	488	94	
13	0	0	0	0	488	94	
14	0	0	0	0	488	94	
15	0	0	0	0	489	93	
0	0	0	0	0	487	93	
1	0	0	0	0	486	92	
2	0	0	0	0	483	92	
3	0	0	0	0	480	93	
4	0	0	0	0	477	94	
5	0	0	0	0	476	94	
6	0	0	0	0	476	94	
7	0	0	0	0	476	94	
8	0	0	0	0	476	94	
9	0	0	0	0	478	94	
10	0	0	0	0	480	93	
11	0	0	0	0	484	93	
12	0	0	0	0	487	94	
13	0	0	0	0	489	94	
14	0	0	0	0	491	93	
15	0	0	0	0	491	93	
0	0	0	0	0	491	92	
1	0	0	0	0	490	92	
2	0	0	0	0	488	93	
3	0	0	0	0	484	94	
4	0	0	0	0	481	94	
5	0	0	0	0	479	94	
6	0	0	0	0	477	94	
7	0	0	0	0	477	93	
8	0	0	0	0	478	93	
9	0	0	0	0	480	93	
10	0	0	0	0	481	94	
11	0	0	0	0	483	94	
12	0	0	0	0	486	94	
13	0	0	0	0	488	94	
14	0	0	0	0	488	94	
15	0	0	0	0	489	94	
0	0	0	0	0	489	93	
1	0	0	0	0	487	93	
2	0	0	0	0	486	93	
3	0	0	0	0	484	92	
4	0	0	0	0	481	93	
5	0	0	0	0	479	94	
6	0	0	0	0	477	94	
7	0	0	0	0	476	94	
8	0	0	0	0	476	94	
9	0	0	0	0	477	93	
10	0	0	0	0	478	93	
11	0	0	0	0	479	93	
12	0	0	0	0	481	93	
13	0	0	0	0	483	94	
14	0	0	0	0	485	94	
15	0	0	0	0	486	94	
0	0	0	0	0	486	94	
1	0	0	0	0	484	94	
2	0	0	0	0	483	93	
3	0	0	0	0	481	93	
4	0	0	0	0	480	93	
5	0	0	0	0	478	94	
6	0	0	0	0	476	94	
7	0	0	0	0	476	94	
8	0	0	0	0	476	94	
9	0	0	0	0	477	94	
10	0	0	0	0	477	93	
11	0	0	0	0	478	93	
12	0	0	0	0	480	93	
13	0	0	0	0	482	94	
14	0	0	0	0	483	94	
15	0	0	0	0	485	94	
0	0	0	0	0	485	93	
1	0	0	0	0	485	93	
2	0	0	0	0	485	92	
3	0	0	0	0	485	94	
4	0	0	0	0	485	94	
5	0	0	0	0	483	94	
6	0	0	0	0	480	94	
7	0	0	0	0	479	94	
8	0	0	0	0	477	94	
9	0	0	0	0	477	93	
10	0	0	0	0	477	93	
11	0	0	0	0	479	93	
12	0	0	0	0	481	94	
13	0	0	0	0	483	94	
14	0	0	0	0	484	94	
15	0	0	0	0	484	94	
0	0	0	0	0	485	93	
1	0	0	0	0	485	93	
2	0	0	0	0	485	92	
3	0	0	0	0	484	93	
4	0	0	0	0	483	94	
5	0	0	0	0	482	94	
6	0	0	0	0	480	94	
7	0	0	0	0	477	93	
8	0	0	0	0	476	93	
9	0	0	0	0	474	93	
10	0	0	0	0	473	93	
11	0	0	0	0	473	93	
12	0	0	0	0	473	93	
13	0	0	0	0	476	94	
14	0	0	0	0	480	94	
15	0	0	0	0	483	94	
0	0	0	0	0	486	94	
1	0	0	0	0	487	94	
2	0	0	0	0	485	93	
3	0	0	0	0	483	93	
4	0	0	0	0	481	93	
5	0	0	0	0	480	94	
6	0	0	0	0	478	94	
7	0	0	0	0	477	94	
8	0	0	0	0	476	94	
9	0	0	0	0	475	93	
10	0	0	0	0	475	93	
11	0	0	0	0	476	92	
12	0	0	0	0	478	94	
13	0	0	0	0	480	94	
14	0	0	0	0	483	94	
15	0	0	0	0	485	94	
0	0	0	0	0	487	94	
1	0	0	0	0	490	93	
2	0	0	0	0	491	93	
3	0	0	0	0	493	92	
4	0	0	0	0	493	92	
5	0	0	0	0	493	93	
6	0	0	0	0	493	94	
7	0	0	0	0	493	94	
8	0	0	0	0	493	94	
9	0	0	0	0	494	94	
10	0	0	0	0	495	94	
11	0	0	0	0	498	94	
12	0	0	0	0	501	94	
13	0	0	0	0	505	93	
14	0	0	0	0	509	92	
15	0	0	0	0	515	93	
0	0	0	0	0	521	93	
1	0	0	0	0	526	94	
2	0	0	0	0	530	94	
3	0	0	0	0	531	94	
4	0	0	0	0	532	94	
5	0	0	0	0	535	93	
6	0	0	0	0	534	93	
7	0	0	0	0	532	93	
8	0	0	0	0	529	93	
9	0	0	0	0	525	94	
10	0	0	0	0	522	94	
11	0	0	0	0	516	94	
12	0	0	0	0	512	94	
13	0	0	0	0	509	94	
14	0	0	0	0	504	93	
15	0	0	0	0	501	93	
0	0	0	0	0	498	93	
1	0	0	0	0	496	93	
2	0	0	0	0	496	93	
3	0	0	0	0	495	94	
4	0	0	0	0	492	94	
5	0	0	0	0	488	94	
6	0	0	0	0	481	94	
7	0	0	0	0	474	93	
8	0	0	0	0	467	93	
9	0	0	0	0	463	94	
10	0	0	0	0	457	94	
11	0	0	0	0	453	94	
12	0	0	0	0	450	94	
13	0	0	0	0	448	94	
14	0	0	0	0	446	94	
15	0	0	0	0	444	93	
0	0	0	0	0	443	93	
1	0	0	0	0	440	94	
2	0	0	0	0	437	94	
3	0	0	0	0	435	94	
4	0	0	0	0	434	94	
5	0	0	0	0	434	94	
6	0	0	0	0	433	94	
7	0	0	0	0	434	94	
8	0	0	0	0	435	94	
9	0	0	0	0	436	93	
10	0	0	0	0	438	93	
11	0	0	0	0	441	93	
12	0	0	0	0	443	93	
13	0	0	0	0	445	93	
14	0	0	0	0	448	93	
15	0	0	0	0	453	94	
0	0	0	0	0	458	94	
1	0	0	0	0	464	94	
2	0	0	0	0	472	94	
3	0	0	0	0	478	94	
4	0	0	0	0	483	94	
5	0	0	0	0	487	94	
6	0	0	0	0	491	93	
7	0	0	0	0	494	93	
8	0	0	0	0	495	93	
9	0	0	0	0	496	93	
10	0	0	0	0	495	93	
11	0	0	0	0	494	94	
12	0	0	0	0	494	94	
13	0	0	0	0	495	94	
14	0	0	0	0	496	94	
15	0	0	0	0	497	93	
0	0	0	0	0	498	93	
1	0	0	0	0	500	92	
2	0	0	0	0	503	93	
3	0	0	0	0	504	94	
4	0	0	0	0	505	94	
5	0	0	0	0	508	94	
6	0	0	0	0	509	94	
7	0	0	0	0	508	94	
8	0	0	0	0	508	94	
9	0	0	0	0	508	94	
10	0	0	0	0	508	94	
11	0	0	0	0	506	93	
12	0	0	0	0	504	93	
13	0	0	0	0	502	92	
14	0	0	0	0	502	94	
15	0	0	0	0	501	94	
0	0	0	0	0	501	94	
1	0	0	0	0	503	94	
2	0	0	0	0	506	93	
3	0	0	0	0	510	93	
4	0	0	0	0	513	93	
5	0	0	0	0	516	93	
6	0	0	0	0	519	94	
7	0	0	0	0	521	94	
8	0	0	0	0	523	94	
9	0	0	0	0	523	94	
10	0	0	0	0	522	94	
11	0	0	0	0	520	93	
12	0	0	0	0	518	93	
13	0	0	0	0	516	92	
14	0	0	0	0	514	92	
15	0	0	0	0	513	92	
0	0	0	0	0	513	92	
1	0	0	0	0	515	93	
2	0	0	0	0	518	94	
3	0	0	0	0	520	94	
4	0	0	0	0	523	94	
5	0	0	0	0	525	94	
6	0	0	0	0	526	94	
7	0	0	0	0	527	93	
8	0	0	0	0	526	93	
9	0	0	0	0	526	92	
10	0	0	0	0	526	93	
11	0	0	0	0	523	94	
12	0	0	0	0	521	94	
13	0	0	0	0	518	94	
14	0	0	0	0	516	94	
15	0	0	0	0	515	93	
0	0	0	0	0	517	93	
1	0	0	0	0	518	93	
2	0	0	0	0	519	93	
3	0	0	0	0	520	93	
4	0	0	0	0	521	94	
5	0	0	0	0	524	94	
6	0	0	0	0	526	94	
7	0	0	0	0	528	94	
8	0	0	0	0	528	94	
9	0	0	0	0	528	94	
10	0	0	0	0	526	94	
11	0	0	0	0	525	93	
12	0	0	0	0	523	93	
13	0	0	0	0	521	92	
14	0	0	0	0	519	92	
15	0	0	0	0	518	93	
0	0	0	0	0	517	94	
1	0	0	0	0	516	94	
2	0	0	0	0	518	94	
3	0	0	0	0	520	94	
4	0	0	0	0	524	94	
5	0	0	0	0	526	93	
6	0	0	0	0	528	93	
7	0	0	0	0	529	93	
8	0	0	0	0	530	93	
9	0	0	0	0	531	92	
10	0	0	0	0	530	92	
11	0	0	0	0	528	93	
12	0	0	0	0	527	93	
13	0	0	0	0	525	94	
14	0	0	0	0	524	94	
15	0	0	0	0	521	94	
0	0	0	0	0	520	94	
1	0	0	0	0	519	94	
2	0	0	0	0	519	94	
3	0	0	0	0	520	93	
4	0	0	0	0	522	93	
5	0	0	0	0	524	92	
6	0	0	0	0	527	92	
7	0	0	0	0	530	94	
8	0	0	0	0	532	94	
9	0	0	0	0	533	94	
10	0	0	0	0	533	94	
11	0	0	0	0	534	94	
12	0	0	0	0	533	93	
13	0	0	0	0	533	92	
14	0	0	0	0	533	93	
15	0	0	0	0	531	94	
0	0	0	0	0	531	94	
1	0	0	0	0	531	94	
2	0	0	0	0	531	93	
3	0	0	0	0	531	93	
4	0	0	0	0	534	92	
5	0	0	0	0	536	92	
6	0	0	0	0	538	94	
7	0	0	0	0	540	94	
8	0	0	0	0	541	94	
9	0	0	0	0	542	94	
10	0	0	0	0	544	93	
11	0	0	0	0	543	92	
12	0	0	0	0	541	92	
13	0	0	0	0	539	93	
14	0	0	0	0	537	93	
15	0	0	0	0	535	94	
0	0	0	0	0	533	94	
1	0	0	0	0	532	94	
2	0	0	0	0	532	94	
3	0	0	0	0	532	93	
4	0	0	0	0	534	92	
5	0	0	0	0	536	92	
6	0	0	0	0	538	93	
7	0	0	0	0	540	93	
8	0	0	0	0	542	94	
9	0	0	0	0	544	94	
10	0	0	0	0	545	94	
11	0	0	0	0	544	94	
12	0	0	0	0	543	93	
13	0	0	0	0	541	93	
14	0	0	0	0	539	92	
15	0	0	0	0	537	92	
0	0	0	0	0	534	93	
1	0	0	0	0	532	94	
2	0	0	0	0	530	94	
3	0	0	0	0	531	94	
4	0	0	0	0	531	94	
5	0	0	0	0	531	93	
6	0	0	0	0	533	93	
7	0	0	0	0	534	92	
8	0	0	0	0	536	93	
9	0	0	0	0	537	94	
10	0	0	0	0	539	94	
11	0	0	0	0	540	94	
12	0	0	0	0	540	94	
13	0	0	0	0	540	93	
14	0	0	0	0	540	93	
15	0	0	0	0	539	93	
0	0	0	0	0	537	92	
1	0	0	0	0	536	92	
2	0	0	0	0	534	94	
3	0	0	0	0	532	94	
4	0	0	0	0	531	94	
5	0	0	0	0	531	94	
6	0	0	0	0	531	93	
7	0	0	0	0	533	92	
8	0	0	0	0	533	93	
9	0	0	0	0	535	94	
10	0	0	0	0	535	94	
11	0	0	0	0	536	94	
12	0	0	0	0	536	94	
13	0	0	0	0	535	94	
14	0	0	0	0	534	94	
15	0	0	0	0	531	93	
0	0	0	0	0	529	93	
1	0	0	0	0	527	92	
2	0	0	0	0	524	92	
3	0	0	0	0	523	92	
4	0	0	0	0	521	93	
5	0	0	0	0	520	94	
6	0	0	0	0	521	94	
7	0	0	0	0	522	94	
8	0	0	0	0	524	94	
9	0	0	0	0	526	93	
10	0	0	0	0	529	93	
11	0	0	0	0	530	93	
12	0	0	0	0	531	92	
13	0	0	0	0	531	92	
14	0	0	0	0	531	92	
15	0	0	0	0	531	92	
0	0	0	0	0	528	94	
1	0	0	0	0	526	94	
2	0	0	0	0	524	94	
3	0	0	0	0	521	94	
4	0	0	0	0	519	93	
5	0	0	0	0	517	93	
6	0	0	0	0	516	93	
7	0	0	0	0	516	92	
8	0	0	0	0	516	92	
9	0	0	0	0	519	92	
10	0	0	0	0	521	93	
11	0	0	0	0	523	93	
12	0	0	0	0	524	93	
13	0	0	0	0	525	94	
14	0	0	0	0	524	94	
15	0	0	0	0	523	94	
0	0	0	0	0	520	94	
1	0	0	0	0	518	94	
2	0	0	0	0	516	93	
3	0	0	0	0	514	93	
4	0	0	0	0	512	93	
5	0	0	0	0	512	92	
6	0	0	0	0	513	92	
7	0	0	0	0	513	92	
8	0	0	0	0	513	93	
9	0	0	0	0	515	92	
10	0	0	0	0	517	93	
11	0	0	0	0	519	94	
12	0	0	0	0	521	94	
13	0	0	0	0	522	94	
14	0	0	0	0	521	94	
15	0	0	0	0	520	94	
0	0	0	0	0	518	94	
1	0	0	0	0	518	94	
2	0	0	0	0	515	94	
3	0	0	0	0	514	94	
4	0	0	0	0	512	94	
5	0	0	0	0	510	94	
6	0	0	0	0	509	93	
7	0	0	0	0	508	93	
8	0	0	0	0	509	93	
9	0	0	0	0	508	92	
10	0	0	0	0	509	92	
11	0	0	0	0	510	93	
12	0	0	0	0	511	93	
13	0	0	0	0	513	94	
14	0	0	0	0	513	94	
15	0	0	0	0	513	94	
0	0	0	0	0	513	94	
1	0	0	0	0	512	94	
2	0	0	0	0	510	93	
3	0	0	0	0	508	93	
4	0	0	0	0	505	93	
5	0	0	0	0	503	93	
6	0	0	0	0	501	92	
7	0	0	0	0	500	92	
8	0	0	0	0	499	93	
9	0	0	0	0	499	94	
10	0	0	0	0	500	94	
11	0	0	0	0	502	94	
12	0	0	0	0	505	94	
13	0	0	0	0	507	94	
14	0	0	0	0	509	94	
15	0	0	0	0	509	93	
0	0	0	0	0	509	93	
1	0	0	0	0	508	92	
2	0	0	0	0	507	92	
3	0	0	0	0	504	93	
4	0	0	0	0	501	94	
5	0	0	0	0	499	94	
6	0	0	0	0	496	94	
7	0	0	0	0	494	93	
8	0	0	0	0	494	93	
9	0	0	0	0	494	93	
10	0	0	0	0	493	93	
11	0	0	0	0	494	92	
12	0	0	0	0	496	92	
13	0	0	0	0	498	93	
14	0	0	0	0	500	93	
15	0	0	0	0	500	94	
0	0	0	0	0	500	94	
1	0	0	0	0	499	94	
2	0	0	0	0	497	94	
3	0	0	0	0	496	94	
4	0	0	0	0	494	93	
5	0	0	0	0	492	92	
6	0	0	0	0	488	94	
7	0	0	0	0	487	94	
8	0	0	0	0	487	94	
9	0	0	0	0	488	94	
10	0	0	0	0	489	94	
11	0	0	0	0	491	93	
12	0	0	0	0	494	93	
13	0	0	0	0	496	92	
14	0	0	0	0	496	93	
15	0	0	0	0	497	93	
0	0	0	0	0	497	94	
1	0	0	0	0	497	94	
2	0	0	0	0	497	94	
3	0	0	0	0	496	94	
4	0	0	0	0	494	94	
5	0	0	0	0	491	94	
6	0	0	0	0	489	94	
7	0	0	0	0	487	94	
8	0	0	0	0	486	94	
9	0	0	0	0	485	94	
10	0	0	0	0	485	93	
11	0	0	0	0	486	93	
12	0	0	0	0	487	93	
13	0	0	0	0	489	92	
14	0	0	0	0	491	93	
15	0	0	0	0	494	94	
0	0	0	0	0	496	94	
1	0	0	0	0	499	94	
2	0	0	0	0	499	94	
3	0	0	0	0	498	94	
4	0	0	0	0	496	94	
5	0	0	0	0	494	93	
6	0	0	0	0	493	93	
7	0	0	0	0	491	93	
8	0	0	0	0	489	92	
9	0	0	0	0	487	94	
10	0	0	0	0	487	94	
11	0	0	0	0	488	94	
12	0	0	0	0	490	94	
13	0	0	0	0	491	94	
14	0	0	0	0	493	94	
15	0	0	0	0	496	94	
0	0	0	0	0	498	94	
1	0	0	0	0	499	93	
2	0	0	0	0	498	93	
3	0	0	0	0	497	93	
4	0	0	0	0	497	93	
5	0	0	0	0	496	93	
6	0	0	0	0	494	93	
7	0	0	0	0	492	92	
8	0	0	0	0	491	93	
9	0	0	0	0	490	94	
10	0	0	0	0	489	94	
11	0	0	0	0	490	94	
12	0	0	0	0	491	94	
13	0	0	0	0	492	94	
14	0	0	0	0	493	94	
15	0	0	0	0	495	94	
0	0	0	0	0	498	94	
1	0	0	0	0	500	93	
2	0	0	0	0	501	93	
3	0	0	0	0	501	93	
4	0	0	0	0	499	92	
5	0	0	0	0	499	92	
6	0	0	0	0	499	93	
7	0	0	0	0	497	93	
8	0	0	0	0	496	94	
9	0	0	0	0	495	94	
10	0	0	0	0	493	94	
11	0	0	0	0	493	94	
12	0	0	0	0	493	93	
13	0	0	0	0	493	93	
14	0	0	0	0	494	93	
15	0	0	0	0	496	92	
0	0	0	0	0	498	93	
1	0	0	0	0	500	94	
2	0	0	0	0	502	94	
3	0	0	0	0	503	94	
4	0	0	0	0	502	94	
5	0	0	0	0	501	93	
6	0	0	0	0	499	93	
7	0	0	0	0	498	92	
8	0	0	0	0	497	94	
9	0	0	0	0	495	94	
10	0	0	0	0	494	94	
11	0	0	0	0	494	94	
12	0	0	0	0	494	93	
13	0	0	0	0	496	92	
14	0	0	0	0	497	93	
15	0	0	0	0	498	94	
0	0	0	0	0	501	94	
1	0	0	0	0	504	93	
2	0	0	0	0	507	93	
3	0	0	0	0	509	93	
4	0	0	0	0	509	94	
5	0	0	0	0	508	93	
6	0	0	0	0	505	93	
7	0	0	0	0	503	93	
8	0	0	0	0	500	94	
9	0	0	0	0	499	94	
10	0	0	0	0	497	94	
11	0	0	0	0	496	93	
12	0	0	0	0	496	93	
13	0	0	0	0	496	93	
14	0	0	0	0	497	94	
15	0	0	0	0	500	94	
0	0	0	0	0	503	94	
1	0	0	0	0	504	94	
2	0	0	0	0	506	93	
3	0	0	0	0	508	93	
4	0	0	0	0	510	94	
5	0	0	0	0	509	94	
6	0	0	0	0	510	93	
7	0	0	0	0	510	93	
8	0	0	0	0	511	93	
9	0	0	0	0	509	94	
10	0	0	0	0	507	94	
11	0	0	0	0	506	94	
12	0	0	0	0	504	93	
13	0	0	0	0	504	92	
14	0	0	0	0	505	92	
15	0	0	0	0	507	94	
0	0	0	0	0	508	94	
1	0	0	0	0	511	94	
2	0	0	0	0	513	93	
3	0	0	0	0	515	93	
4	0	0	0	0	516	92	
5	0	0	0	0	516	94	
6	0	0	0	0	514	94	
7	0	0	0	0	512	94	
8	0	0	0	0	510	93	
9	0	0	0	0	507	93	
10	0	0	0	0	506	92	
11	0	0	0	0	504	93	
12	0	0	0	0	503	94	
13	0	0	0	0	502	94	
14	0	0	0	0	501	94	
15	0	0	0	0	501	93	
0	0	0	0	0	503	92	
1	0	0	0	0	504	93	
2	0	0	0	0	505	94	
3	0	0	0	0	507	94	
4	0	0	0	0	509	93	
5	0	0	0	0	510	92	
6	0	0	0	0	509	94	
7	0	0	0	0	508	94	
8	0	0	0	0	508	94	
9	0	0	0	0	506	93	
10	0	0	0	0	504	93	
11	0	0	0	0	501	94	
12	0	0	0	0	498	94	
13	0	0	0	0	496	93	
14	0	0	0	0	496	93	
15	0	0	0	0	496	94	
0	0	0	0	0	495	94	
1	0	0	0	0	496	94	
2	0	0	0	0	497	93	
3	0	0	0	0	499	92	
4	0	0	0	0	500	94	
5	0	0	0	0	503	94	
6	0	0	0	0	503	94	
7	0	0	0	0	504	94	
8	0	0	0	0	503	93	
9	0	0	0	0	501	92	
10	0	0	0	0	501	93	
11	0	0	0	0	498	94	
12	0	0	0	0	497	94	
13	0	0	0	0	496	94	
14	0	0	0	0	496	93	
15	0	0	0	0	496	92	
0	0	0	0	0	496	94	
1	0	0	0	0	496	94	
2	0	0	0	0	497	94	
3	0	0	0	0	498	93	
4	0	0	0	0	500	92	
5	0	0	0	0	501	93	
6	0	0	0	0	503	94	
7	0	0	0	0	504	94	
8	0	0	0	0	502	93	
9	0	0	0	0	499	93	
10	0	0	0	0	496	94	
11	0	0	0	0	493	94	
12	0	0	0	0	491	94	
13	0	0	0	0	490	93	
14	0	0	0	0	490	93	
15	0	0	0	0	491	93	
0	0	0	0	0	493	94	
1	0	0	0	0	495	94	
2	0	0	0	0	497	94	
3	0	0	0	0	498	93	
4	0	0	0	0	502	93	
5	0	0	0	0	505	92	
6	0	0	0	0	509	93	
7	0	0	0	0	510	94	
8	0	0	0	0	511	94	
9	0	0	0	0	510	93	
10	0	0	0	0	507	92	
11	0	0	0	0	504	94	
12	0	0	0	0	502	94	
13	0	0	0	0	500	94	
14	0	0	0	0	498	94	
15	0	0	0	0	497	93	
0	0	0	0	0	496	93	
1	0	0	0	0	495	94	
2	0	0	0	0	496	94	
3	0	0	0	0	499	94	
4	0	0	0	0	501	94	
5	0	0	0	0	505	93	
6	0	0	0	0	507	92	
7	0	0	0	0	508	94	
8	0	0	0	0	508	94	
9	0	0	0	0	508	94	
10	0	0	0	0	507	93	
11	0	0	0	0	504	92	
12	0	0	0	0	502	94	
13	0	0	0	0	499	94	
14	0	0	0	0	497	94	
15	0	0	0	0	497	92	
0	0	0	0	0	498	94	
1	0	0	0	0	497	94	
2	0	0	0	0	498	94	
3	0	0	0	0	500	94	
4	0	0	0	0	504	93	
5	0	0	0	0	506	92	
6	0	0	0	0	509	94	
7	0	0	0	0	510	94	
8	0	0	0	0	511	94	
9	0	0	0	0	511	93	
10	0	0	0	0	511	92	
11	0	0	0	0	510	93	
12	0	0	0	0	508	94	
13	0	0	0	0	507	94	
14	0	0	0	0	505	93	
15	0	0	0	0	502	93	
0	0	0	0	0	497	92	
1	0	0	0	0	495	94	
2	0	0	0	0	495	94	
3	0	0	0	0	494	93	
4	0	0	0	0	496	92	
5	0	0	0	0	497	94	
6	0	0	0	0	499	94	
7	0	0	0	0	501	93	
8	0	0	0	0	501	93	
9	0	0	0	0	502	94	
10	0	0	0	0	504	93	
11	0	0	0	0	501	93	
12	0	0	0	0	497	94	
13	0	0	0	0	497	94	
14	0	0	0	0	497	93	
15	0	0	0	0	495	94	
0	0	0	0	0	491	94	
1	0	0	0	0	487	94	
2	0	0	0	0	483	93	
3	0	0	0	0	481	94	
4	0	0	0	0	483	94	
5	0	0	0	0	485	93	
6	0	0	0	0	490	93	
7	0	0	0	0	495	94	
8	0	0	0	0	498	94	
9	0	0	0	0	500	94	
10	0	0	0	0	503	93	
11	0	0	0	0	504	92	
12	0	0	0	0	506	94	
13	0	0	0	0	504	94	
14	0	0	0	0	501	94	
15	0	0	0	0	497	93	
0	0	0	0	0	494	93	
1	0	0	0	0	491	94	
2	0	0	0	0	489	94	
3	0	0	0	0	491	93	
4	0	0	0	0	494	93	
5	0	0	0	0	496	92	
6	0	0	0	0	499	94	
7	0	0	0	0	503	94	
8	0	0	0	0	505	94	
9	0	0	0	0	505	94	
10	0	0	0	0	505	93	
11	0	0	0	0	503	93	
12	0	0	0	0	500	93	
13	0	0	0	0	497	94	
14	0	0	0	0	495	94	
15	0	0	0	0	494	94	
0	0	0	0	0	492	94	
1	0	0	0	0	491	94	
2	0	0	0	0	489	94	
3	0	0	0	0	487	94	
4	0	0	0	0	487	93	
5	0	0	0	0	487	93	
6	0	0	0	0	487	93	
7	0	0	0	0	489	93	
8	0	0	0	0	491	93	
9	0	0	0	0	492	93	
10	0	0	0	0	494	92	
11	0	0	0	0	496	93	
12	0	0	0	0	496	93	
13	0	0	0	0	496	94	
14	0	0	0	0	493	94	
15	0	0	0	0	492	94	
0	0	0	0	0	487	94	
1	0	0	0	0	486	94	
2	0	0	0	0	484	94	
3	0	0	0	0	483	93	
4	0	0	0	0	483	93	
5	0	0	0	0	483	93	
6	0	0	0	0	484	94	
7	0	0	0	0	485	94	
8	0	0	0	0	486	94	
9	0	0	0	0	488	94	
10	0	0	0	0	489	94	
11	0	0	0	0	491	94	
12	0	0	0	0	492	93	
13	0	0	0	0	492	93	
14	0	0	0	0	491	93	
15	0	0	0	0	489	92	
0	0	0	0	0	487	92	
1	0	0	0	0	484	93	
2	0	0	0	0	482	93	
3	0	0	0	0	480	94	
4	0	0	0	0	478	94	
5	0	0	0	0	476	94	
6	0	0	0	0	475	94	
7	0	0	0	0	475	94	
8	0	0	0	0	475	94	
9	0	0	0	0	478	94	
10	0	0	0	0	480	94	
11	0	0	0	0	482	93	
12	0	0	0	0	485	93	
13	0	0	0	0	486	93	
14	0	0	0	0	487	93	
15	0	0	0	0	487	93	
0	0	0	0	0	486	94	
1	0	0	0	0	483	94	
2	0	0	0	0	480	94	
3	0	0	0	0	479	94	
4	0	0	0	0	479	93	
5	0	0	0	0	478	93	
6	0	0	0	0	480	93	
7	0	0	0	0	481	94	
8	0	0	0	0	481	94	
9	0	0	0	0	482	94	
10	0	0	0	0	483	94	
11	0	0	0	0	485	93	
12	0	0	0	0	486	93	
13	0	0	0	0	487	93	
14	0	0	0	0	488	92	
15	0	0	0	0	489	93	
0	0	0	0	0	490	93	
1	0	0	0	0	489	94	
2	0	0	0	0	487	94	
3	0	0	0	0	485	94	
4	0	0	0	0	483	94	
5	0	0	0	0	482	93	
6	0	0	0	0	480	93	
7	0	0	0	0	479	93	
8	0	0	0	0	479	92	
9	0	0	0	0	481	93	
10	0	0	0	0	484	93	
11	0	0	0	0	486	94	
12	0	0	0	0	487	94	
13	0	0	0	0	488	94	
14	0	0	0	0	489	94	
15	0	0	0	0	491	94	
0	0	0	0	0	493	94	
1	0	0	0	0	492	93	
2	0	0	0	0	492	93	
3	0	0	0	0	490	93	
4	0	0	0	0	489	92	
5	0	0	0	0	487	93	
6	0	0	0	0	487	94	
7	0	0	0	0	487	94	
8	0	0	0	0	486	94	
9	0	0	0	0	486	94	
10	0	0	0	0	488	94	
11	0	0	0	0	492	94	
12	0	0	0	0	495	93	
13	0	0	0	0	497	93	
14	0	0	0	0	499	93	
15	0	0	0	0	500	93	
0	0	0	0	0	499	92	
1	0	0	0	0	499	93	
2	0	0	0	0	497	94	
3	0	0	0	0	496	94	
4	0	0	0	0	495	94	
5	0	0	0	0	494	94	
6	0	0	0	0	493	94	
7	0	0	0	0	492	94	
8	0	0	0	0	491	94	
9	0	0	0	0	491	94	
10	0	0	0	0	492	93	
11	0	0	0	0	495	93	
12	0	0	0	0	498	93	
13	0	0	0	0	500	92	
14	0	0	0	0	502	93	
15	0	0	0	0	502	94	
0	0	0	0	0	502	94	
1	0	0	0	0	502	94	
2	0	0	0	0	502	94	
3	0	0	0	0	501	94	
4	0	0	0	0	500	94	
5	0	0	0	0	498	94	
6	0	0	0	0	496	93	
7	0	0	0	0	494	92	
8	0	0	0	0	491	92	
9	0	0	0	0	490	94	
10	0	0	0	0	490	94	
11	0	0	0	0	489	94	
12	0	0	0	0	490	94	
13	0	0	0	0	490	94	
14	0	0	0	0	491	94	
15	0	0	0	0	492	94	
0	0	0	0	0	493	93	
1	0	0	0	0	494	93	
2	0	0	0	0	494	93	
3	0	0	0	0	493	93	
4	0	0	0	0	492	93	
5	0	0	0	0	489	93	
6	0	0	0	0	486	94	
7	0	0	0	0	484	94	
8	0	0	0	0	483	94	
9	0	0	0	0	482	94	
10	0	0	0	0	482	94	
11	0	0	0	0	484	93	
12	0	0	0	0	486	93	
13	0	0	0	0	487	93	
14	0	0	0	0	488	93	
15	0	0	0	0	489	93	
0	0	0	0	0	490	94	
1	0	0	0	0	491	94	
2	0	0	0	0	490	94	
3	0	0	0	0	491	94	
4	0	0	0	0	490	94	
5	0	0	0	0	489	94	
6	0	0	0	0	488	93	
7	0	0	0	0	487	92	
8	0	0	0	0	486	93	
9	0	0	0	0	485	94	
10	0	0	0	0	484	94	
11	0	0	0	0	484	94	
12	0	0	0	0	485	94	
13	0	0	0	0	487	94	
14	0	0	0	0	490	93	
15	0	0	0	0	492	93	
0	0	0	0	0	493	93	
1	0	0	0	0	495	92	
2	0	0	0	0	497	92	
3	0	0	0	0	497	93	
4	0	0	0	0	496	94	
5	0	0	0	0	495	94	
6	0	0	0	0	494	94	
7	0	0	0	0	494	94	
8	0	0	0	0	493	94	
9	0	0	0	0	491	94	
10	0	0	0	0	491	94	
11	0	0	0	0	492	93	
12	0	0	0	0	493	93	
13	0	0	0	0	494	93	
14	0	0	0	0	495	92	
15	0	0	0	0	497	93	
0	0	0	0	0	499	94	
1	0	0	0	0	504	94	
2	0	0	0	0	507	94	
3	0	0	0	0	508	94	
4	0	0	0	0	509	94	
5	0	0	0	0	507	93	
6	0	0	0	0	507	93	
7	0	0	0	0	507	92	
8	0	0	0	0	506	93	
9	0	0	0	0	505	94	
10	0	0	0	0	504	94	
11	0	0	0	0	504	94	
12	0	0	0	0	503	94	
13	0	0	0	0	505	94	
14	0	0	0	0	507	94	
15	0	0	0	0	509	94	
0	0	0	0	0	510	94	
1	0	0	0	0	512	94	
2	0	0	0	0	515	93	
3	0	0	0	0	518	93	
4	0	0	0	0	518	93	
5	0	0	0	0	518	93	
6	0	0	0	0	517	93	
7	0	0	0	0	516	93	
8	0	0	0	0	513	94	
9	0	0	0	0	512	94	
10	0	0	0	0	511	94	
11	0	0	0	0	510	94	
12	0	0	0	0	509	94	
13	0	0	0	0	509	93	
14	0	0	0	0	511	93	
15	0	0	0	0	514	92	
0	0	0	0	0	517	93	
1	0	0	0	0	519	93	
2	0	0	0	0	520	94	
3	0	0	0	0	520	94	
4	0	0	0	0	519	94	
5	0	0	0	0	519	94	
6	0	0	0	0	518	94	
7	0	0	0	0	517	94	
8	0	0	0	0	515	94	
9	0	0	0	0	512	94	
10	0	0	0	0	511	93	
11	0	0	0	0	511	93	
12	0	0	0	0	510	92	
13	0	0	0	0	510	92	
14	0	0	0	0	511	93	
15	0	0	0	0	513	93	
0	0	0	0	0	514	94	
1	0	0	0	0	515	94	
2	0	0	0	0	516	94	
3	0	0	0	0	518	94	
4	0	0	0	0	519	94	
5	0	0	0	0	519	93	
6	0	0	0	0	519	93	
7	0	0	0	0	517	92	
8	0	0	0	0	516	92	
9	0	0	0	0	515	92	
10	0	0	0	0	515	94	
11	0	0	0	0	515	94	
12	0	0	0	0	514	94	
13	0	0	0	0	514	94	
14	0	0	0	0	515	94	
15	0	0	0	0	517	93	
0	0	0	0	0	519	93	
1	0	0	0	0	520	92	
2	0	0	0	0	523	92	
3	0	0	0	0	525	93	
4	0	0	0	0	527	94	
5	0	0	0	0	527	94	
6	0	0	0	0	526	94	
7	0	0	0	0	525	94	
8	0	0	0	0	524	94	
9	0	0	0	0	522	93	
10	0	0	0	0	519	93	
11	0	0	0	0	518	93	
12	0	0	0	0	516	93	
13	0	0	0	0	514	92	
14	0	0	0	0	514	93	
15	0	0	0	0	515	93	
0	0	0	0	0	515	94	
1	0	0	0	0	516	94	
2	0	0	0	0	519	94	
3	0	0	0	0	523	94	
4	0	0	0	0	525	94	
5	0	0	0	0	526	94	
6	0	0	0	0	528	94	
7	0	0	0	0	529	93	
8	0	0	0	0	528	93	
9	0	0	0	0	527	93	
10	0	0	0	0	526	92	
11	0	0	0	0	524	92	
12	0	0	0	0	522	92	
13	0	0	0	0	521	92	
14	0	0	0	0	521	92	
15	0	0	0	0	521	92	
0	0	0	0	0	521	93	
1	0	0	0	0	522	94	
2	0	0	0	0	524	94	
3	0	0	0	0	525	94	
4	0	0	0	0	527	94	
5	0	0	0	0	528	94	
6	0	0	0	0	528	94	
7	0	0	0	0	528	94	
8	0	0	0	0	528	93	
9	0	0	0	0	527	93	
10	0	0	0	0	528	93	
11	0	0	0	0	527	92	
12	0	0	0	0	526	92	
13	0	0	0	0	525	93	
14	0	0	0	0	524	94	
15	0	0	0	0	524	94	
0	0	0	0	0	525	94	
1	0	0	0	0	527	94	
2	0	0	0	0	529	94	
3	0	0	0	0	532	93	
4	0	0	0	0	534	93	
5	0	0	0	0	536	92	
6	0	0	0	0	539	92	
7	0	0	0	0	540	93	
8	0	0	0	0	541	93	
9	0	0	0	0	542	94	
10	0	0	0	0	542	94	
11	0	0	0	0	543	94	
12	0	0	0	0	543	94	
13	0	0	0	0	545	94	
14	0	0	0	0	547	93	
15	0	0	0	0	548	93	
0	0	0	0	0	551	93	
1	0	0	0	0	555	92	
2	0	0	0	0	559	92	
3	0	0	0	0	565	92	
4	0	0	0	0	569	93	
5	0	0	0	0	573	94	
6	0	0	0	0	577	94	
7	0	0	0	0	582	94	
8	0	0	0	0	583	93	
9	0	0	0	0	583	92	
10	0	0	0	0	581	93	
11	0	0	0	0	578	94	
12	0	0	0	0	573	94	
13	0	0	0	0	568	94	
14	0	0	0	0	562	94	
15	0	0	0	0	556	93	
0	0	0	0	0	551	92	
1	0	0	0	0	544	92	
2	0	0	0	0	539	94	
3	0	0	0	0	533	94	
4	0	0	0	0	530	94	
5	0	0	0	0	527	94	
6	0	0	0	0	523	93	
7	0	0	0	0	519	92	
8	0	0	0	0	514	94	
9	0	0	0	0	508	94	
10	0	0	0	0	503	94	
11	0	0	0	0	497	93	
12	0	0	0	0	492	93	
13	0	0	0	0	487	93	
14	0	0	0	0	482	93	
15	0	0	0	0	478	93	
0	0	0	0	0	474	94	
1	0	0	0	0	470	94	
2	0	0	0	0	467	94	
3	0	0	0	0	464	93	
4	0	0	0	0	461	93	
5	0	0	0	0	459	93	
6	0	0	0	0	459	93	
7	0	0	0	0	459	93	
8	0	0	0	0	459	93	
9	0	0	0	0	460	94	
10	0	0	0	0	463	94	
11	0	0	0	0	465	94	
12	0	0	0	0	467	94	
13	0	0	0	0	469	94	
14	0	0	0	0	471	94	
15	0	0	0	0	471	94	
0	0	0	0	0	473	94	
1	0	0	0	0	475	93	
2	0	0	0	0	479	93	
3	0	0	0	0	482	93	
4	0	0	0	0	486	93	
5	0	0	0	0	489	93	
6	0	0	0	0	493	94	
7	0	0	0	0	497	94	
8	0	0	0	0	501	94	
9	0	0	0	0	504	94	
10	0	0	0	0	507	94	
11	0	0	0	0	508	94	
12	0	0	0	0	508	93	
13	0	0	0	0	508	93	
14	0	0	0	0	509	93	
15	0	0	0	0	509	93	
0	0	0	0	0	509	93	
1	0	0	0	0	509	94	
2	0	0	0	0	508	94	
3	0	0	0	0	509	94	
4	0	0	0	0	510	94	
5	0	0	0	0	512	94	
6	0	0	0	0	514	94	
7	0	0	0	0	515	93	
8	0	0	0	0	518	93	
9	0	0	0	0	521	93	
10	0	0	0	0	523	92	
11	0	0	0	0	524	92	
12	0	0	0	0	524	92	
13	0	0	0	0	523	93	
14	0	0	0	0	521	94	
15	0	0	0	0	521	94	
0	0	0	0	0	519	94	
1	0	0	0	0	517	94	
2	0	0	0	0	516	94	
3	0	0	0	0	516	94	
4	0	0	0	0	518	94	
5	0	0	0	0	520	93	
6	0	0	0	0	523	93	
7	0	0	0	0	526	92	
8	0	0	0	0	529	92	
9	0	0	0	0	532	93	
10	0	0	0	0	535	93	
11	0	0	0	0	537	94	
12	0	0	0	0	536	94	
13	0	0	0	0	535	94	
14	0	0	0	0	534	94	
15	0	0	0	0	534	94	
0	0	0	0	0	532	94	
1	0	0	0	0	531	93	
2	0	0	0	0	530	93	
3	0	0	0	0	530	92	
4	0	0	0	0	529	92	
5	0	0	0	0	528	94	
6	0	0	0	0	528	94	
7	0	0	0	0	529	94	
8	0	0	0	0	529	93	
9	0	0	0	0	532	93	
10	0	0	0	0	536	93	
11	0	0	0	0	537	92	
12	0	0	0	0	538	92	
13	0	0	0	0	537	92	
14	0	0	0	0	537	92	
15	0	0	0	0	536	93	
0	0	0	0	0	532	93	
1	0	0	0	0	530	93	
2	0	0	0	0	527	94	
3	0	0	0	0	524	94	
4	0	0	0	0	523	94	
5	0	0	0	0	523	94	
6	0	0	0	0	524	94	
7	0	0	0	0	527	94	
8	0	0	0	0	529	93	
9	0	0	0	0	532	93	
10	0	0	0	0	534	92	
11	0	0	0	0	537	93	
12	0	0	0	0	538	94	
13	0	0	0	0	538	94	
14	0	0	0	0	539	94	
15	0	0	0	0	538	94	
0	0	0	0	0	536	93	
1	0	0	0	0	534	93	
2	0	0	0	0	532	93	
3	0	0	0	0	531	93	
4	0	0	0	0	530	93	
5	0	0	0	0	529	92	
6	0	0	0	0	529	92	
7	0	0	0	0	531	94	
8	0	0	0	0	532	94	
9	0	0	0	0	535	94	
10	0	0	0	0	536	94	
11	0	0	0	0	537	94	
12	0	0	0	0	537	94	
13	0	0	0	0	540	93	
14	0	0	0	0	540	93	
15	0	0	0	0	540	92	
0	0	0	0	0	539	92	
1	0	0	0	0	538	92	
2	0	0	0	0	536	93	
3	0	0	0	0	534	94	
4	0	0	0	0	532	94	
5	0	0	0	0	531	93	
6	0	0	0	0	531	92	
7	0	0	0	0	532	94	
8	0	0	0	0	532	94	
9	0	0	0	0	534	94	
10	0	0	0	0	535	94	
11	0	0	0	0	538	93	
12	0	0	0	0	541	93	
13	0	0	0	0	542	92	
14	0	0	0	0	543	93	
15	0	0	0	0	544	94	
0	0	0	0	0	543	94	
1	0	0	0	0	542	94	
2	0	0	0	0	540	94	
3	0	0	0	0	539	93	
4	0	0	0	0	537	92	
5	0	0	0	0	536	93	
6	0	0	0	0	536	94	
7	0	0	0	0	536	94	
8	0	0	0	0	535	94	
9	0	0	0	0	537	93	
10	0	0	0	0	539	92	
11	0	0	0	0	540	92	
12	0	0	0	0	541	92	
13	0	0	0	0	543	93	
14	0	0	0	0	544	94	
15	0	0	0	0	545	94	
0	0	0	0	0	545	94	
1	0	0	0	0	544	94	
2	0	0	0	0	542	94	
3	0	0	0	0	539	94	
4	0	0	0	0	537	94	
5	0	0	0	0	536	93	
6	0	0	0	0	534	93	
7	0	0	0	0	533	93	
8	0	0	0	0	533	93	
9	0	0	0	0	534	92	
10	0	0	0	0	535	92	
11	0	0	0	0	536	92	
12	0	0	0	0	539	93	
13	0	0	0	0	542	94	
14	0	0	0	0	544	94	
15	0	0	0	0	547	94	
0	0	0	0	0	546	92	
1	0	0	0	0	547	93	
2	0	0	0	0	546	94	
3	0	0	0	0	544	94	
4	0	0	0	0	543	92	
5	0	0	0	0	540	94	
6	0	0	0	0	539	94	
7	0	0	0	0	538	93	
8	0	0	0	0	538	92	
9	0	0	0	0	539	94	
10	0	0	0	0	541	94	
11	0	0	0	0	544	94	
12	0	0	0	0	546	93	
13	0	0	0	0	549	92	
14	0	0	0	0	551	94	
15	0	0	0	0	552	94	
0	0	0	0	0	553	94	
1	0	0	0	0	553	92	
2	0	0	0	0	552	92	
3	0	0	0	0	550	94	
4	0	0	0	0	548	94	
5	0	0	0	0	546	94	
6	0	0	0	0	545	93	
7	0	0	0	0	543	92	
8	0	0	0	0	542	93	
9	0	0	0	0	542	94	
10	0	0	0	0	542	94	
11	0	0	0	0	543	93	
12	0	0	0	0	545	93	
13	0	0	0	0	547	94	
14	0	0	0	0	547	93	
15	0	0	0	0	548	92	
0	0	0	0	0	550	92	
1	0	0	0	0	551	94	
2	0	0	0	0	550	94	
3	0	0	0	0	549	93	
4	0	0	0	0	548	92	
5	0	0	0	0	546	93	
6	0	0	0	0	544	94	
7	0	0	0	0	542	94	
8	0	0	0	0	540	93	
9	0	0	0	0	540	92	
10	0	0	0	0	540	93	
11	0	0	0	0	542	94	
12	0	0	0	0	543	94	
13	0	0	0	0	547	92	
14	0	0	0	0	549	92	
15	0	0	0	0	551	93	
0	0	0	0	0	553	94	
1	0	0	0	0	553	94	
2	0	0	0	0	554	93	
3	0	0	0	0	555	92	
4	0	0	0	0	552	93	
5	0	0	0	0	550	94	
6	0	0	0	0	547	94	
7	0	0	0	0	544	93	
8	0	0	0	0	543	93	
9	0	0	0	0	541	94	
10	0	0	0	0	540	93	
11	0	0	0	0	541	92	
12	0	0	0	0	542	93	
13	0	0	0	0	543	94	
14	0	0	0	0	544	94	
15	0	0	0	0	545	93	
0	0	0	0	0	547	93	
1	0	0	0	0	547	92	
2	0	0	0	0	547	93	
3	0	0	0	0	545	94	
4	0	0	0	0	544	94	
5	0	0	0	0	543	94	
6	0	0	0	0	542	92	
7	0	0	0	0	539	94	
8	0	0	0	0	536	94	
9	0	0	0	0	534	94	
10	0	0	0	0	532	93	
11	0	0	0	0	531	92	
12	0	0	0	0	531	94	
13	0	0	0	0	530	94	
14	0	0	0	0	530	94	
15	0	0	0	0	531	93	
0	0	0	0	0	533	93	
1	0	0	0	0	535	92	
2	0	0	0	0	536	92	
3	0	0	0	0	537	92	
4	0	0	0	0	537	93	
5	0	0	0	0	536	94	
6	0	0	0	0	533	94	
7	0	0	0	0	529	94	
8	0	0	0	0	527	94	
9	0	0	0	0	524	94	
10	0	0	0	0	523	94	
11	0	0	0	0	521	94	
12	0	0	0	0	521	93	
13	0	0	0	0	521	92	
14	0	0	0	0	523	93	
15	0	0	0	0	525	93	
0	0	0	0	0	527	94	
1	0	0	0	0	529	94	
2	0	0	0	0	530	94	
3	0	0	0	0	532	94	
4	0	0	0	0	533	94	
5	0	0	0	0	533	93	
6	0	0	0	0	533	92	
7	0	0	0	0	531	92	
8	0	0	0	0	528	93	
9	0	0	0	0	526	93	
10	0	0	0	0	524	94	
11	0	0	0	0	522	94	
12	0	0	0	0	521	94	
13	0	0	0	0	521	94	
14	0	0	0	0	521	94	
15	0	0	0	0	522	94	
0	0	0	0	0	524	93	
1	0	0	0	0	526	93	
2	0	0	0	0	529	93	
3	0	0	0	0	529	92	
4	0	0	0	0	530	92	
5	0	0	0	0	530	93	
6	0	0	0	0	529	94	
7	0	0	0	0	527	94	
8	0	0	0	0	524	94	
9	0	0	0	0	523	94	
10	0	0	0	0	521	94	
11	0	0	0	0	519	94	
12	0	0	0	0	517	94	
13	0	0	0	0	516	93	
14	0	0	0	0	515	92	
15	0	0	0	0	514	94	
0	0	0	0	0	513	94	
1	0	0	0	0	514	94	
2	0	0	0	0	515	94	
3	0	0	0	0	516	94	
4	0	0	0	0	516	93	
5	0	0	0	0	517	92	
6	0	0	0	0	517	93	
7	0	0	0	0	517	93	
8	0	0	0	0	515	94	
9	0	0	0	0	512	94	
10	0	0	0	0	510	94	
11	0	0	0	0	508	94	
12	0	0	0	0	506	94	
13	0	0	0	0	505	94	
14	0	0	0	0	505	94	
15	0	0	0	0	507	93	
0	0	0	0	0	508	93	
1	0	0	0	0	510	93	
2	0	0	0	0	512	94	
3	0	0	0	0	514	94	
4	0	0	0	0	515	94	
5	0	0	0	0	517	94	
6	0	0	0	0	518	94	
7	0	0	0	0	516	94	
8	0	0	0	0	514	93	
9	0	0	0	0	512	93	
10	0	0	0	0	510	93	
11	0	0	0	0	506	92	
12	0	0	0	0	504	92	
13	0	0	0	0	503	92	
14	0	0	0	0	503	94	
15	0	0	0	0	504	94	
0	0	0	0	0	505	94	
1	0	0	0	0	505	94	
2	0	0	0	0	506	93	
3	0	0	0	0	509	93	
4	0	0	0	0	511	93	
5	0	0	0	0	512	92	
6	0	0	0	0	514	94	
7	0	0	0	0	513	94	
8	0	0	0	0	513	94	
9	0	0	0	0	513	94	
10	0	0	0	0	511	93	
11	0	0	0	0	510	93	
12	0	0	0	0	508	93	
13	0	0	0	0	505	93	
14	0	0	0	0	504	93	
15	0	0	0	0	504	92	
0	0	0	0	0	505	92	
1	0	0	0	0	506	92	
2	0	0	0	0	509	93	
3	0	0	0	0	512	93	
4	0	0	0	0	515	93	
5	0	0	0	0	518	94	
6	0	0	0	0	519	94	
7	0	0	0	0	520	94	
8	0	0	0	0	520	94	
9	0	0	0	0	519	94	
10	0	0	0	0	518	94	
11	0	0	0	0	515	93	
12	0	0	0	0	513	92	
13	0	0	0	0	512	92	
14	0	0	0	0	512	93	
15	0	0	0	0	512	93	
0	0	0	0	0	512	94	
1	0	0	0	0	512	94	
2	0	0	0	0	512	94	
3	0	0	0	0	512	94	
4	0	0	0	0	513	94	
5	0	0	0	0	512	94	
6	0	0	0	0	513	93	
7	0	0	0	0	513	93	
8	0	0	0	0	512	92	
9	0	0	0	0	512	92	
10	0	0	0	0	511	92	
11	0	0	0	0	509	93	
12	0	0	0	0	508	94	
13	0	0	0	0	504	94	
14	0	0	0	0	501	93	
15	0	0	0	0	499	92	
0	0	0	0	0	497	92	
1	0	0	0	0	497	93	
2	0	0	0	0	496	94	
3	0	0	0	0	498	94	
4	0	0	0	0	499	94	
5	0	0	0	0	501	94	
6	0	0	0	0	501	94	
7	0	0	0	0	502	94	
8	0	0	0	0	502	94	
9	0	0	0	0	501	94	
10	0	0	0	0	500	94	
11	0	0	0	0	498	94	
12	0	0	0	0	496	93	
13	0	0	0	0	494	93	
14	0	0	0	0	491	93	
15	0	0	0	0	489	94	
0	0	0	0	0	488	94	
1	0	0	0	0	488	93	
2	0	0	0	0	489	92	
3	0	0	0	0	490	93	
4	0	0	0	0	492	94	
5	0	0	0	0	494	94	
6	0	0	0	0	496	93	
7	0	0	0	0	499	92	
8	0	0	0	0	499	92	
9	0	0	0	0	501	93	
10	0	0	0	0	500	93	
11	0	0	0	0	499	93	
12	0	0	0	0	499	92	
13	0	0	0	0	498	92	
14	0	0	0	0	496	94	
15	0	0	0	0	494	94	
0	0	0	0	0	492	94	
1	0	0	0	0	492	94	
2	0	0	0	0	491	94	
3	0	0	0	0	492	94	
4	0	0	0	0	493	94	
5	0	0	0	0	494	94	
6	0	0	0	0	496	94	
7	0	0	0	0	497	93	
8	0	0	0	0	499	93	
9	0	0	0	0	501	92	
10	0	0	0	0	502	92	
11	0	0	0	0	504	92	
12	0	0	0	0	503	92	
13	0	0	0	0	502	92	
14	0	0	0	0	499	94	
15	0	0	0	0	497	94	
0	0	0	0	0	494	94	
1	0	0	0	0	494	94	
2	0	0	0	0	494	94	
3	0	0	0	0	494	94	
4	0	0	0	0	495	94	
5	0	0	0	0	496	94	
6	0	0	0	0	497	94	
7	0	0	0	0	499	94	
8	0	0	0	0	501	93	
9	0	0	0	0	503	93	
10	0	0	0	0	504	93	
11	0	0	0	0	505	92	
12	0	0	0	0	504	93	
13	0	0	0	0	503	93	
14	0	0	0	0	502	93	
15	0	0	0	0	500	94	
0	0	0	0	0	497	94	
1	0	0	0	0	496	94	
2	0	0	0	0	495	94	
3	0	0	0	0	495	94	
4	0	0	0	0	496	94	
5	0	0	0	0	496	94	
6	0	0	0	0	496	93	
7	0	0	0	0	498	93	
8	0	0	0	0	499	93	
9	0	0	0	0	502	93	
10	0	0	0	0	504	93	
11	0	0	0	0	507	92	
12	0	0	0	0	508	92	
13	0	0	0	0	508	93	
14	0	0	0	0	508	93	
15	0	0	0	0	505	94	
0	0	0	0	0	503	94	
1	0	0	0	0	502	94	
2	0	0	0	0	501	94	
3	0	0	0	0	501	94	
4	0	0	0	0	502	94	
5	0	0	0	0	504	94	
6	0	0	0	0	507	94	
7	0	0	0	0	510	93	
8	0	0	0	0	513	93	
9	0	0	0	0	516	93	
10	0	0	0	0	518	92	
11	0	0	0	0	520	94	
12	0	0	0	0	519	94	
13	0	0	0	0	519	94	
14	0	0	0	0	519	94	
15	0	0	0	0	519	93	
0	0	0	0	0	517	92	
1	0	0	0	0	515	93	
2	0	0	0	0	514	94	
3	0	0	0	0	515	94	
4	0	0	0	0	515	94	
5	0	0	0	0	517	94	
6	0	0	0	0	519	94	
7	0	0	0	0	521	93	
8	0	0	0	0	523	92	
9	0	0	0	0	526	94	
10	0	0	0	0	528	94	
11	0	0	0	0	531	94	
12	0	0	0	0	532	93	
13	0	0	0	0	533	92	
14	0	0	0	0	533	92	
15	0	0	0	0	533	94	
0	0	0	0	0	531	94	
1	0	0	0	0	530	94	
2	0	0	0	0	529	93	
3	0	0	0	0	527	92	
4	0	0	0	0	526	92	
5	0	0	0	0	524	93	
6	0	0	0	0	525	93	
7	0	0	0	0	526	93	
8	0	0	0	0	528	94	
9	0	0	0	0	531	94	
10	0	0	0	0	532	94	
11	0	0	0	0	534	94	
12	0	0	0	0	535	94	
13	0	0	0	0	535	94	
14	0	0	0	0	536	93	
15	0	0	0	0	537	93	
0	0	0	0	0	537	92	
1	0	0	0	0	535	92	
2	0	0	0	0	532	93	
3	0	0	0	0	529	94	
4	0	0	0	0	526	94	
5	0	0	0	0	524	94	
6	0	0	0	0	525	94	
7	0	0	0	0	527	94	
8	0	0	0	0	527	94	
9	0	0	0	0	529	94	
10	0	0	0	0	531	94	
11	0	0	0	0	532	93	
12	0	0	0	0	535	93	
13	0	0	0	0	536	93	
14	0	0	0	0	536	93	
15	0	0	0	0	537	93	
0	0	0	0	0	536	93	
1	0	0	0	0	534	92	
2	0	0	0	0	531	92	
3	0	0	0	0	529	92	
4	0	0	0	0	527	92	
5	0	0	0	0	527	92	
6	0	0	0	0	527	93	
7	0	0	0	0	527	93	
8	0	0	0	0	527	93	
9	0	0	0	0	528	94	
10	0	0	0	0	531	94	
11	0	0	0	0	531	94	
12	0	0	0	0	532	94	
13	0	0	0	0	532	93	
14	0	0	0	0	534	93	
15	0	0	0	0	535	93	
0	0	0	0	0	536	92	
1	0	0	0	0	535	92	
2	0	0	0	0	533	93	
3	0	0	0	0	532	94	
4	0	0	0	0	530	94	
5	0	0	0	0	529	94	
6	0	0	0	0	527	94	
7	0	0	0	0	526	94	
8	0	0	0	0	525	94	
9	0	0	0	0	526	94	
10	0	0	0	0	527	94	
11	0	0	0	0	528	93	
12	0	0	0	0	531	93	
13	0	0	0	0	534	93	
14	0	0	0	0	535	92	
15	0	0	0	0	536	92	
0	0	0	0	0	536	93	
1	0	0	0	0	535	94	
2	0	0	0	0	534	94	
3	0	0	0	0	534	94	
4	0	0	0	0	534	94	
5	0	0	0	0	534	94	
6	0	0	0	0	532	94	
7	0	0	0	0	530	93	
8	0	0	0	0	529	93	
9	0	0	0	0	530	93	
10	0	0	0	0	532	92	
11	0	0	0	0	534	94	
12	0	0	0	0	536	94	
13	0	0	0	0	538	94	
14	0	0	0	0	540	94	
15	0	0	0	0	542	94	
0	0	0	0	0	542	93	
1	0	0	0	0	542	93	
2	0	0	0	0	541	92	
3	0	0	0	0	540	92	
4	0	0	0	0	537	93	
5	0	0	0	0	535	93	
6	0	0	0	0	532	94	
7	0	0	0	0	532	94	
8	0	0	0	0	533	94	
9	0	0	0	0	534	94	
10	0	0	0	0	535	93	
11	0	0	0	0	536	92	
12	0	0	0	0	539	92	
13	0	0	0	0	541	93	
14	0	0	0	0	544	93	
15	0	0	0	0	545	93	
0	0	0	0	0	547	94	
1	0	0	0	0	548	94	
2	0	0	0	0	547	94	
3	0	0	0	0	547	94	
4	0	0	0	0	545	94	
5	0	0	0	0	545	92	
6	0	0	0	0	543	93	
7	0	0	0	0	541	92	
8	0	0	0	0	540	93	
9	0	0	0	0	539	93	
10	0	0	0	0	539	93	
11	0	0	0	0	541	93	
12	0	0	0	0	543	93	
13	0	0	0	0	546	94	
14	0	0	0	0	550	94	
15	0	0	0	0	555	94	
0	0	0	0	0	556	94	
1	0	0	0	0	558	93	
2	0	0	0	0	558	93	
3	0	0	0	0	556	93	
4	0	0	0	0	555	92	
5	0	0	0	0	553	92	
6	0	0	0	0	551	92	
7	0	0	0	0	551	92	
8	0	0	0	0	548	92	
9	0	0	0	0	548	92	
10	0	0	0	0	548	93	
11	0	0	0	0	548	93	
12	0	0	0	0	548	93	
13	0	0	0	0	549	93	
14	0	0	0	0	552	94	
15	0	0	0	0	553	94	
0	0	0	0	0	555	94	
1	0	0	0	0	556	94	
2	0	0	0	0	556	94	
3	0	0	0	0	556	94	
4	0	0	0	0	555	94	
5	0	0	0	0	553	94	
6	0	0	0	0	551	94	
7	0	0	0	0	547	94	
8	0	0	0	0	545	94	
9	0	0	0	0	543	93	
10	0	0	0	0	544	93	
11	0	0	0	0	545	93	
12	0	0	0	0	545	92	
13	0	0	0	0	547	93	
14	0	0	0	0	548	94	
15	0	0	0	0	550	94	
0	0	0	0	0	553	94	
1	0	0	0	0	555	93	
2	0	0	0	0	556	93	
3	0	0	0	0	557	93	
4	0	0	0	0	556	92	
5	0	0	0	0	554	92	
6	0	0	0	0	551	93	
7	0	0	0	0	550	93	
8	0	0	0	0	548	94	
9	0	0	0	0	546	94	
10	0	0	0	0	543	94	
11	0	0	0	0	542	94	
12	0	0	0	0	542	94	
13	0	0	0	0	543	94	
14	0	0	0	0	543	94	
15	0	0	0	0	544	94	
0	0	0	0	0	546	93	
1	0	0	0	0	549	93	
2	0	0	0	0	551	92	
3	0	0	0	0	552	92	
4	0	0	0	0	551	92	
5	0	0	0	0	550	92	
6	0	0	0	0	547	92	
7	0	0	0	0	545	92	
8	0	0	0	0	542	93	
9	0	0	0	0	540	94	
10	0	0	0	0	537	94	
11	0	0	0	0	536	94	
12	0	0	0	0	536	94	
13	0	0	0	0	536	94	
14	0	0	0	0	536	94	
15	0	0	0	0	537	93	
0	0	0	0	0	539	92	
1	0	0	0	0	543	92	
2	0	0	0	0	546	92	
3	0	0	0	0	547	93	
4	0	0	0	0	546	93	
5	0	0	0	0	545	93	
6	0	0	0	0	543	94	
7	0	0	0	0	541	94	
8	0	0	0	0	539	94	
9	0	0	0	0	536	94	
10	0	0	0	0	532	94	
11	0	0	0	0	531	94	
12	0	0	0	0	529	94	
13	0	0	0	0	530	93	
14	0	0	0	0	531	93	
15	0	0	0	0	533	93	
0	0	0	0	0	535	93	
1	0	0	0	0	537	92	
2	0	0	0	0	539	92	
3	0	0	0	0	539	92	
4	0	0	0	0	539	93	
5	0	0	0	0	537	93	
6	0	0	0	0	536	94	
7	0	0	0	0	534	94	
8	0	0	0	0	530	94	
9	0	0	0	0	527	94	
10	0	0	0	0	524	94	
11	0	0	0	0	522	94	
12	0	0	0	0	521	94	
13	0	0	0	0	521	93	
14	0	0	0	0	523	93	
15	0	0	0	0	525	93	
0	0	0	0	0	527	93	
1	0	0	0	0	530	94	
2	0	0	0	0	532	94	
3	0	0	0	0	535	94	
4	0	0	0	0	536	94	
5	0	0	0	0	537	94	
6	0	0	0	0	538	94	
7	0	0	0	0	538	94	
8	0	0	0	0	538	94	
9	0	0	0	0	536	94	
10	0	0	0	0	534	94	
11	0	0	0	0	532	94	
12	0	0	0	0	531	94	
13	0	0	0	0	531	93	
14	0	0	0	0	532	93	
15	0	0	0	0	532	93	
0	0	0	0	0	534	92	
1	0	0	0	0	536	93	
2	0	0	0	0	538	94	
3	0	0	0	0	540	94	
4	0	0	0	0	543	94	
5	0	0	0	0	547	94	
6	0	0	0	0	549	93	
7	0	0	0	0	550	92	
8	0	0	0	0	548	92	
9	0	0	0	0	547	93	
10	0	0	0	0	547	93	
11	0	0	0	0	543	94	
12	0	0	0	0	540	94	
13	0	0	0	0	538	94	
14	0	0	0	0	537	94	
15	0	0	0	0	537	94	
0	0	0	0	0	538	94	
1	0	0	0	0	540	94	
2	0	0	0	0	542	93	
3	0	0	0	0	543	92	
4	0	0	0	0	543	93	
5	0	0	0	0	545	94	
6	0	0	0	0	548	94	
7	0	0	0	0	550	94	
8	0	0	0	0	549	94	
9	0	0	0	0	547	93	
10	0	0	0	0	546	92	
11	0	0	0	0	545	93	
12	0	0	0	0	543	94	
13	0	0	0	0	542	94	
14	0	0	0	0	541	94	
15	0	0	0	0	541	94	
0	0	0	0	0	541	94	
1	0	0	0	0	542	93	
2	0	0	0	0	544	93	
3	0	0	0	0	546	92	
4	0	0	0	0	548	92	
5	0	0	0	0	551	92	
6	0	0	0	0	553	92	
7	0	0	0	0	553	92	
8	0	0	0	0	554	92	
9	0	0	0	0	554	93	
10	0	0	0	0	554	93	
11	0	0	0	0	552	93	
12	0	0	0	0	549	94	
13	0	0	0	0	546	94	
14	0	0	0	0	545	94	
15	0	0	0	0	543	93	
0	0	0	0	0	542	92	
1	0	0	0	0	543	92	
2	0	0	0	0	543	92	
3	0	0	0	0	543	93	
4	0	0	0	0	547	94	
5	0	0	0	0	549	94	
6	0	0	0	0	551	94	
7	0	0	0	0	552	94	
8	0	0	0	0	551	94	
9	0	0	0	0	553	94	
10	0	0	0	0	551	94	
11	0	0	0	0	550	94	
12	0	0	0	0	547	93	
13	0	0	0	0	546	93	
14	0	0	0	0	544	93	
15	0	0	0	0	542	93	
0	0	0	0	0	541	92	
1	0	0	0	0	540	92	
2	0	0	0	0	541	92	
3	0	0	0	0	545	94	
4	0	0	0	0	548	94	
5	0	0	0	0	551	94	
6	0	0	0	0	552	94	
7	0	0	0	0	552	93	
8	0	0	0	0	552	92	
9	0	0	0	0	551	92	
10	0	0	0	0	551	93	
11	0	0	0	0	551	93	
12	0	0	0	0	548	94	
13	0	0	0	0	545	94	
14	0	0	0	0	542	94	
15	0	0	0	0	539	94	
0	0	0	0	0	536	94	
1	0	0	0	0	535	93	
2	0	0	0	0	534	93	
3	0	0	0	0	535	92	
4	0	0	0	0	536	92	
5	0	0	0	0	537	92	
6	0	0	0	0	540	93	
7	0	0	0	0	542	93	
8	0	0	0	0	541	94	
9	0	0	0	0	542	94	
10	0	0	0	0	541	94	
11	0	0	0	0	539	94	
12	0	0	0	0	538	94	
13	0	0	0	0	537	94	
14	0	0	0	0	535	93	
15	0	0	0	0	533	93	
0	0	0	0	0	532	92	
1	0	0	0	0	532	92	
2	0	0	0	0	532	92	
3	0	0	0	0	534	92	
4	0	0	0	0	534	93	
5	0	0	0	0	535	94	
6	0	0	0	0	537	94	
7	0	0	0	0	539	94	
8	0	0	0	0	541	93	
9	0	0	0	0	542	93	
10	0	0	0	0	542	92	
11	0	0	0	0	542	92	
12	0	0	0	0	540	93	
13	0	0	0	0	541	94	
14	0	0	0	0	541	94	
15	0	0	0	0	539	94	
0	0	0	0	0	537	93	
1	0	0	0	0	537	93	
2	0	0	0	0	538	92	
3	0	0	0	0	537	94	
4	0	0	0	0	538	94	
5	0	0	0	0	538	94	
6	0	0	0	0	540	94	
7	0	0	0	0	543	94	
8	0	0	0	0	546	94	
9	0	0	0	0	547	94	
10	0	0	0	0	547	94	
11	0	0	0	0	548	93	
12	0	0	0	0	549	93	
13	0	0	0	0	548	93	
14	0	0	0	0	547	93	
15	0	0	0	0	546	92	
0	0	0	0	0	542	92	
1	0	0	0	0	540	92	
2	0	0	0	0	537	93	
3	0	0	0	0	536	94	
4	0	0	0	0	537	94	
5	0	0	0	0	538	94	
6	0	0	0	0	540	94	
7	0	0	0	0	542	94	
8	0	0	0	0	544	94	
9	0	0	0	0	546	94	
10	0	0	0	0	548	94	
11	0	0	0	0	549	94	
12	0	0	0	0	549	93	
13	0	0	0	0	547	92	
14	0	0	0	0	546	93	
15	0	0	0	0	544	94	
0	0	0	0	0	543	94	
1	0	0	0	0	542	93	
2	0	0	0	0	540	93	
3	0	0	0	0	540	92	
4	0	0	0	0	539	92	
5	0	0	0	0	539	92	
6	0	0	0	0	538	93	
7	0	0	0	0	538	93	
8	0	0	0	0	541	94	
9	0	0	0	0	542	94	
10	0	0	0	0	545	94	
11	0	0	0	0	546	94	
12	0	0	0	0	545	93	
13	0	0	0	0	545	92	
14	0	0	0	0	543	92	
15	0	0	0	0	541	92	
0	0	0	0	0	540	94	
1	0	0	0	0	540	94	
2	0	0	0	0	539	94	
3	0	0	0	0	538	94	
4	0	0	0	0	536	94	
5	0	0	0	0	535	93	
6	0	0	0	0	534	92	
7	0	0	0	0	534	92	
8	0	0	0	0	537	92	
9	0	0	0	0	539	94	
10	0	0	0	0	540	94	
11	0	0	0	0	542	94	
12	0	0	0	0	543	94	
13	0	0	0	0	545	94	
14	0	0	0	0	545	94	
15	0	0	0	0	543	94	
0	0	0	0	0	541	93	
1	0	0	0	0	539	93	
2	0	0	0	0	539	93	
3	0	0	0	0	537	93	
4	0	0	0	0	536	92	
5	0	0	0	0	535	92	
6	0	0	0	0	535	93	
7	0	0	0	0	535	93	
8	0	0	0	0	536	94	
9	0	0	0	0	537	94	
10	0	0	0	0	538	94	
11	0	0	0	0	540	94	
12	0	0	0	0	541	94	
13	0	0	0	0	542	93	
14	0	0	0	0	543	92	
15	0	0	0	0	542	92	
0	0	0	0	0	540	92	
1	0	0	0	0	538	92	
2	0	0	0	0	537	93	
3	0	0	0	0	534	93	
4	0	0	0	0	531	94	
5	0	0	0	0	528	94	
6	0	0	0	0	527	94	
7	0	0	0	0	529	93	
8	0	0	0	0	531	93	
9	0	0	0	0	534	92	
10	0	0	0	0	537	93	
11	0	0	0	0	539	94	
12	0	0	0	0	540	94	
13	0	0	0	0	543	94	
14	0	0	0	0	544	94	
15	0	0	0	0	544	94	
0	0	0	0	0	543	94	
1	0	0	0	0	541	94	
2	0	0	0	0	539	94	
3	0	0	0	0	536	94	
4	0	0	0	0	534	94	
5	0	0	0	0	531	94	
6	0	0	0	0	529	94	
7	0	0	0	0	528	93	
8	0	0	0	0	529	92	
9	0	0	0	0	531	92	
10	0	0	0	0	532	93	
11	0	0	0	0	533	94	
12	0	0	0	0	535	94	
13	0	0	0	0	537	94	
14	0	0	0	0	537	94	
15	0	0	0	0	537	94	
0	0	0	0	0	536	94	
1	0	0	0	0	535	93	
2	0	0	0	0	535	93	
3	0	0	0	0	533	93	
4	0	0	0	0	531	93	
5	0	0	0	0	529	93	
6	0	0	0	0	526	92	
7	0	0	0	0	525	93	
8	0	0	0	0	524	94	
9	0	0	0	0	524	94	
10	0	0	0	0	526	94	
11	0	0	0	0	529	94	
12	0	0	0	0	533	94	
13	0	0	0	0	536	93	
14	0	0	0	0	536	92	
15	0	0	0	0	537	92	
0	0	0	0	0	537	93	
1	0	0	0	0	536	93	
2	0	0	0	0	535	94	
3	0	0	0	0	534	94	
4	0	0	0	0	532	94	
5	0	0	0	0	532	93	
6	0	0	0	0	532	92	
7	0	0	0	0	533	94	
8	0	0	0	0	535	94	
9	0	0	0	0	537	94	
10	0	0	0	0	540	94	
11	0	0	0	0	543	94	
12	0	0	0	0	549	94	
13	0	0	0	0	557	94	
14	0	0	0	0	563	94	
15	0	0	0	0	568	94	
0	0	0	0	0	571	93	
1	0	0	0	0	574	92	
2	0	0	0	0	574	92	
3	0	0	0	0	575	92	
4	0	0	0	0	577	93	
5	0	0	0	0	576	94	
6	0	0	0	0	572	94	
7	0	0	0	0	568	94	
8	0	0	0	0	565	94	
9	0	0	0	0	561	94	
10	0	0	0	0	557	94	
11	0	0	0	0	554	94	
12	0	0	0	0	551	94	
13	0	0	0	0	548	94	
14	0	0	0	0	543	94	
15	0	0	0	0	539	94	
0	0	0	0	0	536	94	
1	0	0	0	0	534	94	
2	0	0	0	0	529	94	
3	0	0	0	0	524	93	
4	0	0	0	0	516	92	
5	0	0	0	0	508	94	
6	0	0	0	0	500	94	
7	0	0	0	0	496	94	
8	0	0	0	0	491	94	
9	0	0	0	0	488	94	
10	0	0	0	0	485	94	
11	0	0	0	0	483	93	
12	0	0	0	0	483	93	
13	0	0	0	0	483	93	
14	0	0	0	0	482	93	
15	0	0	0	0	480	93	
0	0	0	0	0	476	93	
1	0	0	0	0	471	93	
