# OpenSignals Text File Format. Version 1
# {"98:D3:B1:FD:3D:90": {"position": 0, "device": "bitalino_rev", "device name": "98:D3:B1:FD:3D:90", "device connection": "/dev/tty.BITalino-DevB", "sampling rate": 1000, "resolution": [4, 1, 1, 1, 1, 10, 10], "firmware version": 1281, "comments": "", "keywords": "", "mode": 0, "sync interval": 2, "date": "2022-4-10", "time": "22:58:28.610", "channels": [2, 3], "sensor": ["ECGBIT", "EDABITREV"], "label": ["A2", "A3"], "column": ["nSeq", "I1", "I2", "O1", "O2", "A2", "A3"], "special": [{}, {}], "digital IO": [0, 0, 1, 1]}}
# EndOfHeader
0	0	0	0	0	531	148	
1	0	0	0	0	534	147	
2	0	0	0	0	535	147	
3	0	0	0	0	535	147	
4	0	0	0	0	534	148	
5	0	0	0	0	535	148	
6	0	0	0	0	533	147	
7	0	0	0	0	534	147	
8	0	0	0	0	534	148	
9	0	0	0	0	533	148	
10	0	0	0	0	531	148	
11	0	0	0	0	528	147	
12	0	0	0	0	525	147	
13	0	0	0	0	521	148	
14	0	0	0	0	517	148	
15	0	0	0	0	513	148	
0	0	0	0	0	511	147	
1	0	0	0	0	512	147	
2	0	0	0	0	517	148	
3	0	0	0	0	520	148	
4	0	0	0	0	522	147	
5	0	0	0	0	524	147	
6	0	0	0	0	525	148	
7	0	0	0	0	527	148	
8	0	0	0	0	528	148	
9	0	0	0	0	529	147	
10	0	0	0	0	529	148	
11	0	0	0	0	528	148	
12	0	0	0	0	525	147	
13	0	0	0	0	521	147	
14	0	0	0	0	519	148	
15	0	0	0	0	516	148	
0	0	0	0	0	514	147	
1	0	0	0	0	513	147	
2	0	0	0	0	512	147	
3	0	0	0	0	512	148	
4	0	0	0	0	512	148	
5	0	0	0	0	513	148	
6	0	0	0	0	516	147	
7	0	0	0	0	519	148	
8	0	0	0	0	521	148	
9	0	0	0	0	523	147	
10	0	0	0	0	523	147	
11	0	0	0	0	523	147	
12	0	0	0	0	521	148	
13	0	0	0	0	521	148	
14	0	0	0	0	519	148	
15	0	0	0	0	517	147	
0	0	0	0	0	515	147	
1	0	0	0	0	513	148	
2	0	0	0	0	512	148	
3	0	0	0	0	512	148	
4	0	0	0	0	513	147	
5	0	0	0	0	514	147	
6	0	0	0	0	515	148	
7	0	0	0	0	519	148	
8	0	0	0	0	521	148	
9	0	0	0	0	524	147	
10	0	0	0	0	527	147	
11	0	0	0	0	527	148	
12	0	0	0	0	526	148	
13	0	0	0	0	524	147	
14	0	0	0	0	522	147	
15	0	0	0	0	521	148	
0	0	0	0	0	521	148	
1	0	0	0	0	521	148	
2	0	0	0	0	518	147	
3	0	0	0	0	516	148	
4	0	0	0	0	518	148	
5	0	0	0	0	520	148	
6	0	0	0	0	522	148	
7	0	0	0	0	524	147	
8	0	0	0	0	524	148	
9	0	0	0	0	526	148	
10	0	0	0	0	529	148	
11	0	0	0	0	531	147	
12	0	0	0	0	531	147	
13	0	0	0	0	529	147	
14	0	0	0	0	527	148	
15	0	0	0	0	525	148	
0	0	0	0	0	523	148	
1	0	0	0	0	519	147	
2	0	0	0	0	517	147	
3	0	0	0	0	515	148	
4	0	0	0	0	514	148	
5	0	0	0	0	514	148	
6	0	0	0	0	514	147	
7	0	0	0	0	515	148	
8	0	0	0	0	518	148	
9	0	0	0	0	521	147	
10	0	0	0	0	524	147	
11	0	0	0	0	525	147	
12	0	0	0	0	525	148	
13	0	0	0	0	525	148	
14	0	0	0	0	524	148	
15	0	0	0	0	522	147	
0	0	0	0	0	519	147	
1	0	0	0	0	516	148	
2	0	0	0	0	513	148	
3	0	0	0	0	512	148	
4	0	0	0	0	511	148	
5	0	0	0	0	511	147	
6	0	0	0	0	511	148	
7	0	0	0	0	512	148	
8	0	0	0	0	514	148	
9	0	0	0	0	517	148	
10	0	0	0	0	520	147	
11	0	0	0	0	524	148	
12	0	0	0	0	526	148	
13	0	0	0	0	527	148	
14	0	0	0	0	528	148	
15	0	0	0	0	528	147	
0	0	0	0	0	527	147	
1	0	0	0	0	524	148	
2	0	0	0	0	522	148	
3	0	0	0	0	520	148	
4	0	0	0	0	518	148	
5	0	0	0	0	516	147	
6	0	0	0	0	516	147	
7	0	0	0	0	518	148	
8	0	0	0	0	521	148	
9	0	0	0	0	524	148	
10	0	0	0	0	527	147	
11	0	0	0	0	530	147	
12	0	0	0	0	531	148	
13	0	0	0	0	531	148	
14	0	0	0	0	531	148	
15	0	0	0	0	529	147	
0	0	0	0	0	527	147	
1	0	0	0	0	524	148	
2	0	0	0	0	522	148	
3	0	0	0	0	519	148	
4	0	0	0	0	517	147	
5	0	0	0	0	514	147	
6	0	0	0	0	513	148	
7	0	0	0	0	513	148	
8	0	0	0	0	512	148	
9	0	0	0	0	514	148	
10	0	0	0	0	516	147	
11	0	0	0	0	519	148	
12	0	0	0	0	521	148	
13	0	0	0	0	522	148	
14	0	0	0	0	521	147	
15	0	0	0	0	520	147	
0	0	0	0	0	519	148	
1	0	0	0	0	518	148	
2	0	0	0	0	516	148	
3	0	0	0	0	516	148	
4	0	0	0	0	515	147	
5	0	0	0	0	513	147	
6	0	0	0	0	512	148	
7	0	0	0	0	512	148	
8	0	0	0	0	512	148	
9	0	0	0	0	514	148	
10	0	0	0	0	516	147	
11	0	0	0	0	521	147	
12	0	0	0	0	525	148	
13	0	0	0	0	527	148	
14	0	0	0	0	527	148	
15	0	0	0	0	527	147	
0	0	0	0	0	527	147	
1	0	0	0	0	527	148	
2	0	0	0	0	524	148	
3	0	0	0	0	521	148	
4	0	0	0	0	518	148	
5	0	0	0	0	514	147	
6	0	0	0	0	510	148	
7	0	0	0	0	507	148	
8	0	0	0	0	506	148	
9	0	0	0	0	507	147	
10	0	0	0	0	508	149	
11	0	0	0	0	511	148	
12	0	0	0	0	515	148	
13	0	0	0	0	519	148	
14	0	0	0	0	523	147	
15	0	0	0	0	524	148	
0	0	0	0	0	525	148	
1	0	0	0	0	524	147	
2	0	0	0	0	522	148	
3	0	0	0	0	519	148	
4	0	0	0	0	518	148	
5	0	0	0	0	515	147	
6	0	0	0	0	514	148	
7	0	0	0	0	513	148	
8	0	0	0	0	514	148	
9	0	0	0	0	514	148	
10	0	0	0	0	515	147	
11	0	0	0	0	518	148	
12	0	0	0	0	521	148	
13	0	0	0	0	524	148	
14	0	0	0	0	528	148	
15	0	0	0	0	531	147	
0	0	0	0	0	534	148	
1	0	0	0	0	535	148	
2	0	0	0	0	533	147	
3	0	0	0	0	531	148	
4	0	0	0	0	528	148	
5	0	0	0	0	526	148	
6	0	0	0	0	524	148	
7	0	0	0	0	523	147	
8	0	0	0	0	521	148	
9	0	0	0	0	521	148	
10	0	0	0	0	522	148	
11	0	0	0	0	525	148	
12	0	0	0	0	528	147	
13	0	0	0	0	533	148	
14	0	0	0	0	538	148	
15	0	0	0	0	542	148	
0	0	0	0	0	547	147	
1	0	0	0	0	550	148	
2	0	0	0	0	551	148	
3	0	0	0	0	552	147	
4	0	0	0	0	551	147	
5	0	0	0	0	549	148	
6	0	0	0	0	544	148	
7	0	0	0	0	541	148	
8	0	0	0	0	537	147	
9	0	0	0	0	533	148	
10	0	0	0	0	529	148	
11	0	0	0	0	526	148	
12	0	0	0	0	524	147	
13	0	0	0	0	523	148	
14	0	0	0	0	521	148	
15	0	0	0	0	518	148	
0	0	0	0	0	515	148	
1	0	0	0	0	514	147	
2	0	0	0	0	513	149	
3	0	0	0	0	510	148	
4	0	0	0	0	506	148	
5	0	0	0	0	500	148	
6	0	0	0	0	494	148	
7	0	0	0	0	488	148	
8	0	0	0	0	483	148	
9	0	0	0	0	478	148	
10	0	0	0	0	474	148	
11	0	0	0	0	471	149	
12	0	0	0	0	468	148	
13	0	0	0	0	465	148	
14	0	0	0	0	463	148	
15	0	0	0	0	460	148	
0	0	0	0	0	458	149	
1	0	0	0	0	456	148	
2	0	0	0	0	452	148	
3	0	0	0	0	447	148	
4	0	0	0	0	441	148	
5	0	0	0	0	436	148	
6	0	0	0	0	432	148	
7	0	0	0	0	430	149	
8	0	0	0	0	430	149	
9	0	0	0	0	432	148	
10	0	0	0	0	434	149	
11	0	0	0	0	438	148	
12	0	0	0	0	442	148	
13	0	0	0	0	445	148	
14	0	0	0	0	449	148	
15	0	0	0	0	455	149	
0	0	0	0	0	463	148	
1	0	0	0	0	474	148	
2	0	0	0	0	485	148	
3	0	0	0	0	490	148	
4	0	0	0	0	492	149	
5	0	0	0	0	494	148	
6	0	0	0	0	496	148	
7	0	0	0	0	498	148	
8	0	0	0	0	497	148	
9	0	0	0	0	493	149	
10	0	0	0	0	485	148	
11	0	0	0	0	478	148	
12	0	0	0	0	474	148	
13	0	0	0	0	471	148	
14	0	0	0	0	468	149	
15	0	0	0	0	467	148	
0	0	0	0	0	467	148	
1	0	0	0	0	471	148	
2	0	0	0	0	477	149	
3	0	0	0	0	487	148	
4	0	0	0	0	497	148	
5	0	0	0	0	509	148	
6	0	0	0	0	514	148	
7	0	0	0	0	512	148	
8	0	0	0	0	505	148	
9	0	0	0	0	496	148	
10	0	0	0	0	489	148	
11	0	0	0	0	486	148	
12	0	0	0	0	486	148	
13	0	0	0	0	486	149	
14	0	0	0	0	487	148	
15	0	0	0	0	492	148	
0	0	0	0	0	497	148	
1	0	0	0	0	500	148	
2	0	0	0	0	504	148	
3	0	0	0	0	508	148	
4	0	0	0	0	511	148	
5	0	0	0	0	511	149	
6	0	0	0	0	504	148	
7	0	0	0	0	494	148	
8	0	0	0	0	484	148	
9	0	0	0	0	478	148	
10	0	0	0	0	473	149	
11	0	0	0	0	472	148	
12	0	0	0	0	475	148	
13	0	0	0	0	481	148	
14	0	0	0	0	487	148	
15	0	0	0	0	492	148	
0	0	0	0	0	495	148	
1	0	0	0	0	498	148	
2	0	0	0	0	502	148	
3	0	0	0	0	504	148	
4	0	0	0	0	504	148	
5	0	0	0	0	503	149	
6	0	0	0	0	503	149	
7	0	0	0	0	502	148	
8	0	0	0	0	500	148	
9	0	0	0	0	497	148	
10	0	0	0	0	495	149	
11	0	0	0	0	492	149	
12	0	0	0	0	490	148	
13	0	0	0	0	487	148	
14	0	0	0	0	487	148	
15	0	0	0	0	489	149	
0	0	0	0	0	492	149	
1	0	0	0	0	496	148	
2	0	0	0	0	500	148	
3	0	0	0	0	504	149	
4	0	0	0	0	508	148	
5	0	0	0	0	511	148	
6	0	0	0	0	514	148	
7	0	0	0	0	516	148	
8	0	0	0	0	515	149	
9	0	0	0	0	510	148	
10	0	0	0	0	504	148	
11	0	0	0	0	499	148	
12	0	0	0	0	496	148	
13	0	0	0	0	495	148	
14	0	0	0	0	495	149	
15	0	0	0	0	496	149	
0	0	0	0	0	499	148	
1	0	0	0	0	503	148	
2	0	0	0	0	506	148	
3	0	0	0	0	509	148	
4	0	0	0	0	513	148	
5	0	0	0	0	518	149	
6	0	0	0	0	521	148	
7	0	0	0	0	521	148	
8	0	0	0	0	516	148	
9	0	0	0	0	509	148	
10	0	0	0	0	501	148	
11	0	0	0	0	494	149	
12	0	0	0	0	488	148	
13	0	0	0	0	486	148	
14	0	0	0	0	483	148	
15	0	0	0	0	481	149	
0	0	0	0	0	482	149	
1	0	0	0	0	487	149	
2	0	0	0	0	495	148	
3	0	0	0	0	507	148	
4	0	0	0	0	523	149	
5	0	0	0	0	540	148	
6	0	0	0	0	548	148	
7	0	0	0	0	548	148	
8	0	0	0	0	543	148	
9	0	0	0	0	536	148	
10	0	0	0	0	531	148	
11	0	0	0	0	527	148	
12	0	0	0	0	521	149	
13	0	0	0	0	513	148	
14	0	0	0	0	505	148	
15	0	0	0	0	499	148	
0	0	0	0	0	501	148	
1	0	0	0	0	504	149	
2	0	0	0	0	510	148	
3	0	0	0	0	517	148	
4	0	0	0	0	525	148	
5	0	0	0	0	532	149	
6	0	0	0	0	534	148	
7	0	0	0	0	532	148	
8	0	0	0	0	528	148	
9	0	0	0	0	522	148	
10	0	0	0	0	516	149	
11	0	0	0	0	510	149	
12	0	0	0	0	504	148	
13	0	0	0	0	500	148	
14	0	0	0	0	498	149	
15	0	0	0	0	497	149	
0	0	0	0	0	499	148	
1	0	0	0	0	503	148	
2	0	0	0	0	508	148	
3	0	0	0	0	513	149	
4	0	0	0	0	519	149	
5	0	0	0	0	522	148	
6	0	0	0	0	524	148	
7	0	0	0	0	524	148	
8	0	0	0	0	525	148	
9	0	0	0	0	527	148	
10	0	0	0	0	529	148	
11	0	0	0	0	531	148	
12	0	0	0	0	532	148	
13	0	0	0	0	532	149	
14	0	0	0	0	529	148	
15	0	0	0	0	526	148	
0	0	0	0	0	521	149	
1	0	0	0	0	519	148	
2	0	0	0	0	521	148	
3	0	0	0	0	523	148	
4	0	0	0	0	526	149	
5	0	0	0	0	530	148	
6	0	0	0	0	533	148	
7	0	0	0	0	535	148	
8	0	0	0	0	537	149	
9	0	0	0	0	538	148	
10	0	0	0	0	538	148	
11	0	0	0	0	537	148	
12	0	0	0	0	535	149	
13	0	0	0	0	532	148	
14	0	0	0	0	529	148	
15	0	0	0	0	527	148	
0	0	0	0	0	526	148	
1	0	0	0	0	524	149	
2	0	0	0	0	524	149	
3	0	0	0	0	526	148	
4	0	0	0	0	527	148	
5	0	0	0	0	528	148	
6	0	0	0	0	530	149	
7	0	0	0	0	533	149	
8	0	0	0	0	536	148	
9	0	0	0	0	539	148	
10	0	0	0	0	539	148	
11	0	0	0	0	540	149	
12	0	0	0	0	538	149	
13	0	0	0	0	536	148	
14	0	0	0	0	535	148	
15	0	0	0	0	534	149	
0	0	0	0	0	531	148	
1	0	0	0	0	528	148	
2	0	0	0	0	526	148	
3	0	0	0	0	524	149	
4	0	0	0	0	524	149	
5	0	0	0	0	524	148	
6	0	0	0	0	526	148	
7	0	0	0	0	527	149	
8	0	0	0	0	531	149	
9	0	0	0	0	534	148	
10	0	0	0	0	535	148	
11	0	0	0	0	536	148	
12	0	0	0	0	537	149	
13	0	0	0	0	536	149	
14	0	0	0	0	532	148	
15	0	0	0	0	528	148	
0	0	0	0	0	525	148	
1	0	0	0	0	524	149	
2	0	0	0	0	524	149	
3	0	0	0	0	524	148	
4	0	0	0	0	522	148	
5	0	0	0	0	521	149	
6	0	0	0	0	524	149	
7	0	0	0	0	526	149	
8	0	0	0	0	529	148	
9	0	0	0	0	530	148	
10	0	0	0	0	530	149	
11	0	0	0	0	528	149	
12	0	0	0	0	527	149	
13	0	0	0	0	524	148	
14	0	0	0	0	523	148	
15	0	0	0	0	520	149	
0	0	0	0	0	518	149	
1	0	0	0	0	516	148	
2	0	0	0	0	512	148	
3	0	0	0	0	508	149	
4	0	0	0	0	505	149	
5	0	0	0	0	504	148	
6	0	0	0	0	504	148	
7	0	0	0	0	505	149	
8	0	0	0	0	507	149	
9	0	0	0	0	511	149	
10	0	0	0	0	513	148	
11	0	0	0	0	515	148	
12	0	0	0	0	516	149	
13	0	0	0	0	518	149	
14	0	0	0	0	521	149	
15	0	0	0	0	524	148	
0	0	0	0	0	526	148	
1	0	0	0	0	524	149	
2	0	0	0	0	521	149	
3	0	0	0	0	515	148	
4	0	0	0	0	511	148	
5	0	0	0	0	506	148	
6	0	0	0	0	503	149	
7	0	0	0	0	502	149	
8	0	0	0	0	503	149	
9	0	0	0	0	504	148	
10	0	0	0	0	506	148	
11	0	0	0	0	507	149	
12	0	0	0	0	508	149	
13	0	0	0	0	507	149	
14	0	0	0	0	505	148	
15	0	0	0	0	504	149	
0	0	0	0	0	503	149	
1	0	0	0	0	504	149	
2	0	0	0	0	505	148	
3	0	0	0	0	504	148	
4	0	0	0	0	501	149	
5	0	0	0	0	496	149	
6	0	0	0	0	494	149	
7	0	0	0	0	494	148	
8	0	0	0	0	496	148	
9	0	0	0	0	501	149	
10	0	0	0	0	505	149	
11	0	0	0	0	509	149	
12	0	0	0	0	513	148	
13	0	0	0	0	515	148	
14	0	0	0	0	516	149	
15	0	0	0	0	513	149	
0	0	0	0	0	507	149	
1	0	0	0	0	502	148	
2	0	0	0	0	496	148	
3	0	0	0	0	491	149	
4	0	0	0	0	485	149	
5	0	0	0	0	482	149	
6	0	0	0	0	479	148	
7	0	0	0	0	477	148	
8	0	0	0	0	479	149	
9	0	0	0	0	487	149	
10	0	0	0	0	497	149	
11	0	0	0	0	510	148	
12	0	0	0	0	519	148	
13	0	0	0	0	520	149	
14	0	0	0	0	516	149	
15	0	0	0	0	511	148	
0	0	0	0	0	508	148	
1	0	0	0	0	505	149	
2	0	0	0	0	503	149	
3	0	0	0	0	500	148	
4	0	0	0	0	499	148	
5	0	0	0	0	501	149	
6	0	0	0	0	503	149	
7	0	0	0	0	505	149	
8	0	0	0	0	504	148	
9	0	0	0	0	502	149	
10	0	0	0	0	500	149	
11	0	0	0	0	499	149	
12	0	0	0	0	500	148	
13	0	0	0	0	500	148	
14	0	0	0	0	500	149	
15	0	0	0	0	501	149	
0	0	0	0	0	499	149	
1	0	0	0	0	497	149	
2	0	0	0	0	494	148	
3	0	0	0	0	491	149	
4	0	0	0	0	487	149	
5	0	0	0	0	484	149	
6	0	0	0	0	482	149	
7	0	0	0	0	482	148	
8	0	0	0	0	483	148	
9	0	0	0	0	485	149	
10	0	0	0	0	487	149	
11	0	0	0	0	492	149	
12	0	0	0	0	498	149	
13	0	0	0	0	505	148	
14	0	0	0	0	512	149	
15	0	0	0	0	515	149	
0	0	0	0	0	514	149	
1	0	0	0	0	508	148	
2	0	0	0	0	499	149	
3	0	0	0	0	491	149	
4	0	0	0	0	486	149	
5	0	0	0	0	483	149	
6	0	0	0	0	482	148	
7	0	0	0	0	481	148	
8	0	0	0	0	482	149	
9	0	0	0	0	483	149	
10	0	0	0	0	485	149	
11	0	0	0	0	489	148	
12	0	0	0	0	493	149	
13	0	0	0	0	497	149	
14	0	0	0	0	500	149	
15	0	0	0	0	502	148	
0	0	0	0	0	503	149	
1	0	0	0	0	502	149	
2	0	0	0	0	500	149	
3	0	0	0	0	496	149	
4	0	0	0	0	494	148	
5	0	0	0	0	495	149	
6	0	0	0	0	495	149	
7	0	0	0	0	493	149	
8	0	0	0	0	491	149	
9	0	0	0	0	492	149	
10	0	0	0	0	495	148	
11	0	0	0	0	500	149	
12	0	0	0	0	503	149	
13	0	0	0	0	504	149	
14	0	0	0	0	505	148	
15	0	0	0	0	509	148	
0	0	0	0	0	510	149	
1	0	0	0	0	509	149	
2	0	0	0	0	507	149	
3	0	0	0	0	504	149	
4	0	0	0	0	499	148	
5	0	0	0	0	496	149	
6	0	0	0	0	493	149	
7	0	0	0	0	491	149	
8	0	0	0	0	490	149	
9	0	0	0	0	491	148	
10	0	0	0	0	493	149	
11	0	0	0	0	494	149	
12	0	0	0	0	495	149	
13	0	0	0	0	495	149	
14	0	0	0	0	494	149	
15	0	0	0	0	492	148	
0	0	0	0	0	491	149	
1	0	0	0	0	489	149	
2	0	0	0	0	488	149	
3	0	0	0	0	487	148	
4	0	0	0	0	487	149	
5	0	0	0	0	490	149	
6	0	0	0	0	494	149	
7	0	0	0	0	495	149	
8	0	0	0	0	492	149	
9	0	0	0	0	484	148	
10	0	0	0	0	478	149	
11	0	0	0	0	475	149	
12	0	0	0	0	476	149	
13	0	0	0	0	479	149	
14	0	0	0	0	483	148	
15	0	0	0	0	486	150	
0	0	0	0	0	488	149	
1	0	0	0	0	491	149	
2	0	0	0	0	490	149	
3	0	0	0	0	488	149	
4	0	0	0	0	486	149	
5	0	0	0	0	484	149	
6	0	0	0	0	483	149	
7	0	0	0	0	485	149	
8	0	0	0	0	487	148	
9	0	0	0	0	491	150	
10	0	0	0	0	492	149	
11	0	0	0	0	493	149	
12	0	0	0	0	492	149	
13	0	0	0	0	494	148	
14	0	0	0	0	496	149	
15	0	0	0	0	496	149	
0	0	0	0	0	493	149	
1	0	0	0	0	491	149	
2	0	0	0	0	489	149	
3	0	0	0	0	488	149	
4	0	0	0	0	486	149	
5	0	0	0	0	484	149	
6	0	0	0	0	483	149	
7	0	0	0	0	480	149	
8	0	0	0	0	476	150	
9	0	0	0	0	473	149	
10	0	0	0	0	473	149	
11	0	0	0	0	474	149	
12	0	0	0	0	475	149	
13	0	0	0	0	476	150	
14	0	0	0	0	477	149	
15	0	0	0	0	479	149	
0	0	0	0	0	480	150	
1	0	0	0	0	481	149	
2	0	0	0	0	480	149	
3	0	0	0	0	479	148	
4	0	0	0	0	478	149	
5	0	0	0	0	476	149	
6	0	0	0	0	473	149	
7	0	0	0	0	471	149	
8	0	0	0	0	470	149	
9	0	0	0	0	472	150	
10	0	0	0	0	476	149	
11	0	0	0	0	480	149	
12	0	0	0	0	486	149	
13	0	0	0	0	489	150	
14	0	0	0	0	488	149	
15	0	0	0	0	485	149	
0	0	0	0	0	483	149	
1	0	0	0	0	484	149	
2	0	0	0	0	485	149	
3	0	0	0	0	485	149	
4	0	0	0	0	483	149	
5	0	0	0	0	480	149	
6	0	0	0	0	477	150	
7	0	0	0	0	475	149	
8	0	0	0	0	473	149	
9	0	0	0	0	472	149	
10	0	0	0	0	472	149	
11	0	0	0	0	475	150	
12	0	0	0	0	481	149	
13	0	0	0	0	486	149	
14	0	0	0	0	488	149	
15	0	0	0	0	487	149	
0	0	0	0	0	485	149	
1	0	0	0	0	484	149	
2	0	0	0	0	485	149	
3	0	0	0	0	485	149	
4	0	0	0	0	487	149	
5	0	0	0	0	490	149	
6	0	0	0	0	493	149	
7	0	0	0	0	496	149	
8	0	0	0	0	499	149	
9	0	0	0	0	502	149	
10	0	0	0	0	502	149	
11	0	0	0	0	500	149	
12	0	0	0	0	497	149	
13	0	0	0	0	495	150	
14	0	0	0	0	493	149	
15	0	0	0	0	492	149	
0	0	0	0	0	494	149	
1	0	0	0	0	497	149	
2	0	0	0	0	500	149	
3	0	0	0	0	503	149	
4	0	0	0	0	503	149	
5	0	0	0	0	500	149	
6	0	0	0	0	499	149	
7	0	0	0	0	497	149	
8	0	0	0	0	492	150	
9	0	0	0	0	486	149	
10	0	0	0	0	481	149	
11	0	0	0	0	478	149	
12	0	0	0	0	475	149	
13	0	0	0	0	474	150	
14	0	0	0	0	474	150	
15	0	0	0	0	475	150	
0	0	0	0	0	477	149	
1	0	0	0	0	481	149	
2	0	0	0	0	487	149	
3	0	0	0	0	494	150	
4	0	0	0	0	502	149	
5	0	0	0	0	508	149	
6	0	0	0	0	512	149	
7	0	0	0	0	515	149	
8	0	0	0	0	515	149	
9	0	0	0	0	512	149	
10	0	0	0	0	506	149	
11	0	0	0	0	500	149	
12	0	0	0	0	498	149	
13	0	0	0	0	501	150	
14	0	0	0	0	504	149	
15	0	0	0	0	508	149	
0	0	0	0	0	509	149	
1	0	0	0	0	510	150	
2	0	0	0	0	509	150	
3	0	0	0	0	511	149	
4	0	0	0	0	513	149	
5	0	0	0	0	514	149	
6	0	0	0	0	514	150	
7	0	0	0	0	514	150	
8	0	0	0	0	512	150	
9	0	0	0	0	510	150	
10	0	0	0	0	507	149	
11	0	0	0	0	503	149	
12	0	0	0	0	499	149	
13	0	0	0	0	497	150	
14	0	0	0	0	496	150	
15	0	0	0	0	496	149	
0	0	0	0	0	497	149	
1	0	0	0	0	501	150	
2	0	0	0	0	505	150	
3	0	0	0	0	510	149	
4	0	0	0	0	513	149	
5	0	0	0	0	516	150	
6	0	0	0	0	517	149	
7	0	0	0	0	517	149	
8	0	0	0	0	517	149	
9	0	0	0	0	515	149	
10	0	0	0	0	513	150	
11	0	0	0	0	511	149	
12	0	0	0	0	509	149	
13	0	0	0	0	508	149	
14	0	0	0	0	506	150	
15	0	0	0	0	506	150	
0	0	0	0	0	506	149	
1	0	0	0	0	508	149	
2	0	0	0	0	511	150	
3	0	0	0	0	514	149	
4	0	0	0	0	519	149	
5	0	0	0	0	523	149	
6	0	0	0	0	526	150	
7	0	0	0	0	527	149	
8	0	0	0	0	527	149	
9	0	0	0	0	527	149	
10	0	0	0	0	523	150	
11	0	0	0	0	519	149	
12	0	0	0	0	516	149	
13	0	0	0	0	513	149	
14	0	0	0	0	512	150	
15	0	0	0	0	512	150	
0	0	0	0	0	513	149	
1	0	0	0	0	515	150	
2	0	0	0	0	516	150	
3	0	0	0	0	519	150	
4	0	0	0	0	522	149	
5	0	0	0	0	524	149	
6	0	0	0	0	527	150	
7	0	0	0	0	528	150	
8	0	0	0	0	531	149	
9	0	0	0	0	530	149	
10	0	0	0	0	529	150	
11	0	0	0	0	527	150	
12	0	0	0	0	524	150	
13	0	0	0	0	520	149	
14	0	0	0	0	516	149	
15	0	0	0	0	513	149	
0	0	0	0	0	510	150	
1	0	0	0	0	509	150	
2	0	0	0	0	509	149	
3	0	0	0	0	511	149	
4	0	0	0	0	515	149	
5	0	0	0	0	522	150	
6	0	0	0	0	533	149	
7	0	0	0	0	543	149	
8	0	0	0	0	547	149	
9	0	0	0	0	544	150	
10	0	0	0	0	539	150	
11	0	0	0	0	536	149	
12	0	0	0	0	536	149	
13	0	0	0	0	534	149	
14	0	0	0	0	532	150	
15	0	0	0	0	528	150	
0	0	0	0	0	524	149	
1	0	0	0	0	523	149	
2	0	0	0	0	522	149	
3	0	0	0	0	524	150	
4	0	0	0	0	526	150	
5	0	0	0	0	528	149	
6	0	0	0	0	529	150	
7	0	0	0	0	534	150	
8	0	0	0	0	539	149	
9	0	0	0	0	542	149	
10	0	0	0	0	543	149	
11	0	0	0	0	544	150	
12	0	0	0	0	545	150	
13	0	0	0	0	543	149	
14	0	0	0	0	537	149	
15	0	0	0	0	528	150	
0	0	0	0	0	521	150	
1	0	0	0	0	518	150	
2	0	0	0	0	518	149	
3	0	0	0	0	522	149	
4	0	0	0	0	525	150	
5	0	0	0	0	527	150	
6	0	0	0	0	529	149	
7	0	0	0	0	530	149	
8	0	0	0	0	530	150	
9	0	0	0	0	529	150	
10	0	0	0	0	529	150	
11	0	0	0	0	528	149	
12	0	0	0	0	527	149	
13	0	0	0	0	525	149	
14	0	0	0	0	524	150	
15	0	0	0	0	521	150	
0	0	0	0	0	519	149	
1	0	0	0	0	516	149	
2	0	0	0	0	516	150	
3	0	0	0	0	517	150	
4	0	0	0	0	520	150	
5	0	0	0	0	522	149	
6	0	0	0	0	526	149	
7	0	0	0	0	529	149	
8	0	0	0	0	532	150	
9	0	0	0	0	534	150	
10	0	0	0	0	535	149	
11	0	0	0	0	535	149	
12	0	0	0	0	536	150	
13	0	0	0	0	536	150	
14	0	0	0	0	534	150	
15	0	0	0	0	531	149	
0	0	0	0	0	528	149	
1	0	0	0	0	526	150	
2	0	0	0	0	524	150	
3	0	0	0	0	523	149	
4	0	0	0	0	523	149	
5	0	0	0	0	524	150	
6	0	0	0	0	525	150	
7	0	0	0	0	528	149	
8	0	0	0	0	532	149	
9	0	0	0	0	536	149	
10	0	0	0	0	539	150	
11	0	0	0	0	542	150	
12	0	0	0	0	542	149	
13	0	0	0	0	541	149	
14	0	0	0	0	538	149	
15	0	0	0	0	534	150	
0	0	0	0	0	530	150	
1	0	0	0	0	527	149	
2	0	0	0	0	525	149	
3	0	0	0	0	523	149	
4	0	0	0	0	522	150	
5	0	0	0	0	523	150	
6	0	0	0	0	524	150	
7	0	0	0	0	525	149	
8	0	0	0	0	527	149	
9	0	0	0	0	529	150	
10	0	0	0	0	532	150	
11	0	0	0	0	533	150	
12	0	0	0	0	533	149	
13	0	0	0	0	531	149	
14	0	0	0	0	529	149	
15	0	0	0	0	526	150	
0	0	0	0	0	523	150	
1	0	0	0	0	519	150	
2	0	0	0	0	515	149	
3	0	0	0	0	511	149	
4	0	0	0	0	509	150	
5	0	0	0	0	508	150	
6	0	0	0	0	509	150	
7	0	0	0	0	511	149	
8	0	0	0	0	513	149	
9	0	0	0	0	516	150	
10	0	0	0	0	519	150	
11	0	0	0	0	521	150	
12	0	0	0	0	523	149	
13	0	0	0	0	523	149	
14	0	0	0	0	522	150	
15	0	0	0	0	519	150	
0	0	0	0	0	517	150	
1	0	0	0	0	515	150	
2	0	0	0	0	513	149	
3	0	0	0	0	511	150	
4	0	0	0	0	510	150	
5	0	0	0	0	508	149	
6	0	0	0	0	508	150	
7	0	0	0	0	508	150	
8	0	0	0	0	510	150	
9	0	0	0	0	512	149	
10	0	0	0	0	514	149	
11	0	0	0	0	517	150	
12	0	0	0	0	519	150	
13	0	0	0	0	521	150	
14	0	0	0	0	520	149	
15	0	0	0	0	518	150	
0	0	0	0	0	516	150	
1	0	0	0	0	514	150	
2	0	0	0	0	512	150	
3	0	0	0	0	511	149	
4	0	0	0	0	509	150	
5	0	0	0	0	508	150	
6	0	0	0	0	508	150	
7	0	0	0	0	509	150	
8	0	0	0	0	510	149	
9	0	0	0	0	512	150	
10	0	0	0	0	515	150	
11	0	0	0	0	518	150	
12	0	0	0	0	520	149	
13	0	0	0	0	523	149	
14	0	0	0	0	525	150	
15	0	0	0	0	525	150	
0	0	0	0	0	524	149	
1	0	0	0	0	521	149	
2	0	0	0	0	519	150	
3	0	0	0	0	519	150	
4	0	0	0	0	518	149	
5	0	0	0	0	518	149	
6	0	0	0	0	517	150	
7	0	0	0	0	517	150	
8	0	0	0	0	519	150	
9	0	0	0	0	520	149	
10	0	0	0	0	523	149	
11	0	0	0	0	526	150	
12	0	0	0	0	528	150	
13	0	0	0	0	529	150	
14	0	0	0	0	529	149	
15	0	0	0	0	528	149	
0	0	0	0	0	527	150	
1	0	0	0	0	526	150	
2	0	0	0	0	523	150	
3	0	0	0	0	519	149	
4	0	0	0	0	515	149	
5	0	0	0	0	512	150	
6	0	0	0	0	510	150	
7	0	0	0	0	510	150	
8	0	0	0	0	511	150	
9	0	0	0	0	512	149	
10	0	0	0	0	515	150	
11	0	0	0	0	517	150	
12	0	0	0	0	520	150	
13	0	0	0	0	524	149	
14	0	0	0	0	526	150	
15	0	0	0	0	527	150	
0	0	0	0	0	526	150	
1	0	0	0	0	526	150	
2	0	0	0	0	524	149	
3	0	0	0	0	522	149	
4	0	0	0	0	519	150	
5	0	0	0	0	515	150	
6	0	0	0	0	513	150	
7	0	0	0	0	511	149	
8	0	0	0	0	508	150	
9	0	0	0	0	508	150	
10	0	0	0	0	509	150	
11	0	0	0	0	512	149	
12	0	0	0	0	514	150	
13	0	0	0	0	516	150	
14	0	0	0	0	518	150	
15	0	0	0	0	518	150	
0	0	0	0	0	518	149	
1	0	0	0	0	517	150	
2	0	0	0	0	513	150	
3	0	0	0	0	511	150	
4	0	0	0	0	507	149	
5	0	0	0	0	504	150	
6	0	0	0	0	501	150	
7	0	0	0	0	499	150	
8	0	0	0	0	500	150	
9	0	0	0	0	504	150	
10	0	0	0	0	508	150	
11	0	0	0	0	513	150	
12	0	0	0	0	520	150	
13	0	0	0	0	527	149	
14	0	0	0	0	529	150	
15	0	0	0	0	527	150	
0	0	0	0	0	525	150	
1	0	0	0	0	522	149	
2	0	0	0	0	519	150	
3	0	0	0	0	517	150	
4	0	0	0	0	516	150	
5	0	0	0	0	515	150	
6	0	0	0	0	513	149	
7	0	0	0	0	512	150	
8	0	0	0	0	510	150	
9	0	0	0	0	509	149	
10	0	0	0	0	508	150	
11	0	0	0	0	509	150	
12	0	0	0	0	510	149	
13	0	0	0	0	512	150	
14	0	0	0	0	515	150	
15	0	0	0	0	517	149	
0	0	0	0	0	517	150	
1	0	0	0	0	517	150	
2	0	0	0	0	514	149	
3	0	0	0	0	510	150	
4	0	0	0	0	506	150	
5	0	0	0	0	501	150	
6	0	0	0	0	499	149	
7	0	0	0	0	498	150	
8	0	0	0	0	501	150	
9	0	0	0	0	505	150	
10	0	0	0	0	510	149	
11	0	0	0	0	513	150	
12	0	0	0	0	514	150	
13	0	0	0	0	518	149	
14	0	0	0	0	526	150	
15	0	0	0	0	539	150	
0	0	0	0	0	550	150	
1	0	0	0	0	553	149	
2	0	0	0	0	547	150	
3	0	0	0	0	536	150	
4	0	0	0	0	526	149	
5	0	0	0	0	515	150	
6	0	0	0	0	507	150	
7	0	0	0	0	502	150	
8	0	0	0	0	500	149	
9	0	0	0	0	499	150	
10	0	0	0	0	499	150	
11	0	0	0	0	499	150	
12	0	0	0	0	498	150	
13	0	0	0	0	498	150	
14	0	0	0	0	500	150	
15	0	0	0	0	504	149	
0	0	0	0	0	509	150	
1	0	0	0	0	513	150	
2	0	0	0	0	515	150	
3	0	0	0	0	514	150	
4	0	0	0	0	511	150	
5	0	0	0	0	508	150	
6	0	0	0	0	505	150	
7	0	0	0	0	503	150	
8	0	0	0	0	503	150	
9	0	0	0	0	508	150	
10	0	0	0	0	515	150	
11	0	0	0	0	523	150	
12	0	0	0	0	528	150	
13	0	0	0	0	530	149	
14	0	0	0	0	530	150	
15	0	0	0	0	531	150	
0	0	0	0	0	531	150	
1	0	0	0	0	533	150	
2	0	0	0	0	535	150	
3	0	0	0	0	534	150	
4	0	0	0	0	530	149	
5	0	0	0	0	525	150	
6	0	0	0	0	521	150	
7	0	0	0	0	517	149	
8	0	0	0	0	515	150	
9	0	0	0	0	513	150	
10	0	0	0	0	513	150	
11	0	0	0	0	513	150	
12	0	0	0	0	515	150	
13	0	0	0	0	519	151	
14	0	0	0	0	523	150	
15	0	0	0	0	524	149	
0	0	0	0	0	527	150	
1	0	0	0	0	531	150	
2	0	0	0	0	536	150	
3	0	0	0	0	541	150	
4	0	0	0	0	545	150	
5	0	0	0	0	547	150	
6	0	0	0	0	547	149	
7	0	0	0	0	547	150	
8	0	0	0	0	544	150	
9	0	0	0	0	540	150	
10	0	0	0	0	540	150	
11	0	0	0	0	541	150	
12	0	0	0	0	544	150	
13	0	0	0	0	547	149	
14	0	0	0	0	551	150	
15	0	0	0	0	554	150	
0	0	0	0	0	558	149	
1	0	0	0	0	562	150	
2	0	0	0	0	564	150	
3	0	0	0	0	565	149	
4	0	0	0	0	565	150	
5	0	0	0	0	562	150	
6	0	0	0	0	558	150	
7	0	0	0	0	551	149	
8	0	0	0	0	545	150	
9	0	0	0	0	539	150	
10	0	0	0	0	531	150	
11	0	0	0	0	524	150	
12	0	0	0	0	517	150	
13	0	0	0	0	512	150	
14	0	0	0	0	511	150	
15	0	0	0	0	510	150	
0	0	0	0	0	508	150	
1	0	0	0	0	506	150	
2	0	0	0	0	504	150	
3	0	0	0	0	502	150	
4	0	0	0	0	499	150	
5	0	0	0	0	496	151	
6	0	0	0	0	494	150	
7	0	0	0	0	492	150	
8	0	0	0	0	488	151	
9	0	0	0	0	484	150	
10	0	0	0	0	480	150	
11	0	0	0	0	474	150	
12	0	0	0	0	468	151	
13	0	0	0	0	462	150	
14	0	0	0	0	457	150	
15	0	0	0	0	454	150	
0	0	0	0	0	454	151	
1	0	0	0	0	457	150	
2	0	0	0	0	459	150	
3	0	0	0	0	464	151	
4	0	0	0	0	470	151	
5	0	0	0	0	474	150	
6	0	0	0	0	478	150	
7	0	0	0	0	481	150	
8	0	0	0	0	483	150	
9	0	0	0	0	484	150	
10	0	0	0	0	484	151	
11	0	0	0	0	483	150	
12	0	0	0	0	483	150	
13	0	0	0	0	483	150	
14	0	0	0	0	484	150	
15	0	0	0	0	485	150	
0	0	0	0	0	489	150	
1	0	0	0	0	493	151	
2	0	0	0	0	496	150	
3	0	0	0	0	500	150	
4	0	0	0	0	505	151	
5	0	0	0	0	507	150	
6	0	0	0	0	512	150	
7	0	0	0	0	514	150	
8	0	0	0	0	517	150	
9	0	0	0	0	516	150	
10	0	0	0	0	514	150	
11	0	0	0	0	512	151	
12	0	0	0	0	509	150	
13	0	0	0	0	507	150	
14	0	0	0	0	506	150	
15	0	0	0	0	505	150	
0	0	0	0	0	506	150	
1	0	0	0	0	508	151	
2	0	0	0	0	510	150	
3	0	0	0	0	512	150	
4	0	0	0	0	514	150	
5	0	0	0	0	517	150	
6	0	0	0	0	519	150	
7	0	0	0	0	521	150	
8	0	0	0	0	520	150	
9	0	0	0	0	518	150	
10	0	0	0	0	515	150	
11	0	0	0	0	511	150	
12	0	0	0	0	508	150	
13	0	0	0	0	504	150	
14	0	0	0	0	503	151	
15	0	0	0	0	502	150	
0	0	0	0	0	501	150	
1	0	0	0	0	501	151	
2	0	0	0	0	503	150	
3	0	0	0	0	506	150	
4	0	0	0	0	510	150	
5	0	0	0	0	513	150	
6	0	0	0	0	516	150	
7	0	0	0	0	518	150	
8	0	0	0	0	519	150	
9	0	0	0	0	519	149	
10	0	0	0	0	517	150	
11	0	0	0	0	514	150	
12	0	0	0	0	511	150	
13	0	0	0	0	506	150	
14	0	0	0	0	504	151	
15	0	0	0	0	502	150	
0	0	0	0	0	501	150	
1	0	0	0	0	501	151	
2	0	0	0	0	503	150	
3	0	0	0	0	504	150	
4	0	0	0	0	507	150	
5	0	0	0	0	510	151	
6	0	0	0	0	513	150	
7	0	0	0	0	515	150	
8	0	0	0	0	516	151	
9	0	0	0	0	517	150	
10	0	0	0	0	517	150	
11	0	0	0	0	515	150	
12	0	0	0	0	512	150	
13	0	0	0	0	508	150	
14	0	0	0	0	505	150	
15	0	0	0	0	503	150	
0	0	0	0	0	502	150	
1	0	0	0	0	502	151	
2	0	0	0	0	503	150	
3	0	0	0	0	504	150	
4	0	0	0	0	505	151	
5	0	0	0	0	508	150	
6	0	0	0	0	511	150	
7	0	0	0	0	513	151	
8	0	0	0	0	516	150	
9	0	0	0	0	517	150	
10	0	0	0	0	516	150	
11	0	0	0	0	515	150	
12	0	0	0	0	514	150	
13	0	0	0	0	511	151	
14	0	0	0	0	508	150	
15	0	0	0	0	505	150	
0	0	0	0	0	502	150	
1	0	0	0	0	500	151	
2	0	0	0	0	499	150	
3	0	0	0	0	501	150	
4	0	0	0	0	503	150	
5	0	0	0	0	503	150	
6	0	0	0	0	505	150	
7	0	0	0	0	507	150	
8	0	0	0	0	509	150	
9	0	0	0	0	511	150	
10	0	0	0	0	511	151	
11	0	0	0	0	511	150	
12	0	0	0	0	510	150	
13	0	0	0	0	507	151	
14	0	0	0	0	503	150	
15	0	0	0	0	498	150	
0	0	0	0	0	495	151	
1	0	0	0	0	493	150	
2	0	0	0	0	492	150	
3	0	0	0	0	492	150	
4	0	0	0	0	493	151	
5	0	0	0	0	495	150	
6	0	0	0	0	498	150	
7	0	0	0	0	502	150	
8	0	0	0	0	506	150	
9	0	0	0	0	509	151	
10	0	0	0	0	511	150	
11	0	0	0	0	513	150	
12	0	0	0	0	513	151	
13	0	0	0	0	512	150	
14	0	0	0	0	511	150	
15	0	0	0	0	509	150	
0	0	0	0	0	508	150	
1	0	0	0	0	507	150	
2	0	0	0	0	508	151	
3	0	0	0	0	507	151	
4	0	0	0	0	505	150	
5	0	0	0	0	504	150	
6	0	0	0	0	504	150	
7	0	0	0	0	506	151	
8	0	0	0	0	507	150	
9	0	0	0	0	509	150	
10	0	0	0	0	510	150	
11	0	0	0	0	511	151	
12	0	0	0	0	510	150	
13	0	0	0	0	510	150	
14	0	0	0	0	509	150	
15	0	0	0	0	509	151	
0	0	0	0	0	508	150	
1	0	0	0	0	505	150	
2	0	0	0	0	502	150	
3	0	0	0	0	497	151	
4	0	0	0	0	496	151	
5	0	0	0	0	502	150	
6	0	0	0	0	509	150	
7	0	0	0	0	516	150	
8	0	0	0	0	521	150	
9	0	0	0	0	526	150	
10	0	0	0	0	528	150	
11	0	0	0	0	530	150	
12	0	0	0	0	533	151	
13	0	0	0	0	535	150	
14	0	0	0	0	532	150	
15	0	0	0	0	527	150	
0	0	0	0	0	521	150	
1	0	0	0	0	514	151	
2	0	0	0	0	506	151	
3	0	0	0	0	503	150	
4	0	0	0	0	505	150	
5	0	0	0	0	512	150	
6	0	0	0	0	521	150	
7	0	0	0	0	527	150	
8	0	0	0	0	527	150	
9	0	0	0	0	525	151	
10	0	0	0	0	520	150	
11	0	0	0	0	515	150	
12	0	0	0	0	515	150	
13	0	0	0	0	514	150	
14	0	0	0	0	513	150	
15	0	0	0	0	511	151	
0	0	0	0	0	511	150	
1	0	0	0	0	512	150	
2	0	0	0	0	513	150	
3	0	0	0	0	513	150	
4	0	0	0	0	513	150	
5	0	0	0	0	513	151	
6	0	0	0	0	511	150	
7	0	0	0	0	510	150	
8	0	0	0	0	511	150	
9	0	0	0	0	514	150	
10	0	0	0	0	520	151	
11	0	0	0	0	525	150	
12	0	0	0	0	528	150	
13	0	0	0	0	528	150	
14	0	0	0	0	525	150	
15	0	0	0	0	524	151	
0	0	0	0	0	526	151	
1	0	0	0	0	530	150	
2	0	0	0	0	532	150	
3	0	0	0	0	533	150	
4	0	0	0	0	530	151	
5	0	0	0	0	525	150	
6	0	0	0	0	519	150	
7	0	0	0	0	518	150	
8	0	0	0	0	518	150	
9	0	0	0	0	520	151	
10	0	0	0	0	526	151	
11	0	0	0	0	531	150	
12	0	0	0	0	536	150	
13	0	0	0	0	539	150	
14	0	0	0	0	538	151	
15	0	0	0	0	536	151	
0	0	0	0	0	532	150	
1	0	0	0	0	528	150	
2	0	0	0	0	524	151	
3	0	0	0	0	522	150	
4	0	0	0	0	520	150	
5	0	0	0	0	519	150	
6	0	0	0	0	519	151	
7	0	0	0	0	520	150	
8	0	0	0	0	522	150	
9	0	0	0	0	525	150	
10	0	0	0	0	528	150	
11	0	0	0	0	533	151	
12	0	0	0	0	536	150	
13	0	0	0	0	537	150	
14	0	0	0	0	536	150	
15	0	0	0	0	535	151	
0	0	0	0	0	535	150	
1	0	0	0	0	534	150	
2	0	0	0	0	533	150	
3	0	0	0	0	529	150	
4	0	0	0	0	527	150	
5	0	0	0	0	525	151	
6	0	0	0	0	525	150	
7	0	0	0	0	525	150	
8	0	0	0	0	526	151	
9	0	0	0	0	528	151	
10	0	0	0	0	531	151	
11	0	0	0	0	533	150	
12	0	0	0	0	536	150	
13	0	0	0	0	540	150	
14	0	0	0	0	541	151	
15	0	0	0	0	541	150	
0	0	0	0	0	540	150	
1	0	0	0	0	539	150	
2	0	0	0	0	536	150	
3	0	0	0	0	531	150	
4	0	0	0	0	527	151	
5	0	0	0	0	524	151	
6	0	0	0	0	522	151	
7	0	0	0	0	522	150	
8	0	0	0	0	523	150	
9	0	0	0	0	526	151	
10	0	0	0	0	529	151	
11	0	0	0	0	533	150	
12	0	0	0	0	536	150	
13	0	0	0	0	536	150	
14	0	0	0	0	536	150	
15	0	0	0	0	536	150	
0	0	0	0	0	535	150	
1	0	0	0	0	534	150	
2	0	0	0	0	532	150	
3	0	0	0	0	531	151	
4	0	0	0	0	527	150	
5	0	0	0	0	524	150	
6	0	0	0	0	520	150	
7	0	0	0	0	517	151	
8	0	0	0	0	515	151	
9	0	0	0	0	515	150	
10	0	0	0	0	515	150	
11	0	0	0	0	516	150	
12	0	0	0	0	519	151	
13	0	0	0	0	521	151	
14	0	0	0	0	522	150	
15	0	0	0	0	523	150	
0	0	0	0	0	522	150	
1	0	0	0	0	521	150	
2	0	0	0	0	521	151	
3	0	0	0	0	519	151	
4	0	0	0	0	517	150	
5	0	0	0	0	514	150	
6	0	0	0	0	511	150	
7	0	0	0	0	509	151	
8	0	0	0	0	507	151	
9	0	0	0	0	506	150	
10	0	0	0	0	507	150	
11	0	0	0	0	507	150	
12	0	0	0	0	509	151	
13	0	0	0	0	511	151	
14	0	0	0	0	512	150	
15	0	0	0	0	513	151	
0	0	0	0	0	514	150	
1	0	0	0	0	514	150	
2	0	0	0	0	513	150	
3	0	0	0	0	510	151	
4	0	0	0	0	505	151	
5	0	0	0	0	500	150	
6	0	0	0	0	496	150	
7	0	0	0	0	492	151	
8	0	0	0	0	490	151	
9	0	0	0	0	488	151	
10	0	0	0	0	488	150	
11	0	0	0	0	489	151	
12	0	0	0	0	493	151	
13	0	0	0	0	499	151	
14	0	0	0	0	507	150	
15	0	0	0	0	513	151	
0	0	0	0	0	518	151	
1	0	0	0	0	519	150	
2	0	0	0	0	518	150	
3	0	0	0	0	515	150	
4	0	0	0	0	514	150	
5	0	0	0	0	512	151	
6	0	0	0	0	508	151	
7	0	0	0	0	504	150	
8	0	0	0	0	500	150	
9	0	0	0	0	498	150	
10	0	0	0	0	496	151	
11	0	0	0	0	497	151	
12	0	0	0	0	499	151	
13	0	0	0	0	501	150	
14	0	0	0	0	504	150	
15	0	0	0	0	507	150	
0	0	0	0	0	509	151	
1	0	0	0	0	510	151	
2	0	0	0	0	510	151	
3	0	0	0	0	507	150	
4	0	0	0	0	504	150	
5	0	0	0	0	501	150	
6	0	0	0	0	497	151	
7	0	0	0	0	493	151	
8	0	0	0	0	490	151	
9	0	0	0	0	486	151	
10	0	0	0	0	483	150	
11	0	0	0	0	480	150	
12	0	0	0	0	480	151	
13	0	0	0	0	480	151	
14	0	0	0	0	483	151	
15	0	0	0	0	486	150	
0	0	0	0	0	490	150	
1	0	0	0	0	495	150	
2	0	0	0	0	498	151	
3	0	0	0	0	500	151	
4	0	0	0	0	503	151	
5	0	0	0	0	507	150	
6	0	0	0	0	511	150	
7	0	0	0	0	515	150	
8	0	0	0	0	515	151	
9	0	0	0	0	513	151	
10	0	0	0	0	514	151	
11	0	0	0	0	516	150	
12	0	0	0	0	521	150	
13	0	0	0	0	524	150	
14	0	0	0	0	523	151	
15	0	0	0	0	516	151	
0	0	0	0	0	508	151	
1	0	0	0	0	503	151	
2	0	0	0	0	499	150	
3	0	0	0	0	498	150	
4	0	0	0	0	496	150	
5	0	0	0	0	494	151	
6	0	0	0	0	489	151	
7	0	0	0	0	484	151	
8	0	0	0	0	482	150	
9	0	0	0	0	482	150	
10	0	0	0	0	485	151	
11	0	0	0	0	488	151	
12	0	0	0	0	490	151	
13	0	0	0	0	490	150	
14	0	0	0	0	486	150	
15	0	0	0	0	483	151	
0	0	0	0	0	484	151	
1	0	0	0	0	489	151	
2	0	0	0	0	496	150	
3	0	0	0	0	500	150	
4	0	0	0	0	502	150	
5	0	0	0	0	501	150	
6	0	0	0	0	499	151	
7	0	0	0	0	499	151	
8	0	0	0	0	504	151	
9	0	0	0	0	512	150	
10	0	0	0	0	519	150	
11	0	0	0	0	520	151	
12	0	0	0	0	512	151	
13	0	0	0	0	501	151	
14	0	0	0	0	491	150	
15	0	0	0	0	485	150	
0	0	0	0	0	484	150	
1	0	0	0	0	485	151	
2	0	0	0	0	489	151	
3	0	0	0	0	496	151	
4	0	0	0	0	500	151	
5	0	0	0	0	504	150	
6	0	0	0	0	506	150	
7	0	0	0	0	506	151	
8	0	0	0	0	505	151	
9	0	0	0	0	502	150	
10	0	0	0	0	498	150	
11	0	0	0	0	492	150	
12	0	0	0	0	488	151	
13	0	0	0	0	487	151	
14	0	0	0	0	485	151	
15	0	0	0	0	487	150	
0	0	0	0	0	490	150	
1	0	0	0	0	495	151	
2	0	0	0	0	499	151	
3	0	0	0	0	502	151	
4	0	0	0	0	502	150	
5	0	0	0	0	502	150	
6	0	0	0	0	500	150	
7	0	0	0	0	499	151	
8	0	0	0	0	500	151	
9	0	0	0	0	504	151	
10	0	0	0	0	511	150	
11	0	0	0	0	520	150	
12	0	0	0	0	525	151	
13	0	0	0	0	523	151	
14	0	0	0	0	518	151	
15	0	0	0	0	510	150	
0	0	0	0	0	507	150	
1	0	0	0	0	507	150	
2	0	0	0	0	510	151	
3	0	0	0	0	513	151	
4	0	0	0	0	516	151	
5	0	0	0	0	517	150	
6	0	0	0	0	519	150	
7	0	0	0	0	517	150	
8	0	0	0	0	513	151	
9	0	0	0	0	507	151	
10	0	0	0	0	502	150	
11	0	0	0	0	498	150	
12	0	0	0	0	495	151	
13	0	0	0	0	493	151	
14	0	0	0	0	491	151	
15	0	0	0	0	490	151	
0	0	0	0	0	491	150	
1	0	0	0	0	492	150	
2	0	0	0	0	495	150	
3	0	0	0	0	502	151	
4	0	0	0	0	511	151	
5	0	0	0	0	519	151	
6	0	0	0	0	525	150	
7	0	0	0	0	526	150	
8	0	0	0	0	522	150	
9	0	0	0	0	518	151	
10	0	0	0	0	513	150	
11	0	0	0	0	509	150	
12	0	0	0	0	507	151	
13	0	0	0	0	503	151	
14	0	0	0	0	500	151	
15	0	0	0	0	499	150	
0	0	0	0	0	498	150	
1	0	0	0	0	499	150	
2	0	0	0	0	501	151	
3	0	0	0	0	504	151	
4	0	0	0	0	506	151	
5	0	0	0	0	509	150	
6	0	0	0	0	511	150	
7	0	0	0	0	512	151	
8	0	0	0	0	513	151	
9	0	0	0	0	512	150	
10	0	0	0	0	511	150	
11	0	0	0	0	508	150	
12	0	0	0	0	505	151	
13	0	0	0	0	502	151	
14	0	0	0	0	499	151	
15	0	0	0	0	496	150	
0	0	0	0	0	495	150	
1	0	0	0	0	495	151	
2	0	0	0	0	495	151	
3	0	0	0	0	496	151	
4	0	0	0	0	499	150	
5	0	0	0	0	503	150	
6	0	0	0	0	506	150	
7	0	0	0	0	509	151	
8	0	0	0	0	510	151	
9	0	0	0	0	507	150	
10	0	0	0	0	503	150	
11	0	0	0	0	499	151	
12	0	0	0	0	495	151	
13	0	0	0	0	492	151	
14	0	0	0	0	492	150	
15	0	0	0	0	495	150	
0	0	0	0	0	500	151	
1	0	0	0	0	507	151	
2	0	0	0	0	513	150	
3	0	0	0	0	519	150	
4	0	0	0	0	524	151	
5	0	0	0	0	527	151	
6	0	0	0	0	530	151	
7	0	0	0	0	531	150	
8	0	0	0	0	531	150	
9	0	0	0	0	529	150	
10	0	0	0	0	525	150	
11	0	0	0	0	521	151	
12	0	0	0	0	516	151	
13	0	0	0	0	512	151	
14	0	0	0	0	510	150	
15	0	0	0	0	509	150	
0	0	0	0	0	512	150	
1	0	0	0	0	517	151	
2	0	0	0	0	520	151	
3	0	0	0	0	523	150	
4	0	0	0	0	521	150	
5	0	0	0	0	520	150	
6	0	0	0	0	521	150	
7	0	0	0	0	525	150	
8	0	0	0	0	529	150	
9	0	0	0	0	532	150	
10	0	0	0	0	531	150	
11	0	0	0	0	528	150	
12	0	0	0	0	524	151	
13	0	0	0	0	518	151	
14	0	0	0	0	512	150	
15	0	0	0	0	509	150	
0	0	0	0	0	507	150	
1	0	0	0	0	505	151	
2	0	0	0	0	505	151	
3	0	0	0	0	505	151	
4	0	0	0	0	506	150	
5	0	0	0	0	506	150	
6	0	0	0	0	508	151	
7	0	0	0	0	511	151	
8	0	0	0	0	513	151	
9	0	0	0	0	515	150	
10	0	0	0	0	518	150	
11	0	0	0	0	519	150	
12	0	0	0	0	520	151	
13	0	0	0	0	520	151	
14	0	0	0	0	519	150	
15	0	0	0	0	517	150	
0	0	0	0	0	515	150	
1	0	0	0	0	512	151	
2	0	0	0	0	509	151	
3	0	0	0	0	505	151	
4	0	0	0	0	504	150	
5	0	0	0	0	504	150	
6	0	0	0	0	508	150	
7	0	0	0	0	511	151	
8	0	0	0	0	514	151	
9	0	0	0	0	519	150	
10	0	0	0	0	523	150	
11	0	0	0	0	524	150	
12	0	0	0	0	521	151	
13	0	0	0	0	517	151	
14	0	0	0	0	513	151	
15	0	0	0	0	508	150	
0	0	0	0	0	502	151	
1	0	0	0	0	496	151	
2	0	0	0	0	492	151	
3	0	0	0	0	489	150	
4	0	0	0	0	488	150	
5	0	0	0	0	490	150	
6	0	0	0	0	497	151	
7	0	0	0	0	506	151	
8	0	0	0	0	515	151	
9	0	0	0	0	521	150	
10	0	0	0	0	525	150	
11	0	0	0	0	524	150	
12	0	0	0	0	523	151	
13	0	0	0	0	519	151	
14	0	0	0	0	514	150	
15	0	0	0	0	507	150	
0	0	0	0	0	499	150	
1	0	0	0	0	494	151	
2	0	0	0	0	487	151	
3	0	0	0	0	481	150	
4	0	0	0	0	477	150	
5	0	0	0	0	474	151	
6	0	0	0	0	473	151	
7	0	0	0	0	475	151	
8	0	0	0	0	479	150	
9	0	0	0	0	487	150	
10	0	0	0	0	501	150	
11	0	0	0	0	517	151	
12	0	0	0	0	529	151	
13	0	0	0	0	530	151	
14	0	0	0	0	524	151	
15	0	0	0	0	514	150	
0	0	0	0	0	505	150	
1	0	0	0	0	500	151	
2	0	0	0	0	495	151	
3	0	0	0	0	492	151	
4	0	0	0	0	489	151	
5	0	0	0	0	487	150	
6	0	0	0	0	487	150	
7	0	0	0	0	487	151	
8	0	0	0	0	487	151	
9	0	0	0	0	488	151	
10	0	0	0	0	489	150	
11	0	0	0	0	491	150	
12	0	0	0	0	493	151	
13	0	0	0	0	493	151	
14	0	0	0	0	491	151	
15	0	0	0	0	489	151	
0	0	0	0	0	487	150	
1	0	0	0	0	484	150	
2	0	0	0	0	483	150	
3	0	0	0	0	483	151	
4	0	0	0	0	484	151	
5	0	0	0	0	487	150	
6	0	0	0	0	494	150	
7	0	0	0	0	505	151	
8	0	0	0	0	518	151	
9	0	0	0	0	528	151	
10	0	0	0	0	531	150	
11	0	0	0	0	527	150	
12	0	0	0	0	521	151	
13	0	0	0	0	513	151	
14	0	0	0	0	506	151	
15	0	0	0	0	501	151	
0	0	0	0	0	497	150	
1	0	0	0	0	494	151	
2	0	0	0	0	490	151	
3	0	0	0	0	487	151	
4	0	0	0	0	486	150	
5	0	0	0	0	484	150	
6	0	0	0	0	483	151	
7	0	0	0	0	483	151	
8	0	0	0	0	485	151	
9	0	0	0	0	487	150	
10	0	0	0	0	488	150	
11	0	0	0	0	491	150	
12	0	0	0	0	493	151	
13	0	0	0	0	496	151	
14	0	0	0	0	499	151	
15	0	0	0	0	500	150	
0	0	0	0	0	502	150	
1	0	0	0	0	501	150	
2	0	0	0	0	499	151	
3	0	0	0	0	496	151	
4	0	0	0	0	494	151	
5	0	0	0	0	493	150	
6	0	0	0	0	491	150	
7	0	0	0	0	491	150	
8	0	0	0	0	493	151	
9	0	0	0	0	496	151	
10	0	0	0	0	499	150	
11	0	0	0	0	503	150	
12	0	0	0	0	506	151	
13	0	0	0	0	508	151	
14	0	0	0	0	509	151	
15	0	0	0	0	510	150	
0	0	0	0	0	510	150	
1	0	0	0	0	509	151	
2	0	0	0	0	507	151	
3	0	0	0	0	504	151	
4	0	0	0	0	503	150	
5	0	0	0	0	502	150	
6	0	0	0	0	500	151	
7	0	0	0	0	499	151	
8	0	0	0	0	498	150	
9	0	0	0	0	498	150	
10	0	0	0	0	498	151	
11	0	0	0	0	499	151	
12	0	0	0	0	502	151	
13	0	0	0	0	504	150	
14	0	0	0	0	507	150	
15	0	0	0	0	508	151	
0	0	0	0	0	508	151	
1	0	0	0	0	506	151	
2	0	0	0	0	504	150	
3	0	0	0	0	502	150	
4	0	0	0	0	499	150	
5	0	0	0	0	497	151	
6	0	0	0	0	496	151	
7	0	0	0	0	495	150	
8	0	0	0	0	495	150	
9	0	0	0	0	495	151	
10	0	0	0	0	497	151	
11	0	0	0	0	500	150	
12	0	0	0	0	504	150	
13	0	0	0	0	507	151	
14	0	0	0	0	509	151	
15	0	0	0	0	510	151	
0	0	0	0	0	511	150	
1	0	0	0	0	510	150	
2	0	0	0	0	508	151	
3	0	0	0	0	506	151	
4	0	0	0	0	503	151	
5	0	0	0	0	500	150	
6	0	0	0	0	499	150	
7	0	0	0	0	500	151	
8	0	0	0	0	500	151	
9	0	0	0	0	500	151	
10	0	0	0	0	502	150	
11	0	0	0	0	504	151	
12	0	0	0	0	508	151	
13	0	0	0	0	511	151	
14	0	0	0	0	513	150	
15	0	0	0	0	515	151	
0	0	0	0	0	516	151	
1	0	0	0	0	517	150	
2	0	0	0	0	516	151	
3	0	0	0	0	515	151	
4	0	0	0	0	513	151	
5	0	0	0	0	509	150	
6	0	0	0	0	506	150	
7	0	0	0	0	504	150	
8	0	0	0	0	502	151	
9	0	0	0	0	501	151	
10	0	0	0	0	500	151	
11	0	0	0	0	501	150	
12	0	0	0	0	502	150	
13	0	0	0	0	504	150	
14	0	0	0	0	506	151	
15	0	0	0	0	507	151	
0	0	0	0	0	508	151	
1	0	0	0	0	509	150	
2	0	0	0	0	508	150	
3	0	0	0	0	508	151	
4	0	0	0	0	505	151	
5	0	0	0	0	501	150	
6	0	0	0	0	497	150	
7	0	0	0	0	494	150	
8	0	0	0	0	491	151	
9	0	0	0	0	488	151	
10	0	0	0	0	486	151	
11	0	0	0	0	485	150	
12	0	0	0	0	487	151	
13	0	0	0	0	489	151	
14	0	0	0	0	492	151	
15	0	0	0	0	495	150	
0	0	0	0	0	498	151	
1	0	0	0	0	500	151	
2	0	0	0	0	500	151	
3	0	0	0	0	498	150	
4	0	0	0	0	499	150	
5	0	0	0	0	497	150	
6	0	0	0	0	495	151	
7	0	0	0	0	492	151	
8	0	0	0	0	489	151	
9	0	0	0	0	487	150	
10	0	0	0	0	487	151	
11	0	0	0	0	487	151	
12	0	0	0	0	489	151	
13	0	0	0	0	491	150	
14	0	0	0	0	493	150	
15	0	0	0	0	496	150	
0	0	0	0	0	499	151	
1	0	0	0	0	502	151	
2	0	0	0	0	503	151	
3	0	0	0	0	505	150	
4	0	0	0	0	507	150	
5	0	0	0	0	506	151	
6	0	0	0	0	505	151	
7	0	0	0	0	503	151	
8	0	0	0	0	500	150	
9	0	0	0	0	498	150	
10	0	0	0	0	498	150	
11	0	0	0	0	498	151	
12	0	0	0	0	497	151	
13	0	0	0	0	500	151	
14	0	0	0	0	503	150	
15	0	0	0	0	505	150	
0	0	0	0	0	508	151	
1	0	0	0	0	510	151	
2	0	0	0	0	512	151	
3	0	0	0	0	513	150	
4	0	0	0	0	514	150	
5	0	0	0	0	513	150	
6	0	0	0	0	510	151	
7	0	0	0	0	507	151	
8	0	0	0	0	502	150	
9	0	0	0	0	498	150	
10	0	0	0	0	494	151	
11	0	0	0	0	491	151	
12	0	0	0	0	489	150	
13	0	0	0	0	490	150	
14	0	0	0	0	491	150	
15	0	0	0	0	492	150	
0	0	0	0	0	495	151	
1	0	0	0	0	500	151	
2	0	0	0	0	503	151	
3	0	0	0	0	507	150	
4	0	0	0	0	510	150	
5	0	0	0	0	511	151	
6	0	0	0	0	512	151	
7	0	0	0	0	513	150	
8	0	0	0	0	513	150	
9	0	0	0	0	510	151	
10	0	0	0	0	506	151	
11	0	0	0	0	502	151	
12	0	0	0	0	500	150	
13	0	0	0	0	499	150	
14	0	0	0	0	500	151	
15	0	0	0	0	500	151	
0	0	0	0	0	503	151	
1	0	0	0	0	508	150	
2	0	0	0	0	513	150	
3	0	0	0	0	516	151	
4	0	0	0	0	515	151	
5	0	0	0	0	512	151	
6	0	0	0	0	506	150	
7	0	0	0	0	500	151	
8	0	0	0	0	496	151	
9	0	0	0	0	492	151	
10	0	0	0	0	488	150	
11	0	0	0	0	485	151	
12	0	0	0	0	485	151	
13	0	0	0	0	488	151	
14	0	0	0	0	491	150	
15	0	0	0	0	491	150	
0	0	0	0	0	494	151	
1	0	0	0	0	500	151	
2	0	0	0	0	511	151	
3	0	0	0	0	523	150	
4	0	0	0	0	531	150	
5	0	0	0	0	531	150	
6	0	0	0	0	526	151	
7	0	0	0	0	520	151	
8	0	0	0	0	515	151	
9	0	0	0	0	512	150	
10	0	0	0	0	508	150	
11	0	0	0	0	508	151	
12	0	0	0	0	510	151	
13	0	0	0	0	509	151	
14	0	0	0	0	505	150	
15	0	0	0	0	500	150	
0	0	0	0	0	499	151	
1	0	0	0	0	502	151	
2	0	0	0	0	504	151	
3	0	0	0	0	508	150	
4	0	0	0	0	511	150	
5	0	0	0	0	513	151	
6	0	0	0	0	515	151	
7	0	0	0	0	518	151	
8	0	0	0	0	522	150	
9	0	0	0	0	524	150	
10	0	0	0	0	523	150	
11	0	0	0	0	521	151	
12	0	0	0	0	522	151	
13	0	0	0	0	520	150	
14	0	0	0	0	518	150	
15	0	0	0	0	516	150	
0	0	0	0	0	514	151	
1	0	0	0	0	513	151	
2	0	0	0	0	512	150	
3	0	0	0	0	513	150	
4	0	0	0	0	515	151	
5	0	0	0	0	518	151	
6	0	0	0	0	519	151	
7	0	0	0	0	521	150	
8	0	0	0	0	520	150	
9	0	0	0	0	518	151	
10	0	0	0	0	515	151	
11	0	0	0	0	512	150	
12	0	0	0	0	509	150	
13	0	0	0	0	504	151	
14	0	0	0	0	501	151	
15	0	0	0	0	499	151	
0	0	0	0	0	498	150	
1	0	0	0	0	499	150	
2	0	0	0	0	502	150	
3	0	0	0	0	504	151	
4	0	0	0	0	507	151	
5	0	0	0	0	512	150	
6	0	0	0	0	519	150	
7	0	0	0	0	526	150	
8	0	0	0	0	533	151	
9	0	0	0	0	537	151	
10	0	0	0	0	536	150	
11	0	0	0	0	534	150	
12	0	0	0	0	529	151	
13	0	0	0	0	522	151	
14	0	0	0	0	515	151	
15	0	0	0	0	511	150	
0	0	0	0	0	510	151	
1	0	0	0	0	508	151	
2	0	0	0	0	510	151	
3	0	0	0	0	515	150	
4	0	0	0	0	523	150	
5	0	0	0	0	528	151	
6	0	0	0	0	529	151	
7	0	0	0	0	528	151	
8	0	0	0	0	525	150	
9	0	0	0	0	522	151	
10	0	0	0	0	519	151	
11	0	0	0	0	516	151	
12	0	0	0	0	512	150	
13	0	0	0	0	508	151	
14	0	0	0	0	504	151	
15	0	0	0	0	503	150	
0	0	0	0	0	505	150	
1	0	0	0	0	508	150	
2	0	0	0	0	511	151	
3	0	0	0	0	512	151	
4	0	0	0	0	512	150	
5	0	0	0	0	515	150	
6	0	0	0	0	517	151	
7	0	0	0	0	520	151	
8	0	0	0	0	524	151	
9	0	0	0	0	527	150	
10	0	0	0	0	530	150	
11	0	0	0	0	531	150	
12	0	0	0	0	529	151	
13	0	0	0	0	525	151	
14	0	0	0	0	521	150	
15	0	0	0	0	518	151	
0	0	0	0	0	517	151	
1	0	0	0	0	515	151	
2	0	0	0	0	515	150	
3	0	0	0	0	518	150	
4	0	0	0	0	522	151	
5	0	0	0	0	529	151	
6	0	0	0	0	537	150	
7	0	0	0	0	544	151	
8	0	0	0	0	548	151	
9	0	0	0	0	551	151	
10	0	0	0	0	551	150	
11	0	0	0	0	552	150	
12	0	0	0	0	553	151	
13	0	0	0	0	553	151	
14	0	0	0	0	552	150	
15	0	0	0	0	552	150	
0	0	0	0	0	552	151	
1	0	0	0	0	552	151	
2	0	0	0	0	551	151	
3	0	0	0	0	552	150	
4	0	0	0	0	553	150	
5	0	0	0	0	553	151	
6	0	0	0	0	552	151	
7	0	0	0	0	550	150	
8	0	0	0	0	548	150	
9	0	0	0	0	546	151	
10	0	0	0	0	543	151	
11	0	0	0	0	540	151	
12	0	0	0	0	537	150	
13	0	0	0	0	531	150	
14	0	0	0	0	525	151	
15	0	0	0	0	519	151	
0	0	0	0	0	514	151	
1	0	0	0	0	512	150	
2	0	0	0	0	509	150	
3	0	0	0	0	504	150	
4	0	0	0	0	499	151	
5	0	0	0	0	493	151	
6	0	0	0	0	488	150	
7	0	0	0	0	488	150	
8	0	0	0	0	493	151	
9	0	0	0	0	496	151	
10	0	0	0	0	498	150	
11	0	0	0	0	503	150	
12	0	0	0	0	508	151	
13	0	0	0	0	514	151	
14	0	0	0	0	518	150	
15	0	0	0	0	515	150	
0	0	0	0	0	505	151	
1	0	0	0	0	491	151	
2	0	0	0	0	477	151	
3	0	0	0	0	470	151	
4	0	0	0	0	467	150	
5	0	0	0	0	467	151	
6	0	0	0	0	469	151	
7	0	0	0	0	472	151	
8	0	0	0	0	474	150	
9	0	0	0	0	478	150	
10	0	0	0	0	483	151	
11	0	0	0	0	489	151	
12	0	0	0	0	493	151	
13	0	0	0	0	494	150	
14	0	0	0	0	494	151	
15	0	0	0	0	493	151	
0	0	0	0	0	492	151	
1	0	0	0	0	494	151	
2	0	0	0	0	496	150	
3	0	0	0	0	498	151	
4	0	0	0	0	501	151	
5	0	0	0	0	504	151	
6	0	0	0	0	506	150	
7	0	0	0	0	508	150	
8	0	0	0	0	509	151	
9	0	0	0	0	514	151	
10	0	0	0	0	520	150	
11	0	0	0	0	525	151	
12	0	0	0	0	530	151	
13	0	0	0	0	532	150	
14	0	0	0	0	531	150	
15	0	0	0	0	527	151	
0	0	0	0	0	521	151	
1	0	0	0	0	517	151	
2	0	0	0	0	512	150	
3	0	0	0	0	509	150	
4	0	0	0	0	509	151	
5	0	0	0	0	510	151	
6	0	0	0	0	510	150	
7	0	0	0	0	512	150	
8	0	0	0	0	513	150	
9	0	0	0	0	514	151	
10	0	0	0	0	516	151	
11	0	0	0	0	519	151	
12	0	0	0	0	521	150	
13	0	0	0	0	523	150	
14	0	0	0	0	523	151	
15	0	0	0	0	521	151	
0	0	0	0	0	518	151	
1	0	0	0	0	514	150	
2	0	0	0	0	512	150	
3	0	0	0	0	510	151	
4	0	0	0	0	507	151	
5	0	0	0	0	506	151	
6	0	0	0	0	505	150	
7	0	0	0	0	508	151	
8	0	0	0	0	511	151	
9	0	0	0	0	514	151	
10	0	0	0	0	518	150	
11	0	0	0	0	522	151	
12	0	0	0	0	523	151	
13	0	0	0	0	524	150	
14	0	0	0	0	523	150	
15	0	0	0	0	522	151	
0	0	0	0	0	520	151	
1	0	0	0	0	517	150	
2	0	0	0	0	512	151	
3	0	0	0	0	508	151	
4	0	0	0	0	504	151	
5	0	0	0	0	503	150	
6	0	0	0	0	504	151	
7	0	0	0	0	505	151	
8	0	0	0	0	507	150	
9	0	0	0	0	510	150	
10	0	0	0	0	513	151	
11	0	0	0	0	518	151	
12	0	0	0	0	519	151	
13	0	0	0	0	520	151	
14	0	0	0	0	521	150	
15	0	0	0	0	519	150	
0	0	0	0	0	516	151	
1	0	0	0	0	514	151	
2	0	0	0	0	510	151	
3	0	0	0	0	505	150	
4	0	0	0	0	502	150	
5	0	0	0	0	500	151	
6	0	0	0	0	497	151	
7	0	0	0	0	497	151	
8	0	0	0	0	497	150	
9	0	0	0	0	499	150	
10	0	0	0	0	501	151	
11	0	0	0	0	504	151	
12	0	0	0	0	509	151	
13	0	0	0	0	512	150	
14	0	0	0	0	513	150	
15	0	0	0	0	514	151	
0	0	0	0	0	514	151	
1	0	0	0	0	512	151	
2	0	0	0	0	510	150	
3	0	0	0	0	507	151	
4	0	0	0	0	504	151	
5	0	0	0	0	501	151	
6	0	0	0	0	499	150	
7	0	0	0	0	498	151	
8	0	0	0	0	497	151	
9	0	0	0	0	497	151	
10	0	0	0	0	499	150	
11	0	0	0	0	501	150	
12	0	0	0	0	503	151	
13	0	0	0	0	505	151	
14	0	0	0	0	507	151	
15	0	0	0	0	507	151	
0	0	0	0	0	506	150	
1	0	0	0	0	504	151	
2	0	0	0	0	502	151	
3	0	0	0	0	499	151	
4	0	0	0	0	495	150	
5	0	0	0	0	492	150	
6	0	0	0	0	489	151	
7	0	0	0	0	487	151	
8	0	0	0	0	487	151	
9	0	0	0	0	488	151	
10	0	0	0	0	492	150	
11	0	0	0	0	496	151	
12	0	0	0	0	499	151	
13	0	0	0	0	503	151	
14	0	0	0	0	505	150	
15	0	0	0	0	506	150	
0	0	0	0	0	506	151	
1	0	0	0	0	506	151	
2	0	0	0	0	504	151	
3	0	0	0	0	502	150	
4	0	0	0	0	500	151	
5	0	0	0	0	496	151	
6	0	0	0	0	492	151	
7	0	0	0	0	491	150	
8	0	0	0	0	490	151	
9	0	0	0	0	490	151	
10	0	0	0	0	491	151	
11	0	0	0	0	492	151	
12	0	0	0	0	496	150	
13	0	0	0	0	499	151	
14	0	0	0	0	502	151	
15	0	0	0	0	504	151	
0	0	0	0	0	506	150	
1	0	0	0	0	506	150	
2	0	0	0	0	504	151	
3	0	0	0	0	502	151	
4	0	0	0	0	500	150	
5	0	0	0	0	498	151	
6	0	0	0	0	496	151	
7	0	0	0	0	495	151	
8	0	0	0	0	494	151	
9	0	0	0	0	495	150	
10	0	0	0	0	494	151	
11	0	0	0	0	495	151	
12	0	0	0	0	496	151	
13	0	0	0	0	498	150	
14	0	0	0	0	500	150	
15	0	0	0	0	502	151	
0	0	0	0	0	504	151	
1	0	0	0	0	505	151	
2	0	0	0	0	505	151	
3	0	0	0	0	505	150	
4	0	0	0	0	504	151	
5	0	0	0	0	503	151	
6	0	0	0	0	500	151	
7	0	0	0	0	497	151	
8	0	0	0	0	493	150	
9	0	0	0	0	491	151	
10	0	0	0	0	490	151	
11	0	0	0	0	492	151	
12	0	0	0	0	495	150	
13	0	0	0	0	497	151	
14	0	0	0	0	499	151	
15	0	0	0	0	502	151	
0	0	0	0	0	504	150	
1	0	0	0	0	506	150	
2	0	0	0	0	508	151	
3	0	0	0	0	507	151	
4	0	0	0	0	506	150	
5	0	0	0	0	504	151	
6	0	0	0	0	502	151	
7	0	0	0	0	499	151	
8	0	0	0	0	497	151	
9	0	0	0	0	497	151	
10	0	0	0	0	496	151	
11	0	0	0	0	497	151	
12	0	0	0	0	498	151	
13	0	0	0	0	500	151	
14	0	0	0	0	504	150	
15	0	0	0	0	506	151	
0	0	0	0	0	508	151	
1	0	0	0	0	509	151	
2	0	0	0	0	511	151	
3	0	0	0	0	511	150	
4	0	0	0	0	508	151	
5	0	0	0	0	506	151	
6	0	0	0	0	503	151	
7	0	0	0	0	500	151	
8	0	0	0	0	497	151	
9	0	0	0	0	493	150	
10	0	0	0	0	490	151	
11	0	0	0	0	489	151	
12	0	0	0	0	489	151	
13	0	0	0	0	492	151	
14	0	0	0	0	493	151	
15	0	0	0	0	494	151	
0	0	0	0	0	497	151	
1	0	0	0	0	501	150	
2	0	0	0	0	504	151	
3	0	0	0	0	507	151	
4	0	0	0	0	508	151	
5	0	0	0	0	505	150	
6	0	0	0	0	501	151	
7	0	0	0	0	497	151	
8	0	0	0	0	494	151	
9	0	0	0	0	493	151	
10	0	0	0	0	493	151	
11	0	0	0	0	492	151	
12	0	0	0	0	492	151	
13	0	0	0	0	492	151	
14	0	0	0	0	495	151	
15	0	0	0	0	500	151	
0	0	0	0	0	504	151	
1	0	0	0	0	507	151	
2	0	0	0	0	510	151	
3	0	0	0	0	511	151	
4	0	0	0	0	508	151	
5	0	0	0	0	502	151	
6	0	0	0	0	494	151	
7	0	0	0	0	485	151	
8	0	0	0	0	478	151	
9	0	0	0	0	473	151	
10	0	0	0	0	472	151	
11	0	0	0	0	472	151	
12	0	0	0	0	473	151	
13	0	0	0	0	476	151	
14	0	0	0	0	481	151	
15	0	0	0	0	489	151	
0	0	0	0	0	499	150	
1	0	0	0	0	512	151	
2	0	0	0	0	521	151	
3	0	0	0	0	524	151	
4	0	0	0	0	522	151	
5	0	0	0	0	518	151	
6	0	0	0	0	512	150	
7	0	0	0	0	508	151	
8	0	0	0	0	503	151	
9	0	0	0	0	495	151	
10	0	0	0	0	487	151	
11	0	0	0	0	480	151	
12	0	0	0	0	476	151	
13	0	0	0	0	475	151	
14	0	0	0	0	477	151	
15	0	0	0	0	479	151	
0	0	0	0	0	481	151	
1	0	0	0	0	484	151	
2	0	0	0	0	487	151	
3	0	0	0	0	490	151	
4	0	0	0	0	494	151	
5	0	0	0	0	496	151	
6	0	0	0	0	497	151	
7	0	0	0	0	495	151	
8	0	0	0	0	490	151	
9	0	0	0	0	485	151	
10	0	0	0	0	481	151	
11	0	0	0	0	476	151	
12	0	0	0	0	471	152	
13	0	0	0	0	468	151	
14	0	0	0	0	475	151	
15	0	0	0	0	488	151	
0	0	0	0	0	501	151	
1	0	0	0	0	509	151	
2	0	0	0	0	510	151	
3	0	0	0	0	507	151	
4	0	0	0	0	502	151	
5	0	0	0	0	499	151	
6	0	0	0	0	497	151	
7	0	0	0	0	494	151	
8	0	0	0	0	489	151	
9	0	0	0	0	485	151	
10	0	0	0	0	480	151	
11	0	0	0	0	477	151	
12	0	0	0	0	477	151	
13	0	0	0	0	480	151	
14	0	0	0	0	484	151	
15	0	0	0	0	487	151	
0	0	0	0	0	487	151	
1	0	0	0	0	487	151	
2	0	0	0	0	490	151	
3	0	0	0	0	493	151	
4	0	0	0	0	494	151	
5	0	0	0	0	493	151	
6	0	0	0	0	491	151	
7	0	0	0	0	490	151	
8	0	0	0	0	492	151	
9	0	0	0	0	497	151	
10	0	0	0	0	502	152	
11	0	0	0	0	503	151	
12	0	0	0	0	500	151	
13	0	0	0	0	492	151	
14	0	0	0	0	484	151	
15	0	0	0	0	481	151	
0	0	0	0	0	480	151	
1	0	0	0	0	482	151	
2	0	0	0	0	483	151	
3	0	0	0	0	486	151	
4	0	0	0	0	489	151	
5	0	0	0	0	493	151	
6	0	0	0	0	495	152	
7	0	0	0	0	496	151	
8	0	0	0	0	496	151	
9	0	0	0	0	496	151	
10	0	0	0	0	495	151	
11	0	0	0	0	492	152	
12	0	0	0	0	490	151	
13	0	0	0	0	489	151	
14	0	0	0	0	489	151	
15	0	0	0	0	489	152	
0	0	0	0	0	490	151	
1	0	0	0	0	493	151	
2	0	0	0	0	497	151	
3	0	0	0	0	500	151	
4	0	0	0	0	504	152	
5	0	0	0	0	508	151	
6	0	0	0	0	511	151	
7	0	0	0	0	512	151	
8	0	0	0	0	512	152	
9	0	0	0	0	512	151	
10	0	0	0	0	511	151	
11	0	0	0	0	506	151	
12	0	0	0	0	504	151	
13	0	0	0	0	501	152	
14	0	0	0	0	496	151	
15	0	0	0	0	494	151	
0	0	0	0	0	493	151	
1	0	0	0	0	493	151	
2	0	0	0	0	495	152	
3	0	0	0	0	497	151	
4	0	0	0	0	501	151	
5	0	0	0	0	505	151	
6	0	0	0	0	508	151	
7	0	0	0	0	511	151	
8	0	0	0	0	514	151	
9	0	0	0	0	515	151	
10	0	0	0	0	513	151	
11	0	0	0	0	512	152	
12	0	0	0	0	510	151	
13	0	0	0	0	508	151	
14	0	0	0	0	506	151	
15	0	0	0	0	504	151	
0	0	0	0	0	503	152	
1	0	0	0	0	502	151	
2	0	0	0	0	499	151	
3	0	0	0	0	500	151	
4	0	0	0	0	504	151	
5	0	0	0	0	508	152	
6	0	0	0	0	511	152	
7	0	0	0	0	514	151	
8	0	0	0	0	518	151	
9	0	0	0	0	518	151	
10	0	0	0	0	516	152	
11	0	0	0	0	514	151	
12	0	0	0	0	512	151	
13	0	0	0	0	510	152	
14	0	0	0	0	508	151	
15	0	0	0	0	507	151	
0	0	0	0	0	504	151	
1	0	0	0	0	504	151	
2	0	0	0	0	504	151	
3	0	0	0	0	507	151	
4	0	0	0	0	510	152	
5	0	0	0	0	512	151	
6	0	0	0	0	515	152	
7	0	0	0	0	518	151	
8	0	0	0	0	519	151	
9	0	0	0	0	521	151	
10	0	0	0	0	522	151	
11	0	0	0	0	522	152	
12	0	0	0	0	523	151	
13	0	0	0	0	521	151	
14	0	0	0	0	519	151	
15	0	0	0	0	515	152	
0	0	0	0	0	512	151	
1	0	0	0	0	510	151	
2	0	0	0	0	509	151	
3	0	0	0	0	508	151	
4	0	0	0	0	509	151	
5	0	0	0	0	511	152	
6	0	0	0	0	514	152	
7	0	0	0	0	517	151	
8	0	0	0	0	521	151	
9	0	0	0	0	523	151	
10	0	0	0	0	524	152	
11	0	0	0	0	526	151	
12	0	0	0	0	524	151	
13	0	0	0	0	519	151	
14	0	0	0	0	515	151	
15	0	0	0	0	511	152	
0	0	0	0	0	507	152	
1	0	0	0	0	503	151	
2	0	0	0	0	499	151	
3	0	0	0	0	496	151	
4	0	0	0	0	498	152	
5	0	0	0	0	501	152	
6	0	0	0	0	506	152	
7	0	0	0	0	514	151	
8	0	0	0	0	524	151	
9	0	0	0	0	531	151	
10	0	0	0	0	532	152	
11	0	0	0	0	530	152	
12	0	0	0	0	526	151	
13	0	0	0	0	519	151	
14	0	0	0	0	514	151	
15	0	0	0	0	508	152	
0	0	0	0	0	502	152	
1	0	0	0	0	500	152	
2	0	0	0	0	499	151	
3	0	0	0	0	500	151	
4	0	0	0	0	505	152	
5	0	0	0	0	506	152	
6	0	0	0	0	507	151	
7	0	0	0	0	508	151	
8	0	0	0	0	509	152	
9	0	0	0	0	511	152	
10	0	0	0	0	515	152	
11	0	0	0	0	518	151	
12	0	0	0	0	521	151	
13	0	0	0	0	519	151	
14	0	0	0	0	515	152	
15	0	0	0	0	510	152	
0	0	0	0	0	505	152	
1	0	0	0	0	500	151	
2	0	0	0	0	497	151	
3	0	0	0	0	496	152	
4	0	0	0	0	494	152	
5	0	0	0	0	490	151	
6	0	0	0	0	488	151	
7	0	0	0	0	489	151	
8	0	0	0	0	494	152	
9	0	0	0	0	501	152	
10	0	0	0	0	513	152	
11	0	0	0	0	530	151	
12	0	0	0	0	550	151	
13	0	0	0	0	565	151	
14	0	0	0	0	565	152	
15	0	0	0	0	551	151	
0	0	0	0	0	531	151	
1	0	0	0	0	515	151	
2	0	0	0	0	505	152	
3	0	0	0	0	499	152	
4	0	0	0	0	495	152	
5	0	0	0	0	494	151	
6	0	0	0	0	493	151	
7	0	0	0	0	494	152	
8	0	0	0	0	495	152	
9	0	0	0	0	499	151	
10	0	0	0	0	502	151	
11	0	0	0	0	502	152	
12	0	0	0	0	500	152	
13	0	0	0	0	498	151	
14	0	0	0	0	498	151	
15	0	0	0	0	498	152	
0	0	0	0	0	499	152	
1	0	0	0	0	504	152	
2	0	0	0	0	508	151	
3	0	0	0	0	513	151	
4	0	0	0	0	518	152	
5	0	0	0	0	523	152	
6	0	0	0	0	529	151	
7	0	0	0	0	533	151	
8	0	0	0	0	531	151	
9	0	0	0	0	522	152	
10	0	0	0	0	512	152	
11	0	0	0	0	508	151	
12	0	0	0	0	506	151	
13	0	0	0	0	504	152	
14	0	0	0	0	501	152	
15	0	0	0	0	498	151	
0	0	0	0	0	496	151	
1	0	0	0	0	493	152	
2	0	0	0	0	491	152	
3	0	0	0	0	491	152	
4	0	0	0	0	491	151	
5	0	0	0	0	493	151	
6	0	0	0	0	499	152	
7	0	0	0	0	505	152	
8	0	0	0	0	513	152	
9	0	0	0	0	517	151	
10	0	0	0	0	517	151	
11	0	0	0	0	511	152	
12	0	0	0	0	507	152	
13	0	0	0	0	505	151	
14	0	0	0	0	512	151	
15	0	0	0	0	521	151	
0	0	0	0	0	528	152	
1	0	0	0	0	533	152	
2	0	0	0	0	534	152	
3	0	0	0	0	532	151	
4	0	0	0	0	529	151	
5	0	0	0	0	525	152	
6	0	0	0	0	520	151	
7	0	0	0	0	515	151	
8	0	0	0	0	511	151	
9	0	0	0	0	507	152	
10	0	0	0	0	504	152	
11	0	0	0	0	499	152	
12	0	0	0	0	496	152	
13	0	0	0	0	492	151	
14	0	0	0	0	489	152	
15	0	0	0	0	489	152	
0	0	0	0	0	489	152	
1	0	0	0	0	491	151	
2	0	0	0	0	496	152	
3	0	0	0	0	503	152	
4	0	0	0	0	509	151	
5	0	0	0	0	511	151	
6	0	0	0	0	510	152	
7	0	0	0	0	506	152	
8	0	0	0	0	504	152	
9	0	0	0	0	503	151	
10	0	0	0	0	502	152	
11	0	0	0	0	504	152	
12	0	0	0	0	507	152	
13	0	0	0	0	511	151	
14	0	0	0	0	515	152	
15	0	0	0	0	522	152	
0	0	0	0	0	527	152	
1	0	0	0	0	529	151	
2	0	0	0	0	529	152	
3	0	0	0	0	522	152	
4	0	0	0	0	513	152	
5	0	0	0	0	506	152	
6	0	0	0	0	503	152	
7	0	0	0	0	505	151	
8	0	0	0	0	510	152	
9	0	0	0	0	518	152	
10	0	0	0	0	524	152	
11	0	0	0	0	525	151	
12	0	0	0	0	522	152	
13	0	0	0	0	513	152	
14	0	0	0	0	505	152	
15	0	0	0	0	499	152	
0	0	0	0	0	492	152	
1	0	0	0	0	486	152	
2	0	0	0	0	483	152	
3	0	0	0	0	483	152	
4	0	0	0	0	485	152	
5	0	0	0	0	486	152	
6	0	0	0	0	488	152	
7	0	0	0	0	487	151	
8	0	0	0	0	486	152	
9	0	0	0	0	490	152	
10	0	0	0	0	507	152	
11	0	0	0	0	530	152	
12	0	0	0	0	555	151	
13	0	0	0	0	574	151	
14	0	0	0	0	580	152	
15	0	0	0	0	579	152	
0	0	0	0	0	570	151	
1	0	0	0	0	553	151	
2	0	0	0	0	533	152	
3	0	0	0	0	516	152	
4	0	0	0	0	503	152	
5	0	0	0	0	493	152	
6	0	0	0	0	487	152	
7	0	0	0	0	484	152	
8	0	0	0	0	481	152	
9	0	0	0	0	480	152	
10	0	0	0	0	482	152	
11	0	0	0	0	482	152	
12	0	0	0	0	484	152	
13	0	0	0	0	487	152	
14	0	0	0	0	488	152	
15	0	0	0	0	489	152	
0	0	0	0	0	492	152	
1	0	0	0	0	495	152	
2	0	0	0	0	499	152	
3	0	0	0	0	499	152	
4	0	0	0	0	500	152	
5	0	0	0	0	498	152	
6	0	0	0	0	496	152	
7	0	0	0	0	495	152	
8	0	0	0	0	493	152	
9	0	0	0	0	492	152	
10	0	0	0	0	490	152	
11	0	0	0	0	492	152	
12	0	0	0	0	494	152	
13	0	0	0	0	496	152	
14	0	0	0	0	500	152	
15	0	0	0	0	503	152	
0	0	0	0	0	507	152	
1	0	0	0	0	511	152	
2	0	0	0	0	513	152	
3	0	0	0	0	515	152	
4	0	0	0	0	516	152	
5	0	0	0	0	514	152	
6	0	0	0	0	512	152	
7	0	0	0	0	510	152	
8	0	0	0	0	507	152	
9	0	0	0	0	504	152	
10	0	0	0	0	502	152	
11	0	0	0	0	500	152	
12	0	0	0	0	500	152	
13	0	0	0	0	501	152	
14	0	0	0	0	503	152	
15	0	0	0	0	508	152	
0	0	0	0	0	509	152	
1	0	0	0	0	511	152	
2	0	0	0	0	511	152	
3	0	0	0	0	510	152	
4	0	0	0	0	510	152	
5	0	0	0	0	508	152	
6	0	0	0	0	506	152	
7	0	0	0	0	504	152	
8	0	0	0	0	500	152	
9	0	0	0	0	497	152	
10	0	0	0	0	496	152	
11	0	0	0	0	496	152	
12	0	0	0	0	496	152	
13	0	0	0	0	496	152	
14	0	0	0	0	496	152	
15	0	0	0	0	498	152	
0	0	0	0	0	500	152	
1	0	0	0	0	504	152	
2	0	0	0	0	507	152	
3	0	0	0	0	509	152	
4	0	0	0	0	510	152	
5	0	0	0	0	509	152	
6	0	0	0	0	507	152	
7	0	0	0	0	503	152	
8	0	0	0	0	498	152	
9	0	0	0	0	492	152	
10	0	0	0	0	487	152	
11	0	0	0	0	483	152	
12	0	0	0	0	480	153	
13	0	0	0	0	477	152	
14	0	0	0	0	475	152	
15	0	0	0	0	476	152	
0	0	0	0	0	480	152	
1	0	0	0	0	484	152	
2	0	0	0	0	487	153	
3	0	0	0	0	490	152	
4	0	0	0	0	496	152	
5	0	0	0	0	500	152	
6	0	0	0	0	501	152	
7	0	0	0	0	496	153	
8	0	0	0	0	488	152	
9	0	0	0	0	483	152	
10	0	0	0	0	483	152	
11	0	0	0	0	483	152	
12	0	0	0	0	483	152	
13	0	0	0	0	483	152	
14	0	0	0	0	484	153	
15	0	0	0	0	487	152	
0	0	0	0	0	491	152	
1	0	0	0	0	494	152	
2	0	0	0	0	497	153	
3	0	0	0	0	502	153	
4	0	0	0	0	509	152	
5	0	0	0	0	515	152	
6	0	0	0	0	519	153	
7	0	0	0	0	519	152	
8	0	0	0	0	517	152	
9	0	0	0	0	513	152	
10	0	0	0	0	507	152	
11	0	0	0	0	499	153	
12	0	0	0	0	494	153	
13	0	0	0	0	492	152	
14	0	0	0	0	491	152	
15	0	0	0	0	489	153	
0	0	0	0	0	486	153	
1	0	0	0	0	485	153	
2	0	0	0	0	485	152	
3	0	0	0	0	484	152	
4	0	0	0	0	485	153	
5	0	0	0	0	486	153	
6	0	0	0	0	487	153	
7	0	0	0	0	487	152	
8	0	0	0	0	486	152	
9	0	0	0	0	486	152	
10	0	0	0	0	487	153	
11	0	0	0	0	491	153	
12	0	0	0	0	496	152	
13	0	0	0	0	499	153	
14	0	0	0	0	500	153	
15	0	0	0	0	497	153	
0	0	0	0	0	491	152	
1	0	0	0	0	488	153	
2	0	0	0	0	493	153	
3	0	0	0	0	499	153	
4	0	0	0	0	503	152	
5	0	0	0	0	503	152	
6	0	0	0	0	499	153	
7	0	0	0	0	500	153	
8	0	0	0	0	499	153	
9	0	0	0	0	499	152	
10	0	0	0	0	500	152	
11	0	0	0	0	497	153	
12	0	0	0	0	494	153	
13	0	0	0	0	491	153	
14	0	0	0	0	489	152	
15	0	0	0	0	492	152	
0	0	0	0	0	497	153	
1	0	0	0	0	501	153	
2	0	0	0	0	501	152	
3	0	0	0	0	500	152	
4	0	0	0	0	500	152	
5	0	0	0	0	500	153	
6	0	0	0	0	499	153	
7	0	0	0	0	496	152	
8	0	0	0	0	492	152	
9	0	0	0	0	484	152	
10	0	0	0	0	475	153	
11	0	0	0	0	466	153	
12	0	0	0	0	458	153	
13	0	0	0	0	453	152	
14	0	0	0	0	452	152	
15	0	0	0	0	452	153	
0	0	0	0	0	453	153	
1	0	0	0	0	453	153	
2	0	0	0	0	454	152	
3	0	0	0	0	456	152	
4	0	0	0	0	463	153	
5	0	0	0	0	475	153	
6	0	0	0	0	486	153	
7	0	0	0	0	494	152	
8	0	0	0	0	495	152	
9	0	0	0	0	489	153	
10	0	0	0	0	483	153	
11	0	0	0	0	478	152	
12	0	0	0	0	472	152	
13	0	0	0	0	468	153	
14	0	0	0	0	463	153	
15	0	0	0	0	461	153	
0	0	0	0	0	460	153	
1	0	0	0	0	461	153	
2	0	0	0	0	466	152	
3	0	0	0	0	474	153	
4	0	0	0	0	486	153	
5	0	0	0	0	496	153	
6	0	0	0	0	505	153	
7	0	0	0	0	513	152	
8	0	0	0	0	519	153	
9	0	0	0	0	526	153	
10	0	0	0	0	532	152	
11	0	0	0	0	531	152	
12	0	0	0	0	525	153	
13	0	0	0	0	515	153	
14	0	0	0	0	505	153	
15	0	0	0	0	493	152	
0	0	0	0	0	483	152	
1	0	0	0	0	478	152	
2	0	0	0	0	474	153	
3	0	0	0	0	471	153	
4	0	0	0	0	469	153	
5	0	0	0	0	468	153	
6	0	0	0	0	470	152	
7	0	0	0	0	473	152	
8	0	0	0	0	480	153	
9	0	0	0	0	493	153	
10	0	0	0	0	508	153	
11	0	0	0	0	520	153	
12	0	0	0	0	532	152	
13	0	0	0	0	540	152	
14	0	0	0	0	546	152	
15	0	0	0	0	547	153	
0	0	0	0	0	542	153	
1	0	0	0	0	534	153	
2	0	0	0	0	527	152	
3	0	0	0	0	518	152	
4	0	0	0	0	514	153	
5	0	0	0	0	512	153	
6	0	0	0	0	508	153	
7	0	0	0	0	506	153	
8	0	0	0	0	505	152	
9	0	0	0	0	507	153	
10	0	0	0	0	511	153	
11	0	0	0	0	519	153	
12	0	0	0	0	526	152	
13	0	0	0	0	530	152	
14	0	0	0	0	527	153	
15	0	0	0	0	519	153	
0	0	0	0	0	507	153	
1	0	0	0	0	500	153	
2	0	0	0	0	498	153	
3	0	0	0	0	499	152	
4	0	0	0	0	502	153	
5	0	0	0	0	502	153	
6	0	0	0	0	506	153	
7	0	0	0	0	514	153	
8	0	0	0	0	525	152	
9	0	0	0	0	534	152	
10	0	0	0	0	539	153	
11	0	0	0	0	538	153	
12	0	0	0	0	532	153	
13	0	0	0	0	525	153	
14	0	0	0	0	518	153	
15	0	0	0	0	515	152	
0	0	0	0	0	513	153	
1	0	0	0	0	512	153	
2	0	0	0	0	512	153	
3	0	0	0	0	512	153	
4	0	0	0	0	514	153	
5	0	0	0	0	516	153	
6	0	0	0	0	518	152	
7	0	0	0	0	520	153	
8	0	0	0	0	521	153	
9	0	0	0	0	521	153	
10	0	0	0	0	524	153	
11	0	0	0	0	524	153	
12	0	0	0	0	523	152	
13	0	0	0	0	521	153	
14	0	0	0	0	515	153	
15	0	0	0	0	510	153	
0	0	0	0	0	505	153	
1	0	0	0	0	502	153	
2	0	0	0	0	505	153	
3	0	0	0	0	513	153	
4	0	0	0	0	524	153	
5	0	0	0	0	532	152	
6	0	0	0	0	533	152	
7	0	0	0	0	529	153	
8	0	0	0	0	524	153	
9	0	0	0	0	524	153	
10	0	0	0	0	526	153	
11	0	0	0	0	529	153	
12	0	0	0	0	531	152	
13	0	0	0	0	531	153	
14	0	0	0	0	530	153	
15	0	0	0	0	525	153	
0	0	0	0	0	520	153	
1	0	0	0	0	517	153	
2	0	0	0	0	515	152	
3	0	0	0	0	513	153	
4	0	0	0	0	515	153	
5	0	0	0	0	518	153	
6	0	0	0	0	523	153	
7	0	0	0	0	526	152	
8	0	0	0	0	529	153	
9	0	0	0	0	532	153	
10	0	0	0	0	536	153	
11	0	0	0	0	538	153	
12	0	0	0	0	538	153	
13	0	0	0	0	538	153	
14	0	0	0	0	536	153	
15	0	0	0	0	532	153	
0	0	0	0	0	527	152	
1	0	0	0	0	522	153	
2	0	0	0	0	519	153	
3	0	0	0	0	518	153	
4	0	0	0	0	516	153	
5	0	0	0	0	517	153	
6	0	0	0	0	520	153	
7	0	0	0	0	525	153	
8	0	0	0	0	529	153	
9	0	0	0	0	532	152	
10	0	0	0	0	535	153	
11	0	0	0	0	540	153	
12	0	0	0	0	546	153	
13	0	0	0	0	549	153	
14	0	0	0	0	548	153	
15	0	0	0	0	543	152	
0	0	0	0	0	535	153	
1	0	0	0	0	527	153	
2	0	0	0	0	518	153	
3	0	0	0	0	511	153	
4	0	0	0	0	507	153	
5	0	0	0	0	504	153	
6	0	0	0	0	502	153	
7	0	0	0	0	500	153	
8	0	0	0	0	500	153	
9	0	0	0	0	506	153	
10	0	0	0	0	515	154	
11	0	0	0	0	531	153	
12	0	0	0	0	550	153	
13	0	0	0	0	563	153	
14	0	0	0	0	568	153	
15	0	0	0	0	561	152	
0	0	0	0	0	550	154	
1	0	0	0	0	537	153	
2	0	0	0	0	527	153	
3	0	0	0	0	518	153	
4	0	0	0	0	510	153	
5	0	0	0	0	505	153	
6	0	0	0	0	503	154	
7	0	0	0	0	501	153	
8	0	0	0	0	503	153	
9	0	0	0	0	505	153	
10	0	0	0	0	510	153	
11	0	0	0	0	516	153	
12	0	0	0	0	523	154	
13	0	0	0	0	527	153	
14	0	0	0	0	531	153	
15	0	0	0	0	536	153	
0	0	0	0	0	540	153	
1	0	0	0	0	540	154	
2	0	0	0	0	537	153	
3	0	0	0	0	532	153	
4	0	0	0	0	526	153	
5	0	0	0	0	522	153	
6	0	0	0	0	521	153	
7	0	0	0	0	521	153	
8	0	0	0	0	521	153	
9	0	0	0	0	523	153	
10	0	0	0	0	527	153	
11	0	0	0	0	532	154	
12	0	0	0	0	538	153	
13	0	0	0	0	543	153	
14	0	0	0	0	547	153	
15	0	0	0	0	549	153	
0	0	0	0	0	548	154	
1	0	0	0	0	547	153	
2	0	0	0	0	545	153	
3	0	0	0	0	543	153	
4	0	0	0	0	541	153	
5	0	0	0	0	538	154	
6	0	0	0	0	536	154	
7	0	0	0	0	534	153	
8	0	0	0	0	532	153	
9	0	0	0	0	530	153	
10	0	0	0	0	528	153	
11	0	0	0	0	530	154	
12	0	0	0	0	532	153	
13	0	0	0	0	536	153	
14	0	0	0	0	541	153	
15	0	0	0	0	545	153	
0	0	0	0	0	546	154	
1	0	0	0	0	546	153	
2	0	0	0	0	548	153	
3	0	0	0	0	549	153	
4	0	0	0	0	552	153	
5	0	0	0	0	558	153	
6	0	0	0	0	564	153	
7	0	0	0	0	573	153	
8	0	0	0	0	579	152	
9	0	0	0	0	583	153	
10	0	0	0	0	584	153	
11	0	0	0	0	579	153	
12	0	0	0	0	580	153	
13	0	0	0	0	582	153	
14	0	0	0	0	580	153	
15	0	0	0	0	576	154	
0	0	0	0	0	571	153	
1	0	0	0	0	566	153	
2	0	0	0	0	562	153	
3	0	0	0	0	560	154	
4	0	0	0	0	557	154	
5	0	0	0	0	555	153	
6	0	0	0	0	553	153	
7	0	0	0	0	551	153	
8	0	0	0	0	551	154	
9	0	0	0	0	553	154	
10	0	0	0	0	557	153	
11	0	0	0	0	564	153	
12	0	0	0	0	573	153	
13	0	0	0	0	582	153	
14	0	0	0	0	588	154	
15	0	0	0	0	592	153	
0	0	0	0	0	594	153	
1	0	0	0	0	595	153	
2	0	0	0	0	596	153	
3	0	0	0	0	594	154	
4	0	0	0	0	590	153	
5	0	0	0	0	587	153	
6	0	0	0	0	585	153	
7	0	0	0	0	584	154	
8	0	0	0	0	587	154	
9	0	0	0	0	588	154	
10	0	0	0	0	592	153	
11	0	0	0	0	598	153	
12	0	0	0	0	601	153	
13	0	0	0	0	607	153	
14	0	0	0	0	611	154	
15	0	0	0	0	617	153	
0	0	0	0	0	622	153	
1	0	0	0	0	626	153	
2	0	0	0	0	629	153	
3	0	0	0	0	630	153	
4	0	0	0	0	630	153	
5	0	0	0	0	627	153	
6	0	0	0	0	622	152	
7	0	0	0	0	617	153	
8	0	0	0	0	612	154	
9	0	0	0	0	611	154	
10	0	0	0	0	611	153	
11	0	0	0	0	610	153	
12	0	0	0	0	609	153	
13	0	0	0	0	608	153	
14	0	0	0	0	607	153	
15	0	0	0	0	603	154	
0	0	0	0	0	600	154	
1	0	0	0	0	595	154	
2	0	0	0	0	589	153	
3	0	0	0	0	583	153	
4	0	0	0	0	575	153	
5	0	0	0	0	566	154	
6	0	0	0	0	559	154	
7	0	0	0	0	551	154	
8	0	0	0	0	543	153	
9	0	0	0	0	534	153	
10	0	0	0	0	527	154	
11	0	0	0	0	521	154	
12	0	0	0	0	516	154	
13	0	0	0	0	513	154	
14	0	0	0	0	512	153	
15	0	0	0	0	513	154	
0	0	0	0	0	515	154	
1	0	0	0	0	518	154	
2	0	0	0	0	521	154	
3	0	0	0	0	521	153	
4	0	0	0	0	520	154	
5	0	0	0	0	518	154	
6	0	0	0	0	512	154	
7	0	0	0	0	504	153	
8	0	0	0	0	495	153	
9	0	0	0	0	489	154	
10	0	0	0	0	486	155	
11	0	0	0	0	484	154	
12	0	0	0	0	485	154	
13	0	0	0	0	486	154	
14	0	0	0	0	488	153	
15	0	0	0	0	490	154	
0	0	0	0	0	493	154	
1	0	0	0	0	497	154	
2	0	0	0	0	501	154	
3	0	0	0	0	506	153	
4	0	0	0	0	510	153	
5	0	0	0	0	512	154	
6	0	0	0	0	512	154	
7	0	0	0	0	508	154	
8	0	0	0	0	504	153	
9	0	0	0	0	501	153	
10	0	0	0	0	499	154	
11	0	0	0	0	499	154	
12	0	0	0	0	500	154	
13	0	0	0	0	500	154	
14	0	0	0	0	499	153	
15	0	0	0	0	498	153	
0	0	0	0	0	503	154	
1	0	0	0	0	514	154	
2	0	0	0	0	531	154	
3	0	0	0	0	548	154	
4	0	0	0	0	558	153	
5	0	0	0	0	559	153	
6	0	0	0	0	552	154	
7	0	0	0	0	545	154	
8	0	0	0	0	543	154	
9	0	0	0	0	548	153	
10	0	0	0	0	556	154	
11	0	0	0	0	558	154	
12	0	0	0	0	553	154	
13	0	0	0	0	542	154	
14	0	0	0	0	532	154	
15	0	0	0	0	527	153	
0	0	0	0	0	526	153	
1	0	0	0	0	528	154	
2	0	0	0	0	530	154	
3	0	0	0	0	531	154	
4	0	0	0	0	531	153	
5	0	0	0	0	529	153	
6	0	0	0	0	526	154	
7	0	0	0	0	520	154	
8	0	0	0	0	515	154	
9	0	0	0	0	513	154	
10	0	0	0	0	510	153	
11	0	0	0	0	509	153	
12	0	0	0	0	510	153	
13	0	0	0	0	512	154	
14	0	0	0	0	517	154	
15	0	0	0	0	522	154	
0	0	0	0	0	527	154	
1	0	0	0	0	533	153	
2	0	0	0	0	536	154	
3	0	0	0	0	535	154	
4	0	0	0	0	531	154	
5	0	0	0	0	527	153	
6	0	0	0	0	522	153	
7	0	0	0	0	516	154	
8	0	0	0	0	511	154	
9	0	0	0	0	508	154	
10	0	0	0	0	506	154	
11	0	0	0	0	505	154	
12	0	0	0	0	503	153	
13	0	0	0	0	503	154	
14	0	0	0	0	504	154	
15	0	0	0	0	510	154	
0	0	0	0	0	515	154	
1	0	0	0	0	520	153	
2	0	0	0	0	529	154	
3	0	0	0	0	536	154	
4	0	0	0	0	540	154	
5	0	0	0	0	540	154	
6	0	0	0	0	532	153	
7	0	0	0	0	526	153	
8	0	0	0	0	519	155	
9	0	0	0	0	513	154	
10	0	0	0	0	511	154	
11	0	0	0	0	508	154	
12	0	0	0	0	504	154	
13	0	0	0	0	501	154	
14	0	0	0	0	499	153	
15	0	0	0	0	498	155	
0	0	0	0	0	498	154	
1	0	0	0	0	500	154	
2	0	0	0	0	504	154	
3	0	0	0	0	508	153	
4	0	0	0	0	510	155	
5	0	0	0	0	511	154	
6	0	0	0	0	512	154	
7	0	0	0	0	511	154	
8	0	0	0	0	508	154	
9	0	0	0	0	504	155	
10	0	0	0	0	503	154	
11	0	0	0	0	502	154	
12	0	0	0	0	503	154	
13	0	0	0	0	501	155	
14	0	0	0	0	499	155	
15	0	0	0	0	498	154	
0	0	0	0	0	500	154	
1	0	0	0	0	505	154	
2	0	0	0	0	516	154	
3	0	0	0	0	530	154	
4	0	0	0	0	541	154	
5	0	0	0	0	543	153	
6	0	0	0	0	538	153	
7	0	0	0	0	532	154	
8	0	0	0	0	527	155	
9	0	0	0	0	521	154	
10	0	0	0	0	518	154	
11	0	0	0	0	513	154	
12	0	0	0	0	508	154	
13	0	0	0	0	503	155	
14	0	0	0	0	499	155	
15	0	0	0	0	499	155	
0	0	0	0	0	501	154	
1	0	0	0	0	504	154	
2	0	0	0	0	507	154	
3	0	0	0	0	508	155	
4	0	0	0	0	510	155	
5	0	0	0	0	511	155	
6	0	0	0	0	512	154	
7	0	0	0	0	512	154	
8	0	0	0	0	514	155	
9	0	0	0	0	520	155	
10	0	0	0	0	525	154	
11	0	0	0	0	528	154	
12	0	0	0	0	527	154	
13	0	0	0	0	526	155	
14	0	0	0	0	526	154	
15	0	0	0	0	527	154	
0	0	0	0	0	527	154	
1	0	0	0	0	528	155	
2	0	0	0	0	527	155	
3	0	0	0	0	525	154	
4	0	0	0	0	524	154	
5	0	0	0	0	525	154	
6	0	0	0	0	526	155	
7	0	0	0	0	526	154	
8	0	0	0	0	527	155	
9	0	0	0	0	528	154	
10	0	0	0	0	527	154	
11	0	0	0	0	526	155	
12	0	0	0	0	524	155	
13	0	0	0	0	520	155	
14	0	0	0	0	516	154	
15	0	0	0	0	512	154	
0	0	0	0	0	510	155	
1	0	0	0	0	508	155	
2	0	0	0	0	506	154	
3	0	0	0	0	505	154	
4	0	0	0	0	506	154	
5	0	0	0	0	510	155	
6	0	0	0	0	516	155	
7	0	0	0	0	523	154	
8	0	0	0	0	528	154	
9	0	0	0	0	535	155	
10	0	0	0	0	539	155	
11	0	0	0	0	541	154	
12	0	0	0	0	539	154	
13	0	0	0	0	532	153	
14	0	0	0	0	527	155	
15	0	0	0	0	520	155	
0	0	0	0	0	513	154	
1	0	0	0	0	508	154	
2	0	0	0	0	505	154	
3	0	0	0	0	506	155	
4	0	0	0	0	507	155	
5	0	0	0	0	508	155	
6	0	0	0	0	510	154	
7	0	0	0	0	510	155	
8	0	0	0	0	511	155	
9	0	0	0	0	513	154	
10	0	0	0	0	514	154	
11	0	0	0	0	516	155	
12	0	0	0	0	517	155	
13	0	0	0	0	517	155	
14	0	0	0	0	517	154	
15	0	0	0	0	515	154	
0	0	0	0	0	516	155	
1	0	0	0	0	518	155	
2	0	0	0	0	522	155	
3	0	0	0	0	526	154	
4	0	0	0	0	528	154	
5	0	0	0	0	526	154	
6	0	0	0	0	525	155	
7	0	0	0	0	526	155	
8	0	0	0	0	529	154	
9	0	0	0	0	532	154	
10	0	0	0	0	536	154	
11	0	0	0	0	538	155	
12	0	0	0	0	538	155	
13	0	0	0	0	534	155	
14	0	0	0	0	527	154	
15	0	0	0	0	519	154	
0	0	0	0	0	513	154	
1	0	0	0	0	511	155	
2	0	0	0	0	513	155	
3	0	0	0	0	513	154	
4	0	0	0	0	513	154	
5	0	0	0	0	511	155	
6	0	0	0	0	511	155	
7	0	0	0	0	512	154	
8	0	0	0	0	513	154	
9	0	0	0	0	516	155	
10	0	0	0	0	521	155	
11	0	0	0	0	529	154	
12	0	0	0	0	536	155	
13	0	0	0	0	540	155	
14	0	0	0	0	543	155	
15	0	0	0	0	541	154	
0	0	0	0	0	536	154	
1	0	0	0	0	531	155	
2	0	0	0	0	525	155	
3	0	0	0	0	522	154	
4	0	0	0	0	520	154	
5	0	0	0	0	523	155	
6	0	0	0	0	524	155	
7	0	0	0	0	520	154	
8	0	0	0	0	516	154	
9	0	0	0	0	514	155	
10	0	0	0	0	516	155	
11	0	0	0	0	521	155	
12	0	0	0	0	526	154	
13	0	0	0	0	529	154	
14	0	0	0	0	531	155	
15	0	0	0	0	529	155	
0	0	0	0	0	526	155	
1	0	0	0	0	521	154	
2	0	0	0	0	516	154	
3	0	0	0	0	511	155	
4	0	0	0	0	505	155	
5	0	0	0	0	501	155	
6	0	0	0	0	498	154	
7	0	0	0	0	499	154	
8	0	0	0	0	500	155	
9	0	0	0	0	503	155	
10	0	0	0	0	506	155	
11	0	0	0	0	510	154	
12	0	0	0	0	513	154	
13	0	0	0	0	515	154	
14	0	0	0	0	515	155	
15	0	0	0	0	514	155	
0	0	0	0	0	511	154	
1	0	0	0	0	509	155	
2	0	0	0	0	506	155	
3	0	0	0	0	504	155	
4	0	0	0	0	504	154	
5	0	0	0	0	504	154	
6	0	0	0	0	504	155	
7	0	0	0	0	505	155	
8	0	0	0	0	507	155	
9	0	0	0	0	510	155	
10	0	0	0	0	515	154	
11	0	0	0	0	518	154	
12	0	0	0	0	520	155	
13	0	0	0	0	520	155	
14	0	0	0	0	519	155	
15	0	0	0	0	518	154	
0	0	0	0	0	517	154	
1	0	0	0	0	514	155	
2	0	0	0	0	511	155	
3	0	0	0	0	506	155	
4	0	0	0	0	502	154	
5	0	0	0	0	500	155	
6	0	0	0	0	499	155	
7	0	0	0	0	500	155	
8	0	0	0	0	503	155	
9	0	0	0	0	504	154	
10	0	0	0	0	505	155	
11	0	0	0	0	508	155	
12	0	0	0	0	511	155	
13	0	0	0	0	513	154	
14	0	0	0	0	515	154	
15	0	0	0	0	515	155	
0	0	0	0	0	513	155	
1	0	0	0	0	510	155	
2	0	0	0	0	507	154	
3	0	0	0	0	503	155	
4	0	0	0	0	499	155	
5	0	0	0	0	497	155	
6	0	0	0	0	495	155	
7	0	0	0	0	495	154	
8	0	0	0	0	496	154	
9	0	0	0	0	496	155	
10	0	0	0	0	498	155	
11	0	0	0	0	500	155	
12	0	0	0	0	503	154	
13	0	0	0	0	508	155	
14	0	0	0	0	510	155	
15	0	0	0	0	511	154	
0	0	0	0	0	510	154	
1	0	0	0	0	507	155	
2	0	0	0	0	504	155	
3	0	0	0	0	502	155	
4	0	0	0	0	498	154	
5	0	0	0	0	495	155	
6	0	0	0	0	493	155	
7	0	0	0	0	491	155	
8	0	0	0	0	489	155	
9	0	0	0	0	489	154	
10	0	0	0	0	490	155	
11	0	0	0	0	490	155	
12	0	0	0	0	491	155	
13	0	0	0	0	492	155	
14	0	0	0	0	493	154	
15	0	0	0	0	495	155	
0	0	0	0	0	496	155	
1	0	0	0	0	496	155	
2	0	0	0	0	495	155	
3	0	0	0	0	493	154	
4	0	0	0	0	491	155	
5	0	0	0	0	488	155	
6	0	0	0	0	486	155	
7	0	0	0	0	483	155	
8	0	0	0	0	481	155	
9	0	0	0	0	481	155	
10	0	0	0	0	481	155	
11	0	0	0	0	482	155	
12	0	0	0	0	486	155	
13	0	0	0	0	489	155	
14	0	0	0	0	492	155	
15	0	0	0	0	494	155	
0	0	0	0	0	496	155	
1	0	0	0	0	495	154	
2	0	0	0	0	492	155	
3	0	0	0	0	489	155	
4	0	0	0	0	487	155	
5	0	0	0	0	484	154	
6	0	0	0	0	482	155	
7	0	0	0	0	480	155	
8	0	0	0	0	479	155	
9	0	0	0	0	480	155	
10	0	0	0	0	481	154	
11	0	0	0	0	483	155	
12	0	0	0	0	486	155	
13	0	0	0	0	490	155	
14	0	0	0	0	492	155	
15	0	0	0	0	494	155	
0	0	0	0	0	495	154	
1	0	0	0	0	496	155	
2	0	0	0	0	496	155	
3	0	0	0	0	496	155	
4	0	0	0	0	492	154	
5	0	0	0	0	490	155	
6	0	0	0	0	488	155	
7	0	0	0	0	487	155	
8	0	0	0	0	484	154	
9	0	0	0	0	481	155	
10	0	0	0	0	480	155	
11	0	0	0	0	480	155	
12	0	0	0	0	481	154	
13	0	0	0	0	483	155	
14	0	0	0	0	486	155	
15	0	0	0	0	489	155	
0	0	0	0	0	491	155	
1	0	0	0	0	492	155	
2	0	0	0	0	492	155	
3	0	0	0	0	492	155	
4	0	0	0	0	490	155	
5	0	0	0	0	488	155	
6	0	0	0	0	486	155	
7	0	0	0	0	483	155	
8	0	0	0	0	481	155	
9	0	0	0	0	481	155	
10	0	0	0	0	480	155	
11	0	0	0	0	480	155	
12	0	0	0	0	480	155	
13	0	0	0	0	480	155	
14	0	0	0	0	480	155	
15	0	0	0	0	482	155	
0	0	0	0	0	483	155	
1	0	0	0	0	484	155	
2	0	0	0	0	483	155	
3	0	0	0	0	483	155	
4	0	0	0	0	482	155	
5	0	0	0	0	481	155	
6	0	0	0	0	479	155	
7	0	0	0	0	478	155	
8	0	0	0	0	476	155	
9	0	0	0	0	476	155	
10	0	0	0	0	476	155	
11	0	0	0	0	475	155	
12	0	0	0	0	472	155	
13	0	0	0	0	470	155	
14	0	0	0	0	471	155	
15	0	0	0	0	477	155	
0	0	0	0	0	487	155	
1	0	0	0	0	500	155	
2	0	0	0	0	510	155	
3	0	0	0	0	513	155	
4	0	0	0	0	513	155	
5	0	0	0	0	509	155	
6	0	0	0	0	502	155	
7	0	0	0	0	497	155	
8	0	0	0	0	491	155	
9	0	0	0	0	486	155	
10	0	0	0	0	483	155	
11	0	0	0	0	480	155	
12	0	0	0	0	480	155	
13	0	0	0	0	481	155	
14	0	0	0	0	483	155	
15	0	0	0	0	487	155	
0	0	0	0	0	490	155	
1	0	0	0	0	495	155	
2	0	0	0	0	498	155	
3	0	0	0	0	500	155	
4	0	0	0	0	503	155	
5	0	0	0	0	504	155	
6	0	0	0	0	502	155	
7	0	0	0	0	497	155	
8	0	0	0	0	492	155	
9	0	0	0	0	488	155	
10	0	0	0	0	483	155	
11	0	0	0	0	480	155	
12	0	0	0	0	480	155	
13	0	0	0	0	483	155	
14	0	0	0	0	488	155	
15	0	0	0	0	492	155	
0	0	0	0	0	497	155	
1	0	0	0	0	500	155	
2	0	0	0	0	504	155	
3	0	0	0	0	507	155	
4	0	0	0	0	508	155	
5	0	0	0	0	507	155	
6	0	0	0	0	504	155	
7	0	0	0	0	502	155	
8	0	0	0	0	500	155	
9	0	0	0	0	497	155	
10	0	0	0	0	493	155	
11	0	0	0	0	491	155	
12	0	0	0	0	490	155	
13	0	0	0	0	494	155	
14	0	0	0	0	499	155	
15	0	0	0	0	507	155	
0	0	0	0	0	515	155	
1	0	0	0	0	523	155	
2	0	0	0	0	529	155	
3	0	0	0	0	530	154	
4	0	0	0	0	527	155	
5	0	0	0	0	521	155	
6	0	0	0	0	513	155	
7	0	0	0	0	507	155	
8	0	0	0	0	503	155	
9	0	0	0	0	497	156	
10	0	0	0	0	489	155	
11	0	0	0	0	485	155	
12	0	0	0	0	483	155	
13	0	0	0	0	481	155	
14	0	0	0	0	481	155	
15	0	0	0	0	483	155	
0	0	0	0	0	484	155	
1	0	0	0	0	488	155	
2	0	0	0	0	492	155	
3	0	0	0	0	499	156	
4	0	0	0	0	509	155	
5	0	0	0	0	522	155	
6	0	0	0	0	533	155	
7	0	0	0	0	540	154	
8	0	0	0	0	538	155	
9	0	0	0	0	526	155	
10	0	0	0	0	513	155	
11	0	0	0	0	503	155	
12	0	0	0	0	495	155	
13	0	0	0	0	489	155	
14	0	0	0	0	486	156	
15	0	0	0	0	486	155	
0	0	0	0	0	488	155	
1	0	0	0	0	492	155	
2	0	0	0	0	496	155	
3	0	0	0	0	501	156	
4	0	0	0	0	508	155	
5	0	0	0	0	517	155	
6	0	0	0	0	523	155	
7	0	0	0	0	528	155	
8	0	0	0	0	529	155	
9	0	0	0	0	529	155	
10	0	0	0	0	527	155	
11	0	0	0	0	521	155	
12	0	0	0	0	515	155	
13	0	0	0	0	509	155	
14	0	0	0	0	505	155	
15	0	0	0	0	503	155	
0	0	0	0	0	500	155	
1	0	0	0	0	499	155	
2	0	0	0	0	498	155	
3	0	0	0	0	498	155	
4	0	0	0	0	500	155	
5	0	0	0	0	504	155	
6	0	0	0	0	507	155	
7	0	0	0	0	508	155	
8	0	0	0	0	510	155	
9	0	0	0	0	510	155	
10	0	0	0	0	511	155	
11	0	0	0	0	511	155	
12	0	0	0	0	511	155	
13	0	0	0	0	512	155	
14	0	0	0	0	512	155	
15	0	0	0	0	508	155	
0	0	0	0	0	504	155	
1	0	0	0	0	501	155	
2	0	0	0	0	500	155	
3	0	0	0	0	502	155	
4	0	0	0	0	504	155	
5	0	0	0	0	508	155	
6	0	0	0	0	508	156	
7	0	0	0	0	504	155	
8	0	0	0	0	500	155	
9	0	0	0	0	497	155	
10	0	0	0	0	495	155	
11	0	0	0	0	494	156	
12	0	0	0	0	495	155	
13	0	0	0	0	496	155	
14	0	0	0	0	498	155	
15	0	0	0	0	502	155	
0	0	0	0	0	505	156	
1	0	0	0	0	507	155	
2	0	0	0	0	508	155	
3	0	0	0	0	506	155	
4	0	0	0	0	507	155	
5	0	0	0	0	506	155	
6	0	0	0	0	505	155	
7	0	0	0	0	503	155	
8	0	0	0	0	502	155	
9	0	0	0	0	499	155	
10	0	0	0	0	494	155	
11	0	0	0	0	491	155	
12	0	0	0	0	490	156	
13	0	0	0	0	490	155	
14	0	0	0	0	493	155	
15	0	0	0	0	496	155	
0	0	0	0	0	499	155	
1	0	0	0	0	500	155	
2	0	0	0	0	500	156	
3	0	0	0	0	507	155	
4	0	0	0	0	518	155	
5	0	0	0	0	529	155	
6	0	0	0	0	534	155	
7	0	0	0	0	534	155	
8	0	0	0	0	528	156	
9	0	0	0	0	520	155	
10	0	0	0	0	513	155	
11	0	0	0	0	509	155	
12	0	0	0	0	508	155	
13	0	0	0	0	510	155	
14	0	0	0	0	510	155	
15	0	0	0	0	507	155	
0	0	0	0	0	500	155	
1	0	0	0	0	493	155	
2	0	0	0	0	489	156	
3	0	0	0	0	489	155	
4	0	0	0	0	490	155	
5	0	0	0	0	495	155	
6	0	0	0	0	502	155	
7	0	0	0	0	509	156	
8	0	0	0	0	512	155	
9	0	0	0	0	515	155	
10	0	0	0	0	515	155	
11	0	0	0	0	517	155	
12	0	0	0	0	517	156	
13	0	0	0	0	514	155	
14	0	0	0	0	511	155	
15	0	0	0	0	508	155	
0	0	0	0	0	503	155	
1	0	0	0	0	497	155	
2	0	0	0	0	499	155	
3	0	0	0	0	505	155	
4	0	0	0	0	513	155	
5	0	0	0	0	521	155	
6	0	0	0	0	524	156	
7	0	0	0	0	521	155	
8	0	0	0	0	517	155	
9	0	0	0	0	516	155	
10	0	0	0	0	521	155	
11	0	0	0	0	528	156	
12	0	0	0	0	536	155	
13	0	0	0	0	542	155	
14	0	0	0	0	541	155	
15	0	0	0	0	536	155	
0	0	0	0	0	530	154	
1	0	0	0	0	523	155	
2	0	0	0	0	516	155	
3	0	0	0	0	509	155	
4	0	0	0	0	502	155	
5	0	0	0	0	499	155	
6	0	0	0	0	501	155	
7	0	0	0	0	508	155	
8	0	0	0	0	519	155	
9	0	0	0	0	531	155	
10	0	0	0	0	541	155	
11	0	0	0	0	544	155	
12	0	0	0	0	544	155	
13	0	0	0	0	538	155	
14	0	0	0	0	528	155	
15	0	0	0	0	520	155	
0	0	0	0	0	516	155	
1	0	0	0	0	516	155	
2	0	0	0	0	513	155	
3	0	0	0	0	513	155	
4	0	0	0	0	516	155	
5	0	0	0	0	520	155	
6	0	0	0	0	524	155	
7	0	0	0	0	524	156	
8	0	0	0	0	523	155	
9	0	0	0	0	523	155	
10	0	0	0	0	523	155	
11	0	0	0	0	521	155	
12	0	0	0	0	520	155	
13	0	0	0	0	519	155	
14	0	0	0	0	519	156	
15	0	0	0	0	520	155	
0	0	0	0	0	520	155	
1	0	0	0	0	521	155	
2	0	0	0	0	524	155	
3	0	0	0	0	526	155	
4	0	0	0	0	527	155	
5	0	0	0	0	528	155	
6	0	0	0	0	527	155	
7	0	0	0	0	526	155	
8	0	0	0	0	527	155	
9	0	0	0	0	527	155	
10	0	0	0	0	525	155	
11	0	0	0	0	523	155	
12	0	0	0	0	520	155	
13	0	0	0	0	517	155	
14	0	0	0	0	512	156	
15	0	0	0	0	509	155	
0	0	0	0	0	507	155	
1	0	0	0	0	506	155	
2	0	0	0	0	508	155	
3	0	0	0	0	513	155	
4	0	0	0	0	522	155	
5	0	0	0	0	532	155	
6	0	0	0	0	540	155	
7	0	0	0	0	541	156	
8	0	0	0	0	536	155	
9	0	0	0	0	528	155	
10	0	0	0	0	524	155	
11	0	0	0	0	524	155	
12	0	0	0	0	529	155	
13	0	0	0	0	535	155	
14	0	0	0	0	540	155	
15	0	0	0	0	543	155	
0	0	0	0	0	541	155	
1	0	0	0	0	535	155	
2	0	0	0	0	527	155	
3	0	0	0	0	520	155	
4	0	0	0	0	518	155	
5	0	0	0	0	517	155	
6	0	0	0	0	516	156	
7	0	0	0	0	516	155	
8	0	0	0	0	516	155	
9	0	0	0	0	517	155	
10	0	0	0	0	518	155	
11	0	0	0	0	521	156	
12	0	0	0	0	526	155	
13	0	0	0	0	530	155	
14	0	0	0	0	530	155	
15	0	0	0	0	526	155	
0	0	0	0	0	521	156	
1	0	0	0	0	517	155	
2	0	0	0	0	513	155	
3	0	0	0	0	510	155	
4	0	0	0	0	508	155	
5	0	0	0	0	511	155	
6	0	0	0	0	513	156	
7	0	0	0	0	518	155	
8	0	0	0	0	523	155	
9	0	0	0	0	526	155	
10	0	0	0	0	531	155	
11	0	0	0	0	538	156	
12	0	0	0	0	543	155	
13	0	0	0	0	547	155	
14	0	0	0	0	547	155	
15	0	0	0	0	545	155	
0	0	0	0	0	541	155	
1	0	0	0	0	536	156	
2	0	0	0	0	529	155	
3	0	0	0	0	524	155	
4	0	0	0	0	521	155	
5	0	0	0	0	518	155	
6	0	0	0	0	515	156	
7	0	0	0	0	514	155	
8	0	0	0	0	513	155	
9	0	0	0	0	514	155	
10	0	0	0	0	516	155	
11	0	0	0	0	519	156	
12	0	0	0	0	523	155	
13	0	0	0	0	527	155	
14	0	0	0	0	532	155	
15	0	0	0	0	537	155	
0	0	0	0	0	539	155	
1	0	0	0	0	538	155	
2	0	0	0	0	532	155	
3	0	0	0	0	527	155	
4	0	0	0	0	522	155	
5	0	0	0	0	518	156	
6	0	0	0	0	515	155	
7	0	0	0	0	514	155	
8	0	0	0	0	515	155	
9	0	0	0	0	515	156	
10	0	0	0	0	514	155	
11	0	0	0	0	512	155	
12	0	0	0	0	510	155	
13	0	0	0	0	510	155	
14	0	0	0	0	510	156	
15	0	0	0	0	512	155	
0	0	0	0	0	513	155	
1	0	0	0	0	514	155	
2	0	0	0	0	515	155	
3	0	0	0	0	515	156	
4	0	0	0	0	517	156	
5	0	0	0	0	521	155	
6	0	0	0	0	525	155	
7	0	0	0	0	529	156	
8	0	0	0	0	531	155	
9	0	0	0	0	530	155	
10	0	0	0	0	527	155	
11	0	0	0	0	520	156	
12	0	0	0	0	515	155	
13	0	0	0	0	512	155	
14	0	0	0	0	512	155	
15	0	0	0	0	515	156	
0	0	0	0	0	519	155	
1	0	0	0	0	520	155	
2	0	0	0	0	518	155	
3	0	0	0	0	513	155	
4	0	0	0	0	507	156	
5	0	0	0	0	502	156	
6	0	0	0	0	497	156	
7	0	0	0	0	495	155	
8	0	0	0	0	493	155	
9	0	0	0	0	494	155	
10	0	0	0	0	497	156	
11	0	0	0	0	500	156	
12	0	0	0	0	503	155	
13	0	0	0	0	505	155	
14	0	0	0	0	507	156	
15	0	0	0	0	511	155	
0	0	0	0	0	516	155	
1	0	0	0	0	518	155	
2	0	0	0	0	516	156	
3	0	0	0	0	511	156	
4	0	0	0	0	503	155	
5	0	0	0	0	496	155	
6	0	0	0	0	489	155	
7	0	0	0	0	485	156	
8	0	0	0	0	483	156	
9	0	0	0	0	484	155	
10	0	0	0	0	489	155	
11	0	0	0	0	496	155	
12	0	0	0	0	507	155	
13	0	0	0	0	521	156	
14	0	0	0	0	530	155	
15	0	0	0	0	534	155	
0	0	0	0	0	529	155	
1	0	0	0	0	522	155	
2	0	0	0	0	516	156	
3	0	0	0	0	510	155	
4	0	0	0	0	508	155	
5	0	0	0	0	504	155	
6	0	0	0	0	501	156	
7	0	0	0	0	497	155	
8	0	0	0	0	494	155	
9	0	0	0	0	492	155	
10	0	0	0	0	491	155	
11	0	0	0	0	491	156	
12	0	0	0	0	493	156	
13	0	0	0	0	496	155	
14	0	0	0	0	500	155	
15	0	0	0	0	502	155	
0	0	0	0	0	504	156	
1	0	0	0	0	506	155	
2	0	0	0	0	507	155	
3	0	0	0	0	507	155	
4	0	0	0	0	505	156	
5	0	0	0	0	503	156	
6	0	0	0	0	500	156	
7	0	0	0	0	497	155	
8	0	0	0	0	495	155	
9	0	0	0	0	494	155	
10	0	0	0	0	494	155	
11	0	0	0	0	493	156	
12	0	0	0	0	492	156	
13	0	0	0	0	493	156	
14	0	0	0	0	495	155	
15	0	0	0	0	498	155	
0	0	0	0	0	501	155	
1	0	0	0	0	505	156	
2	0	0	0	0	510	156	
3	0	0	0	0	511	155	
4	0	0	0	0	512	155	
5	0	0	0	0	512	155	
6	0	0	0	0	510	156	
7	0	0	0	0	506	156	
8	0	0	0	0	502	155	
9	0	0	0	0	497	155	
10	0	0	0	0	495	155	
11	0	0	0	0	493	156	
12	0	0	0	0	492	156	
13	0	0	0	0	492	156	
14	0	0	0	0	492	155	
15	0	0	0	0	495	155	
0	0	0	0	0	499	155	
1	0	0	0	0	504	156	
2	0	0	0	0	507	156	
3	0	0	0	0	506	156	
4	0	0	0	0	502	155	
5	0	0	0	0	492	155	
6	0	0	0	0	484	156	
7	0	0	0	0	478	156	
8	0	0	0	0	473	156	
9	0	0	0	0	471	155	
10	0	0	0	0	472	155	
11	0	0	0	0	483	156	
12	0	0	0	0	501	156	
13	0	0	0	0	519	155	
14	0	0	0	0	529	155	
15	0	0	0	0	528	156	
0	0	0	0	0	521	156	
1	0	0	0	0	512	155	
2	0	0	0	0	505	155	
3	0	0	0	0	499	156	
4	0	0	0	0	497	156	
5	0	0	0	0	496	156	
6	0	0	0	0	497	155	
7	0	0	0	0	499	155	
8	0	0	0	0	503	156	
9	0	0	0	0	505	156	
10	0	0	0	0	510	156	
11	0	0	0	0	515	155	
12	0	0	0	0	519	155	
13	0	0	0	0	521	155	
14	0	0	0	0	521	156	
15	0	0	0	0	519	155	
0	0	0	0	0	517	155	
1	0	0	0	0	516	155	
2	0	0	0	0	515	155	
3	0	0	0	0	514	156	
4	0	0	0	0	513	156	
5	0	0	0	0	509	156	
6	0	0	0	0	505	155	
7	0	0	0	0	503	155	
8	0	0	0	0	500	155	
9	0	0	0	0	497	156	
10	0	0	0	0	494	156	
11	0	0	0	0	492	156	
12	0	0	0	0	490	155	
13	0	0	0	0	491	155	
14	0	0	0	0	493	156	
15	0	0	0	0	495	156	
0	0	0	0	0	497	155	
1	0	0	0	0	501	155	
2	0	0	0	0	502	155	
3	0	0	0	0	506	156	
4	0	0	0	0	510	156	
5	0	0	0	0	513	155	
6	0	0	0	0	514	155	
7	0	0	0	0	513	155	
8	0	0	0	0	512	156	
9	0	0	0	0	508	156	
10	0	0	0	0	504	155	
11	0	0	0	0	501	155	
12	0	0	0	0	499	156	
13	0	0	0	0	499	156	
14	0	0	0	0	499	155	
15	0	0	0	0	502	155	
0	0	0	0	0	504	156	
1	0	0	0	0	506	156	
2	0	0	0	0	508	156	
3	0	0	0	0	509	155	
4	0	0	0	0	510	155	
5	0	0	0	0	512	155	
6	0	0	0	0	512	156	
7	0	0	0	0	511	156	
8	0	0	0	0	508	155	
9	0	0	0	0	503	155	
10	0	0	0	0	500	155	
11	0	0	0	0	498	156	
12	0	0	0	0	497	156	
13	0	0	0	0	497	155	
14	0	0	0	0	496	155	
15	0	0	0	0	495	155	
0	0	0	0	0	495	156	
1	0	0	0	0	499	156	
2	0	0	0	0	505	156	
3	0	0	0	0	515	155	
4	0	0	0	0	525	155	
5	0	0	0	0	532	155	
6	0	0	0	0	535	156	
7	0	0	0	0	536	156	
8	0	0	0	0	540	155	
9	0	0	0	0	540	155	
10	0	0	0	0	535	155	
11	0	0	0	0	525	155	
12	0	0	0	0	512	156	
13	0	0	0	0	505	156	
14	0	0	0	0	501	155	
15	0	0	0	0	498	155	
0	0	0	0	0	497	155	
1	0	0	0	0	497	156	
2	0	0	0	0	499	156	
3	0	0	0	0	505	156	
4	0	0	0	0	510	155	
5	0	0	0	0	515	155	
6	0	0	0	0	521	155	
7	0	0	0	0	526	156	
8	0	0	0	0	528	156	
9	0	0	0	0	529	155	
10	0	0	0	0	531	155	
11	0	0	0	0	529	155	
12	0	0	0	0	528	155	
13	0	0	0	0	527	156	
14	0	0	0	0	525	155	
15	0	0	0	0	524	155	
0	0	0	0	0	522	155	
1	0	0	0	0	522	155	
2	0	0	0	0	524	156	
3	0	0	0	0	529	155	
4	0	0	0	0	536	155	
5	0	0	0	0	543	155	
6	0	0	0	0	547	155	
7	0	0	0	0	549	156	
8	0	0	0	0	550	155	
9	0	0	0	0	551	155	
10	0	0	0	0	552	155	
11	0	0	0	0	551	155	
12	0	0	0	0	549	155	
13	0	0	0	0	547	155	
14	0	0	0	0	545	155	
15	0	0	0	0	544	156	
0	0	0	0	0	542	155	
1	0	0	0	0	541	155	
2	0	0	0	0	540	155	
3	0	0	0	0	539	156	
4	0	0	0	0	538	156	
5	0	0	0	0	538	155	
6	0	0	0	0	537	155	
7	0	0	0	0	537	155	
8	0	0	0	0	535	156	
9	0	0	0	0	529	155	
10	0	0	0	0	524	155	
11	0	0	0	0	519	156	
12	0	0	0	0	514	156	
13	0	0	0	0	510	156	
14	0	0	0	0	505	155	
15	0	0	0	0	498	155	
0	0	0	0	0	492	156	
1	0	0	0	0	486	156	
2	0	0	0	0	483	156	
3	0	0	0	0	483	155	
4	0	0	0	0	483	155	
5	0	0	0	0	485	155	
6	0	0	0	0	485	156	
7	0	0	0	0	486	156	
8	0	0	0	0	485	155	
9	0	0	0	0	483	155	
10	0	0	0	0	480	155	
11	0	0	0	0	476	156	
12	0	0	0	0	472	155	
13	0	0	0	0	467	155	
14	0	0	0	0	463	156	
15	0	0	0	0	458	156	
0	0	0	0	0	454	155	
1	0	0	0	0	454	155	
2	0	0	0	0	456	156	
3	0	0	0	0	459	156	
4	0	0	0	0	463	156	
5	0	0	0	0	469	155	
6	0	0	0	0	475	156	
7	0	0	0	0	481	156	
8	0	0	0	0	490	155	
9	0	0	0	0	497	155	
10	0	0	0	0	501	156	
11	0	0	0	0	504	156	
12	0	0	0	0	506	156	
13	0	0	0	0	506	155	
14	0	0	0	0	506	155	
15	0	0	0	0	504	156	
0	0	0	0	0	504	156	
1	0	0	0	0	503	156	
2	0	0	0	0	502	155	
3	0	0	0	0	502	155	
4	0	0	0	0	504	155	
5	0	0	0	0	509	156	
6	0	0	0	0	512	156	
7	0	0	0	0	517	155	
8	0	0	0	0	521	155	
9	0	0	0	0	524	156	
10	0	0	0	0	528	155	
11	0	0	0	0	529	155	
12	0	0	0	0	529	156	
13	0	0	0	0	528	155	
14	0	0	0	0	525	155	
15	0	0	0	0	523	155	
0	0	0	0	0	520	155	
1	0	0	0	0	518	156	
2	0	0	0	0	517	155	
3	0	0	0	0	516	155	
4	0	0	0	0	518	155	
5	0	0	0	0	519	156	
6	0	0	0	0	520	156	
7	0	0	0	0	523	156	
8	0	0	0	0	525	155	
9	0	0	0	0	527	155	
10	0	0	0	0	529	156	
11	0	0	0	0	529	155	
12	0	0	0	0	530	155	
13	0	0	0	0	528	155	
14	0	0	0	0	527	155	
15	0	0	0	0	525	156	
0	0	0	0	0	523	156	
1	0	0	0	0	520	155	
2	0	0	0	0	516	155	
3	0	0	0	0	514	156	
4	0	0	0	0	511	156	
5	0	0	0	0	511	155	
6	0	0	0	0	513	155	
7	0	0	0	0	515	156	
8	0	0	0	0	519	156	
9	0	0	0	0	521	155	
10	0	0	0	0	523	155	
11	0	0	0	0	523	155	
12	0	0	0	0	523	156	
13	0	0	0	0	523	156	
14	0	0	0	0	521	155	
15	0	0	0	0	518	155	
0	0	0	0	0	515	156	
1	0	0	0	0	512	155	
2	0	0	0	0	510	155	
3	0	0	0	0	506	155	
4	0	0	0	0	504	155	
5	0	0	0	0	504	156	
6	0	0	0	0	504	156	
7	0	0	0	0	505	155	
8	0	0	0	0	508	155	
9	0	0	0	0	511	155	
10	0	0	0	0	512	156	
11	0	0	0	0	516	155	
12	0	0	0	0	518	155	
13	0	0	0	0	519	155	
14	0	0	0	0	518	156	
15	0	0	0	0	517	156	
0	0	0	0	0	515	155	
1	0	0	0	0	512	155	
2	0	0	0	0	508	155	
3	0	0	0	0	506	156	
4	0	0	0	0	505	156	
5	0	0	0	0	504	155	
6	0	0	0	0	503	155	
7	0	0	0	0	504	156	
8	0	0	0	0	505	156	
9	0	0	0	0	507	156	
10	0	0	0	0	512	155	
11	0	0	0	0	516	155	
12	0	0	0	0	519	155	
13	0	0	0	0	520	156	
14	0	0	0	0	519	156	
15	0	0	0	0	516	155	
0	0	0	0	0	516	155	
1	0	0	0	0	513	155	
2	0	0	0	0	510	155	
3	0	0	0	0	506	156	
4	0	0	0	0	503	155	
5	0	0	0	0	501	155	
6	0	0	0	0	500	155	
7	0	0	0	0	502	156	
8	0	0	0	0	503	156	
9	0	0	0	0	505	155	
10	0	0	0	0	509	155	
11	0	0	0	0	513	155	
12	0	0	0	0	516	156	
13	0	0	0	0	518	156	
14	0	0	0	0	517	155	
15	0	0	0	0	516	155	
0	0	0	0	0	513	155	
1	0	0	0	0	510	156	
2	0	0	0	0	507	156	
3	0	0	0	0	506	155	
4	0	0	0	0	504	155	
5	0	0	0	0	504	155	
6	0	0	0	0	502	156	
7	0	0	0	0	501	156	
8	0	0	0	0	502	155	
9	0	0	0	0	504	155	
10	0	0	0	0	505	156	
11	0	0	0	0	509	156	
12	0	0	0	0	512	155	
13	0	0	0	0	515	155	
14	0	0	0	0	517	155	
15	0	0	0	0	518	155	
0	0	0	0	0	517	156	
1	0	0	0	0	515	155	
2	0	0	0	0	512	156	
3	0	0	0	0	510	156	
4	0	0	0	0	508	156	
5	0	0	0	0	505	155	
6	0	0	0	0	504	155	
7	0	0	0	0	503	156	
8	0	0	0	0	503	156	
9	0	0	0	0	505	155	
10	0	0	0	0	507	156	
11	0	0	0	0	510	155	
12	0	0	0	0	512	155	
13	0	0	0	0	515	156	
14	0	0	0	0	516	155	
15	0	0	0	0	518	155	
0	0	0	0	0	518	155	
1	0	0	0	0	516	155	
2	0	0	0	0	513	156	
3	0	0	0	0	509	156	
4	0	0	0	0	506	155	
5	0	0	0	0	503	155	
6	0	0	0	0	499	155	
7	0	0	0	0	497	156	
8	0	0	0	0	497	156	
9	0	0	0	0	500	156	
10	0	0	0	0	504	155	
11	0	0	0	0	505	155	
12	0	0	0	0	509	156	
13	0	0	0	0	513	156	
14	0	0	0	0	516	155	
15	0	0	0	0	519	155	
0	0	0	0	0	521	155	
1	0	0	0	0	523	156	
2	0	0	0	0	521	156	
3	0	0	0	0	519	155	
4	0	0	0	0	517	155	
5	0	0	0	0	514	156	
6	0	0	0	0	512	156	
7	0	0	0	0	508	156	
8	0	0	0	0	506	155	
9	0	0	0	0	505	155	
10	0	0	0	0	506	155	
11	0	0	0	0	509	156	
12	0	0	0	0	510	156	
13	0	0	0	0	512	155	
14	0	0	0	0	515	155	
15	0	0	0	0	516	155	
0	0	0	0	0	516	156	
1	0	0	0	0	516	156	
2	0	0	0	0	516	155	
3	0	0	0	0	515	155	
4	0	0	0	0	511	155	
5	0	0	0	0	508	156	
6	0	0	0	0	506	156	
7	0	0	0	0	506	155	
8	0	0	0	0	507	155	
9	0	0	0	0	508	156	
10	0	0	0	0	508	156	
11	0	0	0	0	510	156	
12	0	0	0	0	512	155	
13	0	0	0	0	515	155	
14	0	0	0	0	518	155	
15	0	0	0	0	521	156	
0	0	0	0	0	523	155	
1	0	0	0	0	522	155	
2	0	0	0	0	519	155	
3	0	0	0	0	515	155	
4	0	0	0	0	512	156	
5	0	0	0	0	510	156	
6	0	0	0	0	507	155	
7	0	0	0	0	505	155	
8	0	0	0	0	503	155	
9	0	0	0	0	502	156	
10	0	0	0	0	500	156	
11	0	0	0	0	500	155	
12	0	0	0	0	501	155	
13	0	0	0	0	503	156	
14	0	0	0	0	507	156	
15	0	0	0	0	510	155	
0	0	0	0	0	513	155	
1	0	0	0	0	515	156	
2	0	0	0	0	514	156	
3	0	0	0	0	513	156	
4	0	0	0	0	510	155	
5	0	0	0	0	506	155	
6	0	0	0	0	502	156	
7	0	0	0	0	498	156	
8	0	0	0	0	495	155	
9	0	0	0	0	492	155	
10	0	0	0	0	490	156	
11	0	0	0	0	489	156	
12	0	0	0	0	490	156	
13	0	0	0	0	492	155	
14	0	0	0	0	493	155	
15	0	0	0	0	496	156	
0	0	0	0	0	499	156	
1	0	0	0	0	502	155	
2	0	0	0	0	505	155	
3	0	0	0	0	506	155	
4	0	0	0	0	506	156	
5	0	0	0	0	504	156	
6	0	0	0	0	500	156	
7	0	0	0	0	497	155	
8	0	0	0	0	493	155	
9	0	0	0	0	489	156	
10	0	0	0	0	486	156	
11	0	0	0	0	482	155	
12	0	0	0	0	480	155	
13	0	0	0	0	482	156	
14	0	0	0	0	482	156	
15	0	0	0	0	482	155	
0	0	0	0	0	483	155	
1	0	0	0	0	484	156	
2	0	0	0	0	486	156	
3	0	0	0	0	487	155	
4	0	0	0	0	487	155	
5	0	0	0	0	487	155	
6	0	0	0	0	485	156	
7	0	0	0	0	480	156	
8	0	0	0	0	476	155	
9	0	0	0	0	473	155	
10	0	0	0	0	469	155	
11	0	0	0	0	465	156	
12	0	0	0	0	464	156	
13	0	0	0	0	465	155	
14	0	0	0	0	467	155	
15	0	0	0	0	470	155	
0	0	0	0	0	472	156	
1	0	0	0	0	473	156	
2	0	0	0	0	477	156	
3	0	0	0	0	481	155	
4	0	0	0	0	483	155	
5	0	0	0	0	484	155	
6	0	0	0	0	484	156	
7	0	0	0	0	480	155	
8	0	0	0	0	476	155	
9	0	0	0	0	472	155	
10	0	0	0	0	467	156	
11	0	0	0	0	462	156	
12	0	0	0	0	459	156	
13	0	0	0	0	462	155	
14	0	0	0	0	467	155	
15	0	0	0	0	472	156	
0	0	0	0	0	476	156	
1	0	0	0	0	475	155	
2	0	0	0	0	472	155	
3	0	0	0	0	470	156	
4	0	0	0	0	469	156	
5	0	0	0	0	465	155	
6	0	0	0	0	459	155	
7	0	0	0	0	452	156	
8	0	0	0	0	447	156	
9	0	0	0	0	443	156	
10	0	0	0	0	440	155	
11	0	0	0	0	441	155	
12	0	0	0	0	443	156	
13	0	0	0	0	448	156	
14	0	0	0	0	456	156	
15	0	0	0	0	464	155	
0	0	0	0	0	470	155	
1	0	0	0	0	475	156	
2	0	0	0	0	480	155	
3	0	0	0	0	486	155	
4	0	0	0	0	491	156	
5	0	0	0	0	497	156	
6	0	0	0	0	496	155	
7	0	0	0	0	489	155	
8	0	0	0	0	480	156	
9	0	0	0	0	470	156	
10	0	0	0	0	464	155	
11	0	0	0	0	459	155	
12	0	0	0	0	455	156	
13	0	0	0	0	452	156	
14	0	0	0	0	449	155	
15	0	0	0	0	450	156	
0	0	0	0	0	452	156	
1	0	0	0	0	454	155	
2	0	0	0	0	457	155	
3	0	0	0	0	461	156	
4	0	0	0	0	465	156	
5	0	0	0	0	469	155	
6	0	0	0	0	470	155	
7	0	0	0	0	471	156	
8	0	0	0	0	470	156	
9	0	0	0	0	467	155	
10	0	0	0	0	463	155	
11	0	0	0	0	458	156	
12	0	0	0	0	454	156	
13	0	0	0	0	452	155	
14	0	0	0	0	453	156	
15	0	0	0	0	456	156	
0	0	0	0	0	461	155	
1	0	0	0	0	466	156	
2	0	0	0	0	472	156	
3	0	0	0	0	479	156	
4	0	0	0	0	484	155	
5	0	0	0	0	489	155	
6	0	0	0	0	495	156	
7	0	0	0	0	497	155	
8	0	0	0	0	497	155	
9	0	0	0	0	494	156	
10	0	0	0	0	489	156	
11	0	0	0	0	485	155	
12	0	0	0	0	479	156	
13	0	0	0	0	470	156	
14	0	0	0	0	462	155	
15	0	0	0	0	458	155	
0	0	0	0	0	462	156	
1	0	0	0	0	473	156	
2	0	0	0	0	487	156	
3	0	0	0	0	499	155	
4	0	0	0	0	505	155	
5	0	0	0	0	503	155	
6	0	0	0	0	498	156	
7	0	0	0	0	495	156	
8	0	0	0	0	493	156	
9	0	0	0	0	489	155	
10	0	0	0	0	488	155	
11	0	0	0	0	487	155	
12	0	0	0	0	487	156	
13	0	0	0	0	487	156	
14	0	0	0	0	487	155	
15	0	0	0	0	492	155	
0	0	0	0	0	500	155	
1	0	0	0	0	508	155	
2	0	0	0	0	507	156	
3	0	0	0	0	501	155	
4	0	0	0	0	496	155	
5	0	0	0	0	495	155	
6	0	0	0	0	498	155	
7	0	0	0	0	502	156	
8	0	0	0	0	505	156	
9	0	0	0	0	508	155	
10	0	0	0	0	510	155	
11	0	0	0	0	508	155	
12	0	0	0	0	504	156	
13	0	0	0	0	500	155	
14	0	0	0	0	501	155	
15	0	0	0	0	505	155	
0	0	0	0	0	508	155	
1	0	0	0	0	508	156	
2	0	0	0	0	502	155	
3	0	0	0	0	497	155	
4	0	0	0	0	497	156	
5	0	0	0	0	504	156	
6	0	0	0	0	511	155	
7	0	0	0	0	517	155	
8	0	0	0	0	523	155	
9	0	0	0	0	527	155	
10	0	0	0	0	526	156	
11	0	0	0	0	524	155	
12	0	0	0	0	520	155	
13	0	0	0	0	513	155	
14	0	0	0	0	504	155	
15	0	0	0	0	497	156	
0	0	0	0	0	491	155	
1	0	0	0	0	485	155	
2	0	0	0	0	482	155	
3	0	0	0	0	482	156	
4	0	0	0	0	484	156	
5	0	0	0	0	489	155	
6	0	0	0	0	495	155	
7	0	0	0	0	500	155	
8	0	0	0	0	505	156	
9	0	0	0	0	508	156	
10	0	0	0	0	512	155	
11	0	0	0	0	515	155	
12	0	0	0	0	518	155	
13	0	0	0	0	516	156	
14	0	0	0	0	513	155	
15	0	0	0	0	509	155	
0	0	0	0	0	504	155	
1	0	0	0	0	502	155	
2	0	0	0	0	502	156	
3	0	0	0	0	504	155	
4	0	0	0	0	507	155	
5	0	0	0	0	511	155	
6	0	0	0	0	515	155	
7	0	0	0	0	519	156	
8	0	0	0	0	520	155	
9	0	0	0	0	519	155	
10	0	0	0	0	519	155	
11	0	0	0	0	519	155	
12	0	0	0	0	516	156	
13	0	0	0	0	515	155	
14	0	0	0	0	512	155	
15	0	0	0	0	512	155	
0	0	0	0	0	511	155	
1	0	0	0	0	511	156	
2	0	0	0	0	513	155	
3	0	0	0	0	519	155	
4	0	0	0	0	525	155	
5	0	0	0	0	533	155	
6	0	0	0	0	539	155	
7	0	0	0	0	539	155	
8	0	0	0	0	537	155	
9	0	0	0	0	536	155	
10	0	0	0	0	534	155	
11	0	0	0	0	534	155	
12	0	0	0	0	534	155	
13	0	0	0	0	532	155	
14	0	0	0	0	530	155	
15	0	0	0	0	527	155	
0	0	0	0	0	525	155	
1	0	0	0	0	523	155	
2	0	0	0	0	522	155	
3	0	0	0	0	522	156	
4	0	0	0	0	523	155	
5	0	0	0	0	524	155	
6	0	0	0	0	526	155	
7	0	0	0	0	531	155	
8	0	0	0	0	534	155	
9	0	0	0	0	536	155	
10	0	0	0	0	537	155	
11	0	0	0	0	539	155	
12	0	0	0	0	539	156	
13	0	0	0	0	539	155	
14	0	0	0	0	537	155	
15	0	0	0	0	534	155	
0	0	0	0	0	530	155	
1	0	0	0	0	527	155	
2	0	0	0	0	525	156	
3	0	0	0	0	524	155	
4	0	0	0	0	523	155	
5	0	0	0	0	524	155	
6	0	0	0	0	526	155	
7	0	0	0	0	527	155	
8	0	0	0	0	530	155	
9	0	0	0	0	532	155	
10	0	0	0	0	535	155	
11	0	0	0	0	537	155	
12	0	0	0	0	536	155	
13	0	0	0	0	534	155	
14	0	0	0	0	531	155	
15	0	0	0	0	528	155	
0	0	0	0	0	524	155	
1	0	0	0	0	521	156	
2	0	0	0	0	520	155	
3	0	0	0	0	519	155	
4	0	0	0	0	518	155	
5	0	0	0	0	520	155	
6	0	0	0	0	524	155	
7	0	0	0	0	529	155	
8	0	0	0	0	534	155	
9	0	0	0	0	537	155	
10	0	0	0	0	540	155	
11	0	0	0	0	541	155	
12	0	0	0	0	542	155	
13	0	0	0	0	542	155	
14	0	0	0	0	542	155	
15	0	0	0	0	540	155	
0	0	0	0	0	539	155	
1	0	0	0	0	539	155	
2	0	0	0	0	540	155	
3	0	0	0	0	539	155	
4	0	0	0	0	535	156	
5	0	0	0	0	532	155	
6	0	0	0	0	531	155	
7	0	0	0	0	530	155	
8	0	0	0	0	532	156	
9	0	0	0	0	533	155	
10	0	0	0	0	536	155	
11	0	0	0	0	538	155	
12	0	0	0	0	538	155	
13	0	0	0	0	538	155	
14	0	0	0	0	538	155	
15	0	0	0	0	537	155	
0	0	0	0	0	537	155	
1	0	0	0	0	534	155	
2	0	0	0	0	529	155	
3	0	0	0	0	525	156	
4	0	0	0	0	520	155	
5	0	0	0	0	517	155	
6	0	0	0	0	514	155	
7	0	0	0	0	511	155	
8	0	0	0	0	511	155	
9	0	0	0	0	510	155	
10	0	0	0	0	512	156	
11	0	0	0	0	515	155	
12	0	0	0	0	519	155	
13	0	0	0	0	527	155	
14	0	0	0	0	531	155	
15	0	0	0	0	532	155	
0	0	0	0	0	528	155	
1	0	0	0	0	521	155	
2	0	0	0	0	515	156	
3	0	0	0	0	512	155	
4	0	0	0	0	513	155	
5	0	0	0	0	515	155	
6	0	0	0	0	518	155	
7	0	0	0	0	519	156	
8	0	0	0	0	518	155	
9	0	0	0	0	516	155	
10	0	0	0	0	515	155	
11	0	0	0	0	514	155	
12	0	0	0	0	513	155	
13	0	0	0	0	510	155	
14	0	0	0	0	509	155	
15	0	0	0	0	510	155	
0	0	0	0	0	513	155	
1	0	0	0	0	518	156	
2	0	0	0	0	522	155	
3	0	0	0	0	524	155	
4	0	0	0	0	523	155	
5	0	0	0	0	515	155	
6	0	0	0	0	508	155	
7	0	0	0	0	501	155	
8	0	0	0	0	497	156	
9	0	0	0	0	495	155	
10	0	0	0	0	496	155	
11	0	0	0	0	499	155	
12	0	0	0	0	502	155	
13	0	0	0	0	505	155	
14	0	0	0	0	507	155	
15	0	0	0	0	508	155	
0	0	0	0	0	507	156	
1	0	0	0	0	506	155	
2	0	0	0	0	504	155	
3	0	0	0	0	502	155	
4	0	0	0	0	500	155	
5	0	0	0	0	498	155	
6	0	0	0	0	496	156	
7	0	0	0	0	496	155	
8	0	0	0	0	497	155	
9	0	0	0	0	499	155	
10	0	0	0	0	501	155	
11	0	0	0	0	502	156	
12	0	0	0	0	504	155	
13	0	0	0	0	506	155	
14	0	0	0	0	507	155	
15	0	0	0	0	508	155	
0	0	0	0	0	504	156	
1	0	0	0	0	502	155	
2	0	0	0	0	500	155	
3	0	0	0	0	499	155	
4	0	0	0	0	499	155	
5	0	0	0	0	499	155	
6	0	0	0	0	503	155	
7	0	0	0	0	505	155	
8	0	0	0	0	509	155	
9	0	0	0	0	510	155	
10	0	0	0	0	506	156	
11	0	0	0	0	499	155	
12	0	0	0	0	495	155	
13	0	0	0	0	495	155	
14	0	0	0	0	497	155	
15	0	0	0	0	499	155	
0	0	0	0	0	502	156	
1	0	0	0	0	502	155	
2	0	0	0	0	502	155	
3	0	0	0	0	500	155	
4	0	0	0	0	497	155	
5	0	0	0	0	494	156	
6	0	0	0	0	491	156	
7	0	0	0	0	489	155	
8	0	0	0	0	488	155	
9	0	0	0	0	487	155	
10	0	0	0	0	487	156	
11	0	0	0	0	488	155	
12	0	0	0	0	490	156	
13	0	0	0	0	493	155	
14	0	0	0	0	495	155	
15	0	0	0	0	499	155	
0	0	0	0	0	501	156	
1	0	0	0	0	503	155	
2	0	0	0	0	503	155	
3	0	0	0	0	500	155	
4	0	0	0	0	500	155	
5	0	0	0	0	501	155	
6	0	0	0	0	504	155	
7	0	0	0	0	505	155	
8	0	0	0	0	504	155	
9	0	0	0	0	502	155	
10	0	0	0	0	498	155	
11	0	0	0	0	496	155	
12	0	0	0	0	496	155	
13	0	0	0	0	497	156	
14	0	0	0	0	498	155	
15	0	0	0	0	503	155	
0	0	0	0	0	508	155	
1	0	0	0	0	512	155	
2	0	0	0	0	515	156	
3	0	0	0	0	516	155	
4	0	0	0	0	515	155	
5	0	0	0	0	512	155	
6	0	0	0	0	507	155	
7	0	0	0	0	502	155	
8	0	0	0	0	499	156	
9	0	0	0	0	500	155	
10	0	0	0	0	504	155	
11	0	0	0	0	510	155	
12	0	0	0	0	513	155	
13	0	0	0	0	518	156	
14	0	0	0	0	521	155	
15	0	0	0	0	521	155	
0	0	0	0	0	523	155	
1	0	0	0	0	522	155	
2	0	0	0	0	520	155	
3	0	0	0	0	516	155	
4	0	0	0	0	512	155	
5	0	0	0	0	510	155	
6	0	0	0	0	508	155	
7	0	0	0	0	506	155	
8	0	0	0	0	503	155	
9	0	0	0	0	499	155	
10	0	0	0	0	498	155	
11	0	0	0	0	503	155	
12	0	0	0	0	512	156	
13	0	0	0	0	521	155	
14	0	0	0	0	526	155	
15	0	0	0	0	524	155	
0	0	0	0	0	518	155	
1	0	0	0	0	513	155	
2	0	0	0	0	512	155	
3	0	0	0	0	513	155	
4	0	0	0	0	513	155	
5	0	0	0	0	513	156	
6	0	0	0	0	512	155	
7	0	0	0	0	512	155	
8	0	0	0	0	511	155	
9	0	0	0	0	510	155	
10	0	0	0	0	509	155	
11	0	0	0	0	509	155	
12	0	0	0	0	507	155	
13	0	0	0	0	506	155	
14	0	0	0	0	508	156	
15	0	0	0	0	509	155	
0	0	0	0	0	511	155	
1	0	0	0	0	514	155	
2	0	0	0	0	518	156	
3	0	0	0	0	522	155	
4	0	0	0	0	524	155	
5	0	0	0	0	524	155	
6	0	0	0	0	521	155	
7	0	0	0	0	520	155	
8	0	0	0	0	519	155	
9	0	0	0	0	521	155	
10	0	0	0	0	525	155	
11	0	0	0	0	525	155	
12	0	0	0	0	522	155	
13	0	0	0	0	517	155	
14	0	0	0	0	512	155	
15	0	0	0	0	511	155	
0	0	0	0	0	513	155	
1	0	0	0	0	515	155	
2	0	0	0	0	516	155	
3	0	0	0	0	516	155	
4	0	0	0	0	517	155	
5	0	0	0	0	516	155	
6	0	0	0	0	515	155	
7	0	0	0	0	513	155	
8	0	0	0	0	512	155	
9	0	0	0	0	510	155	
10	0	0	0	0	510	155	
11	0	0	0	0	509	155	
12	0	0	0	0	507	155	
13	0	0	0	0	505	155	
14	0	0	0	0	505	155	
15	0	0	0	0	506	155	
0	0	0	0	0	507	155	
1	0	0	0	0	508	155	
2	0	0	0	0	510	155	
3	0	0	0	0	511	155	
4	0	0	0	0	511	155	
5	0	0	0	0	509	155	
6	0	0	0	0	506	155	
7	0	0	0	0	503	155	
8	0	0	0	0	499	155	
9	0	0	0	0	493	155	
10	0	0	0	0	489	156	
11	0	0	0	0	486	155	
12	0	0	0	0	483	155	
13	0	0	0	0	482	155	
14	0	0	0	0	481	155	
15	0	0	0	0	483	155	
0	0	0	0	0	486	155	
1	0	0	0	0	489	155	
2	0	0	0	0	494	155	
3	0	0	0	0	500	155	
4	0	0	0	0	508	155	
5	0	0	0	0	514	155	
6	0	0	0	0	515	155	
7	0	0	0	0	511	156	
8	0	0	0	0	506	155	
9	0	0	0	0	504	155	
10	0	0	0	0	505	155	
11	0	0	0	0	510	155	
12	0	0	0	0	518	155	
13	0	0	0	0	524	155	
14	0	0	0	0	527	155	
15	0	0	0	0	527	155	
0	0	0	0	0	521	155	
1	0	0	0	0	512	155	
2	0	0	0	0	506	155	
3	0	0	0	0	505	155	
4	0	0	0	0	510	155	
5	0	0	0	0	517	155	
6	0	0	0	0	523	155	
7	0	0	0	0	523	155	
8	0	0	0	0	515	155	
9	0	0	0	0	505	155	
10	0	0	0	0	497	155	
11	0	0	0	0	495	155	
12	0	0	0	0	493	155	
13	0	0	0	0	492	155	
14	0	0	0	0	491	155	
15	0	0	0	0	491	155	
0	0	0	0	0	491	155	
1	0	0	0	0	493	155	
2	0	0	0	0	495	155	
3	0	0	0	0	499	156	
4	0	0	0	0	503	155	
5	0	0	0	0	507	155	
6	0	0	0	0	508	155	
7	0	0	0	0	509	155	
8	0	0	0	0	508	156	
9	0	0	0	0	507	155	
10	0	0	0	0	505	155	
11	0	0	0	0	500	155	
12	0	0	0	0	495	155	
13	0	0	0	0	491	155	
14	0	0	0	0	487	155	
15	0	0	0	0	486	155	
0	0	0	0	0	487	155	
1	0	0	0	0	491	155	
2	0	0	0	0	493	155	
3	0	0	0	0	496	155	
4	0	0	0	0	497	155	
5	0	0	0	0	497	155	
6	0	0	0	0	498	155	
7	0	0	0	0	502	155	
8	0	0	0	0	507	155	
9	0	0	0	0	512	155	
10	0	0	0	0	515	155	
11	0	0	0	0	513	155	
12	0	0	0	0	507	155	
13	0	0	0	0	502	155	
14	0	0	0	0	497	155	
15	0	0	0	0	494	155	
0	0	0	0	0	491	155	
1	0	0	0	0	489	155	
2	0	0	0	0	489	155	
3	0	0	0	0	491	155	
4	0	0	0	0	493	155	
5	0	0	0	0	496	155	
6	0	0	0	0	500	155	
7	0	0	0	0	503	155	
8	0	0	0	0	505	155	
9	0	0	0	0	505	155	
10	0	0	0	0	505	155	
11	0	0	0	0	503	155	
12	0	0	0	0	500	155	
13	0	0	0	0	498	155	
14	0	0	0	0	497	155	
15	0	0	0	0	497	155	
0	0	0	0	0	499	155	
1	0	0	0	0	501	155	
2	0	0	0	0	504	155	
3	0	0	0	0	506	155	
4	0	0	0	0	506	155	
5	0	0	0	0	506	156	
6	0	0	0	0	507	155	
7	0	0	0	0	510	155	
8	0	0	0	0	512	155	
9	0	0	0	0	512	155	
10	0	0	0	0	511	155	
11	0	0	0	0	509	155	
12	0	0	0	0	507	155	
13	0	0	0	0	504	155	
14	0	0	0	0	501	155	
15	0	0	0	0	499	155	
0	0	0	0	0	498	155	
1	0	0	0	0	498	155	
2	0	0	0	0	497	155	
3	0	0	0	0	498	155	
4	0	0	0	0	499	155	
5	0	0	0	0	503	155	
6	0	0	0	0	508	155	
7	0	0	0	0	511	155	
8	0	0	0	0	512	155	
9	0	0	0	0	512	155	
10	0	0	0	0	511	155	
11	0	0	0	0	511	155	
12	0	0	0	0	510	154	
13	0	0	0	0	509	155	
14	0	0	0	0	508	155	
15	0	0	0	0	509	155	
0	0	0	0	0	509	155	
1	0	0	0	0	512	155	
2	0	0	0	0	514	155	
3	0	0	0	0	515	155	
4	0	0	0	0	513	155	
5	0	0	0	0	512	155	
6	0	0	0	0	509	154	
7	0	0	0	0	509	155	
8	0	0	0	0	509	155	
9	0	0	0	0	509	155	
10	0	0	0	0	510	155	
11	0	0	0	0	511	155	
12	0	0	0	0	513	155	
13	0	0	0	0	516	155	
14	0	0	0	0	517	154	
15	0	0	0	0	518	155	
0	0	0	0	0	515	155	
1	0	0	0	0	511	155	
2	0	0	0	0	508	155	
3	0	0	0	0	508	155	
4	0	0	0	0	508	155	
5	0	0	0	0	508	155	
6	0	0	0	0	507	155	
7	0	0	0	0	507	155	
8	0	0	0	0	505	155	
9	0	0	0	0	504	155	
10	0	0	0	0	503	155	
11	0	0	0	0	502	155	
12	0	0	0	0	503	155	
13	0	0	0	0	502	155	
14	0	0	0	0	503	155	
15	0	0	0	0	507	155	
0	0	0	0	0	513	155	
1	0	0	0	0	522	154	
2	0	0	0	0	532	155	
3	0	0	0	0	541	155	
4	0	0	0	0	543	155	
5	0	0	0	0	541	155	
6	0	0	0	0	535	154	
7	0	0	0	0	530	154	
8	0	0	0	0	527	155	
9	0	0	0	0	524	155	
10	0	0	0	0	521	155	
11	0	0	0	0	519	155	
12	0	0	0	0	516	154	
13	0	0	0	0	515	155	
14	0	0	0	0	513	155	
15	0	0	0	0	512	155	
0	0	0	0	0	511	155	
1	0	0	0	0	511	154	
2	0	0	0	0	512	155	
3	0	0	0	0	513	155	
4	0	0	0	0	516	155	
5	0	0	0	0	519	155	
6	0	0	0	0	524	154	
7	0	0	0	0	529	155	
8	0	0	0	0	532	155	
9	0	0	0	0	534	155	
10	0	0	0	0	537	154	
11	0	0	0	0	541	154	
12	0	0	0	0	542	155	
13	0	0	0	0	542	155	
14	0	0	0	0	539	155	
15	0	0	0	0	537	154	
0	0	0	0	0	536	154	
1	0	0	0	0	535	155	
2	0	0	0	0	536	155	
3	0	0	0	0	538	155	
4	0	0	0	0	543	154	
5	0	0	0	0	548	155	
6	0	0	0	0	555	155	
7	0	0	0	0	560	155	
8	0	0	0	0	564	154	
9	0	0	0	0	566	154	
10	0	0	0	0	569	155	
11	0	0	0	0	573	155	
12	0	0	0	0	575	155	
13	0	0	0	0	577	154	
14	0	0	0	0	576	155	
15	0	0	0	0	574	155	
0	0	0	0	0	569	155	
1	0	0	0	0	562	154	
2	0	0	0	0	556	154	
3	0	0	0	0	548	155	
4	0	0	0	0	539	155	
5	0	0	0	0	530	155	
6	0	0	0	0	524	155	
7	0	0	0	0	521	155	
8	0	0	0	0	521	155	
9	0	0	0	0	521	155	
10	0	0	0	0	521	155	
11	0	0	0	0	519	154	
12	0	0	0	0	519	154	
13	0	0	0	0	522	155	
14	0	0	0	0	523	155	
15	0	0	0	0	522	155	
0	0	0	0	0	517	155	
1	0	0	0	0	510	155	
2	0	0	0	0	505	155	
3	0	0	0	0	503	155	
4	0	0	0	0	501	155	
5	0	0	0	0	499	155	
6	0	0	0	0	496	155	
7	0	0	0	0	494	154	
8	0	0	0	0	491	155	
9	0	0	0	0	489	155	
10	0	0	0	0	487	155	
11	0	0	0	0	488	155	
12	0	0	0	0	492	155	
13	0	0	0	0	495	155	
14	0	0	0	0	497	155	
15	0	0	0	0	499	155	
0	0	0	0	0	501	155	
1	0	0	0	0	503	154	
2	0	0	0	0	504	155	
3	0	0	0	0	505	155	
4	0	0	0	0	504	155	
5	0	0	0	0	504	155	
6	0	0	0	0	505	154	
7	0	0	0	0	507	155	
8	0	0	0	0	509	155	
9	0	0	0	0	512	155	
10	0	0	0	0	514	155	
11	0	0	0	0	518	154	
12	0	0	0	0	522	155	
13	0	0	0	0	526	155	
14	0	0	0	0	528	155	
15	0	0	0	0	531	154	
0	0	0	0	0	533	154	
1	0	0	0	0	533	155	
2	0	0	0	0	534	155	
3	0	0	0	0	533	155	
4	0	0	0	0	533	155	
5	0	0	0	0	532	154	
6	0	0	0	0	531	155	
7	0	0	0	0	531	155	
8	0	0	0	0	529	155	
9	0	0	0	0	527	154	
10	0	0	0	0	525	154	
11	0	0	0	0	524	155	
12	0	0	0	0	526	155	
13	0	0	0	0	527	155	
14	0	0	0	0	529	154	
15	0	0	0	0	531	155	
0	0	0	0	0	532	155	
1	0	0	0	0	531	155	
2	0	0	0	0	532	154	
3	0	0	0	0	535	154	
4	0	0	0	0	538	155	
5	0	0	0	0	541	155	
6	0	0	0	0	544	155	
7	0	0	0	0	543	154	
8	0	0	0	0	543	154	
9	0	0	0	0	545	155	
10	0	0	0	0	546	155	
11	0	0	0	0	544	155	
12	0	0	0	0	540	155	
13	0	0	0	0	537	154	
14	0	0	0	0	535	154	
15	0	0	0	0	534	155	
0	0	0	0	0	535	155	
1	0	0	0	0	536	155	
2	0	0	0	0	536	155	
3	0	0	0	0	536	154	
4	0	0	0	0	533	155	
5	0	0	0	0	532	155	
6	0	0	0	0	529	155	
7	0	0	0	0	527	155	
8	0	0	0	0	526	154	
9	0	0	0	0	526	154	
10	0	0	0	0	527	155	
11	0	0	0	0	530	155	
12	0	0	0	0	533	155	
13	0	0	0	0	535	154	
14	0	0	0	0	537	154	
15	0	0	0	0	538	155	
0	0	0	0	0	538	155	
1	0	0	0	0	537	155	
2	0	0	0	0	536	154	
3	0	0	0	0	534	154	
4	0	0	0	0	532	155	
5	0	0	0	0	529	155	
6	0	0	0	0	527	155	
7	0	0	0	0	526	154	
8	0	0	0	0	523	154	
9	0	0	0	0	522	155	
10	0	0	0	0	520	155	
11	0	0	0	0	519	155	
12	0	0	0	0	519	155	
13	0	0	0	0	522	154	
14	0	0	0	0	527	155	
15	0	0	0	0	533	155	
0	0	0	0	0	542	155	
1	0	0	0	0	549	155	
2	0	0	0	0	551	154	
3	0	0	0	0	549	154	
4	0	0	0	0	543	155	
5	0	0	0	0	537	155	
6	0	0	0	0	533	155	
7	0	0	0	0	529	155	
8	0	0	0	0	527	154	
9	0	0	0	0	523	155	
10	0	0	0	0	520	155	
11	0	0	0	0	519	155	
12	0	0	0	0	520	154	
13	0	0	0	0	522	154	
14	0	0	0	0	523	155	
15	0	0	0	0	523	155	
0	0	0	0	0	524	155	
1	0	0	0	0	525	154	
2	0	0	0	0	527	155	
3	0	0	0	0	527	155	
4	0	0	0	0	528	154	
5	0	0	0	0	529	154	
6	0	0	0	0	531	155	
7	0	0	0	0	535	155	
8	0	0	0	0	535	155	
9	0	0	0	0	531	154	
10	0	0	0	0	526	154	
11	0	0	0	0	522	155	
12	0	0	0	0	518	155	
13	0	0	0	0	517	154	
14	0	0	0	0	517	155	
15	0	0	0	0	519	155	
0	0	0	0	0	521	155	
1	0	0	0	0	524	154	
2	0	0	0	0	525	154	
3	0	0	0	0	526	155	
4	0	0	0	0	526	155	
5	0	0	0	0	524	155	
6	0	0	0	0	523	154	
7	0	0	0	0	522	155	
8	0	0	0	0	522	155	
9	0	0	0	0	521	155	
10	0	0	0	0	519	155	
11	0	0	0	0	517	154	
12	0	0	0	0	515	154	
13	0	0	0	0	515	155	
14	0	0	0	0	515	155	
15	0	0	0	0	516	154	
0	0	0	0	0	518	154	
1	0	0	0	0	519	155	
2	0	0	0	0	520	155	
3	0	0	0	0	520	155	
4	0	0	0	0	519	154	
5	0	0	0	0	515	154	
6	0	0	0	0	511	155	
7	0	0	0	0	507	155	
8	0	0	0	0	502	155	
9	0	0	0	0	499	155	
10	0	0	0	0	496	155	
11	0	0	0	0	494	155	
12	0	0	0	0	496	155	
13	0	0	0	0	499	155	
14	0	0	0	0	505	155	
15	0	0	0	0	512	154	
0	0	0	0	0	518	155	
1	0	0	0	0	521	155	
2	0	0	0	0	518	155	
3	0	0	0	0	513	154	
4	0	0	0	0	509	155	
5	0	0	0	0	507	155	
6	0	0	0	0	508	155	
7	0	0	0	0	512	155	
8	0	0	0	0	515	154	
9	0	0	0	0	516	154	
10	0	0	0	0	512	155	
11	0	0	0	0	505	155	
12	0	0	0	0	501	155	
13	0	0	0	0	501	155	
14	0	0	0	0	502	154	
15	0	0	0	0	502	155	
0	0	0	0	0	503	155	
1	0	0	0	0	504	155	
2	0	0	0	0	505	154	
3	0	0	0	0	508	154	
4	0	0	0	0	509	155	
5	0	0	0	0	512	155	
6	0	0	0	0	512	155	
7	0	0	0	0	511	154	
8	0	0	0	0	510	154	
9	0	0	0	0	508	155	
10	0	0	0	0	507	155	
11	0	0	0	0	504	155	
12	0	0	0	0	503	154	
13	0	0	0	0	501	154	
14	0	0	0	0	501	155	
15	0	0	0	0	501	155	
0	0	0	0	0	502	155	
1	0	0	0	0	504	154	
2	0	0	0	0	508	154	
3	0	0	0	0	511	155	
4	0	0	0	0	514	155	
5	0	0	0	0	517	154	
6	0	0	0	0	517	154	
7	0	0	0	0	516	155	
8	0	0	0	0	513	155	
9	0	0	0	0	509	155	
10	0	0	0	0	506	154	
11	0	0	0	0	507	155	
12	0	0	0	0	511	155	
13	0	0	0	0	514	155	
14	0	0	0	0	515	155	
15	0	0	0	0	514	154	
0	0	0	0	0	512	155	
1	0	0	0	0	512	155	
2	0	0	0	0	512	155	
3	0	0	0	0	510	154	
4	0	0	0	0	511	154	
5	0	0	0	0	512	155	
6	0	0	0	0	515	155	
7	0	0	0	0	516	155	
8	0	0	0	0	516	154	
9	0	0	0	0	515	155	
10	0	0	0	0	513	155	
11	0	0	0	0	511	155	
12	0	0	0	0	509	154	
13	0	0	0	0	506	154	
14	0	0	0	0	504	155	
15	0	0	0	0	504	155	
0	0	0	0	0	502	155	
1	0	0	0	0	502	155	
2	0	0	0	0	505	154	
3	0	0	0	0	508	154	
4	0	0	0	0	512	155	
5	0	0	0	0	515	155	
6	0	0	0	0	517	155	
7	0	0	0	0	518	154	
8	0	0	0	0	516	154	
9	0	0	0	0	514	155	
10	0	0	0	0	512	155	
11	0	0	0	0	509	155	
12	0	0	0	0	507	154	
13	0	0	0	0	504	155	
14	0	0	0	0	503	155	
15	0	0	0	0	501	155	
0	0	0	0	0	500	155	
1	0	0	0	0	499	154	
2	0	0	0	0	499	155	
3	0	0	0	0	499	155	
4	0	0	0	0	500	155	
5	0	0	0	0	503	155	
6	0	0	0	0	505	154	
7	0	0	0	0	507	154	
8	0	0	0	0	507	155	
9	0	0	0	0	506	155	
10	0	0	0	0	505	155	
11	0	0	0	0	503	155	
12	0	0	0	0	499	154	
13	0	0	0	0	497	155	
14	0	0	0	0	496	155	
15	0	0	0	0	495	154	
0	0	0	0	0	493	154	
1	0	0	0	0	493	155	
2	0	0	0	0	492	155	
3	0	0	0	0	494	155	
4	0	0	0	0	496	154	
5	0	0	0	0	501	155	
6	0	0	0	0	507	155	
7	0	0	0	0	513	155	
8	0	0	0	0	523	154	
9	0	0	0	0	529	154	
10	0	0	0	0	531	155	
11	0	0	0	0	526	155	
12	0	0	0	0	517	154	
13	0	0	0	0	511	154	
14	0	0	0	0	502	155	
15	0	0	0	0	494	155	
0	0	0	0	0	492	155	
1	0	0	0	0	493	154	
2	0	0	0	0	498	155	
3	0	0	0	0	503	155	
4	0	0	0	0	505	155	
5	0	0	0	0	506	154	
6	0	0	0	0	504	155	
7	0	0	0	0	503	155	
8	0	0	0	0	499	155	
9	0	0	0	0	497	155	
10	0	0	0	0	496	154	
11	0	0	0	0	496	154	
12	0	0	0	0	497	155	
13	0	0	0	0	497	155	
14	0	0	0	0	497	155	
15	0	0	0	0	498	154	
0	0	0	0	0	500	154	
1	0	0	0	0	502	155	
2	0	0	0	0	504	155	
3	0	0	0	0	504	155	
4	0	0	0	0	502	154	
5	0	0	0	0	498	154	
6	0	0	0	0	495	155	
7	0	0	0	0	495	155	
8	0	0	0	0	494	154	
9	0	0	0	0	493	155	
10	0	0	0	0	493	155	
11	0	0	0	0	495	155	
12	0	0	0	0	497	155	
13	0	0	0	0	496	154	
14	0	0	0	0	494	155	
15	0	0	0	0	491	155	
0	0	0	0	0	487	155	
1	0	0	0	0	486	155	
2	0	0	0	0	486	155	
3	0	0	0	0	487	154	
4	0	0	0	0	489	155	
5	0	0	0	0	493	155	
6	0	0	0	0	495	155	
7	0	0	0	0	496	154	
8	0	0	0	0	496	155	
9	0	0	0	0	496	155	
10	0	0	0	0	497	155	
11	0	0	0	0	495	155	
12	0	0	0	0	493	154	
13	0	0	0	0	490	154	
14	0	0	0	0	487	155	
15	0	0	0	0	484	155	
0	0	0	0	0	482	155	
1	0	0	0	0	481	155	
2	0	0	0	0	481	154	
3	0	0	0	0	483	155	
4	0	0	0	0	487	155	
5	0	0	0	0	489	155	
6	0	0	0	0	491	154	
7	0	0	0	0	494	154	
8	0	0	0	0	498	155	
9	0	0	0	0	502	155	
10	0	0	0	0	504	155	
11	0	0	0	0	505	155	
12	0	0	0	0	504	154	
13	0	0	0	0	501	154	
14	0	0	0	0	498	155	
15	0	0	0	0	494	155	
0	0	0	0	0	491	155	
1	0	0	0	0	489	154	
2	0	0	0	0	487	155	
3	0	0	0	0	485	155	
4	0	0	0	0	484	154	
5	0	0	0	0	484	154	
6	0	0	0	0	484	155	
7	0	0	0	0	487	155	
8	0	0	0	0	490	155	
9	0	0	0	0	492	154	
10	0	0	0	0	497	155	
11	0	0	0	0	500	155	
12	0	0	0	0	503	155	
13	0	0	0	0	505	154	
14	0	0	0	0	506	154	
15	0	0	0	0	509	155	
0	0	0	0	0	512	155	
1	0	0	0	0	513	154	
2	0	0	0	0	512	154	
3	0	0	0	0	504	155	
4	0	0	0	0	496	155	
5	0	0	0	0	491	155	
6	0	0	0	0	486	154	
7	0	0	0	0	484	154	
8	0	0	0	0	484	155	
9	0	0	0	0	488	155	
10	0	0	0	0	495	155	
11	0	0	0	0	500	154	
12	0	0	0	0	505	154	
13	0	0	0	0	507	155	
14	0	0	0	0	508	154	
15	0	0	0	0	512	154	
0	0	0	0	0	518	155	
1	0	0	0	0	524	155	
2	0	0	0	0	526	154	
3	0	0	0	0	521	154	
4	0	0	0	0	514	154	
5	0	0	0	0	510	155	
6	0	0	0	0	509	155	
7	0	0	0	0	506	154	
8	0	0	0	0	505	154	
9	0	0	0	0	506	155	
10	0	0	0	0	508	155	
11	0	0	0	0	511	155	
12	0	0	0	0	513	154	
13	0	0	0	0	516	154	
14	0	0	0	0	518	155	
15	0	0	0	0	516	155	
0	0	0	0	0	515	155	
1	0	0	0	0	514	154	
2	0	0	0	0	512	154	
3	0	0	0	0	510	155	
4	0	0	0	0	506	155	
5	0	0	0	0	505	155	
6	0	0	0	0	503	155	
7	0	0	0	0	501	154	
8	0	0	0	0	501	154	
9	0	0	0	0	500	155	
10	0	0	0	0	500	155	
11	0	0	0	0	500	155	
12	0	0	0	0	502	154	
13	0	0	0	0	504	154	
14	0	0	0	0	506	155	
15	0	0	0	0	510	155	
0	0	0	0	0	513	155	
1	0	0	0	0	517	154	
2	0	0	0	0	520	154	
3	0	0	0	0	521	155	
4	0	0	0	0	520	155	
5	0	0	0	0	517	154	
6	0	0	0	0	512	154	
7	0	0	0	0	508	154	
8	0	0	0	0	504	155	
9	0	0	0	0	500	155	
10	0	0	0	0	498	154	
11	0	0	0	0	497	154	
12	0	0	0	0	496	155	
13	0	0	0	0	497	155	
14	0	0	0	0	498	155	
15	0	0	0	0	498	154	
0	0	0	0	0	497	154	
1	0	0	0	0	497	154	
2	0	0	0	0	499	155	
3	0	0	0	0	500	155	
4	0	0	0	0	501	155	
5	0	0	0	0	500	154	
6	0	0	0	0	498	154	
7	0	0	0	0	497	155	
8	0	0	0	0	496	155	
9	0	0	0	0	496	154	
10	0	0	0	0	498	155	
11	0	0	0	0	500	155	
12	0	0	0	0	503	155	
13	0	0	0	0	505	154	
14	0	0	0	0	508	154	
15	0	0	0	0	508	155	
0	0	0	0	0	506	155	
1	0	0	0	0	503	154	
2	0	0	0	0	501	154	
3	0	0	0	0	498	155	
4	0	0	0	0	496	155	
5	0	0	0	0	492	154	
6	0	0	0	0	489	154	
7	0	0	0	0	488	154	
8	0	0	0	0	487	155	
9	0	0	0	0	489	155	
10	0	0	0	0	492	155	
11	0	0	0	0	495	154	
12	0	0	0	0	500	154	
13	0	0	0	0	506	155	
14	0	0	0	0	510	155	
15	0	0	0	0	515	155	
0	0	0	0	0	519	154	
1	0	0	0	0	522	154	
2	0	0	0	0	523	155	
3	0	0	0	0	523	155	
4	0	0	0	0	517	155	
5	0	0	0	0	510	154	
6	0	0	0	0	504	154	
7	0	0	0	0	498	155	
8	0	0	0	0	496	155	
9	0	0	0	0	495	154	
10	0	0	0	0	497	154	
11	0	0	0	0	500	155	
12	0	0	0	0	503	155	
13	0	0	0	0	505	155	
14	0	0	0	0	508	155	
15	0	0	0	0	507	154	
0	0	0	0	0	508	154	
1	0	0	0	0	509	155	
2	0	0	0	0	509	155	
3	0	0	0	0	508	155	
4	0	0	0	0	505	154	
5	0	0	0	0	502	155	
6	0	0	0	0	499	155	
7	0	0	0	0	498	155	
8	0	0	0	0	497	154	
9	0	0	0	0	497	154	
10	0	0	0	0	498	155	
11	0	0	0	0	499	154	
12	0	0	0	0	503	154	
13	0	0	0	0	505	155	
14	0	0	0	0	508	155	
15	0	0	0	0	510	154	
0	0	0	0	0	512	154	
1	0	0	0	0	512	155	
2	0	0	0	0	512	155	
3	0	0	0	0	510	154	
4	0	0	0	0	505	154	
5	0	0	0	0	499	155	
6	0	0	0	0	493	155	
7	0	0	0	0	487	155	
8	0	0	0	0	483	154	
9	0	0	0	0	480	154	
10	0	0	0	0	478	155	
11	0	0	0	0	479	155	
12	0	0	0	0	482	154	
13	0	0	0	0	491	154	
14	0	0	0	0	502	155	
15	0	0	0	0	512	155	
0	0	0	0	0	518	155	
1	0	0	0	0	519	154	
2	0	0	0	0	520	154	
3	0	0	0	0	522	155	
4	0	0	0	0	524	155	
5	0	0	0	0	525	155	
6	0	0	0	0	526	154	
7	0	0	0	0	526	154	
8	0	0	0	0	524	155	
9	0	0	0	0	518	155	
10	0	0	0	0	514	155	
11	0	0	0	0	509	154	
12	0	0	0	0	504	155	
13	0	0	0	0	502	155	
14	0	0	0	0	502	155	
15	0	0	0	0	504	154	
0	0	0	0	0	506	154	
1	0	0	0	0	508	154	
2	0	0	0	0	510	155	
3	0	0	0	0	510	155	
4	0	0	0	0	509	155	
5	0	0	0	0	509	154	
6	0	0	0	0	507	154	
7	0	0	0	0	506	155	
8	0	0	0	0	502	155	
9	0	0	0	0	498	154	
10	0	0	0	0	494	154	
11	0	0	0	0	492	155	
12	0	0	0	0	492	155	
13	0	0	0	0	494	155	
14	0	0	0	0	497	155	
15	0	0	0	0	501	154	
0	0	0	0	0	505	154	
1	0	0	0	0	509	155	
2	0	0	0	0	511	155	
3	0	0	0	0	513	154	
4	0	0	0	0	513	154	
5	0	0	0	0	512	155	
6	0	0	0	0	509	155	
7	0	0	0	0	504	154	
8	0	0	0	0	502	155	
9	0	0	0	0	499	154	
10	0	0	0	0	499	154	
11	0	0	0	0	499	155	
12	0	0	0	0	500	155	
13	0	0	0	0	503	154	
14	0	0	0	0	508	155	
15	0	0	0	0	514	155	
0	0	0	0	0	520	154	
1	0	0	0	0	524	154	
2	0	0	0	0	524	155	
3	0	0	0	0	523	155	
4	0	0	0	0	520	154	
5	0	0	0	0	516	154	
6	0	0	0	0	512	155	
7	0	0	0	0	508	154	
8	0	0	0	0	505	154	
9	0	0	0	0	504	155	
10	0	0	0	0	504	155	
11	0	0	0	0	506	154	
12	0	0	0	0	506	155	
13	0	0	0	0	506	155	
14	0	0	0	0	504	154	
15	0	0	0	0	503	154	
0	0	0	0	0	505	155	
1	0	0	0	0	510	155	
2	0	0	0	0	513	154	
3	0	0	0	0	516	155	
4	0	0	0	0	517	155	
5	0	0	0	0	515	154	
6	0	0	0	0	512	154	
7	0	0	0	0	508	155	
8	0	0	0	0	504	154	
9	0	0	0	0	502	154	
10	0	0	0	0	498	155	
11	0	0	0	0	498	155	
12	0	0	0	0	499	154	
13	0	0	0	0	499	155	
14	0	0	0	0	499	154	
15	0	0	0	0	501	154	
0	0	0	0	0	504	155	
1	0	0	0	0	505	154	
2	0	0	0	0	505	154	
3	0	0	0	0	508	155	
4	0	0	0	0	508	154	
5	0	0	0	0	507	155	
6	0	0	0	0	507	155	
7	0	0	0	0	505	154	
8	0	0	0	0	504	155	
9	0	0	0	0	504	155	
10	0	0	0	0	505	154	
11	0	0	0	0	504	154	
12	0	0	0	0	502	155	
13	0	0	0	0	498	154	
14	0	0	0	0	496	154	
15	0	0	0	0	498	155	
0	0	0	0	0	502	155	
1	0	0	0	0	508	154	
2	0	0	0	0	514	155	
3	0	0	0	0	519	155	
4	0	0	0	0	520	154	
5	0	0	0	0	521	154	
6	0	0	0	0	521	155	
7	0	0	0	0	524	155	
8	0	0	0	0	525	154	
9	0	0	0	0	524	154	
10	0	0	0	0	521	155	
11	0	0	0	0	518	154	
12	0	0	0	0	512	154	
13	0	0	0	0	507	155	
14	0	0	0	0	502	155	
15	0	0	0	0	498	154	
0	0	0	0	0	497	154	
1	0	0	0	0	497	155	
2	0	0	0	0	499	154	
3	0	0	0	0	500	154	
4	0	0	0	0	503	155	
5	0	0	0	0	506	155	
6	0	0	0	0	508	154	
7	0	0	0	0	508	154	
8	0	0	0	0	508	155	
9	0	0	0	0	507	154	
10	0	0	0	0	506	154	
11	0	0	0	0	505	155	
12	0	0	0	0	501	155	
13	0	0	0	0	498	154	
14	0	0	0	0	495	154	
15	0	0	0	0	492	155	
0	0	0	0	0	491	154	
1	0	0	0	0	492	155	
2	0	0	0	0	494	155	
3	0	0	0	0	498	154	
4	0	0	0	0	501	155	
5	0	0	0	0	503	155	
6	0	0	0	0	503	154	
7	0	0	0	0	503	154	
8	0	0	0	0	502	155	
9	0	0	0	0	500	155	
10	0	0	0	0	497	154	
11	0	0	0	0	494	155	
12	0	0	0	0	493	155	
13	0	0	0	0	492	154	
14	0	0	0	0	489	154	
15	0	0	0	0	489	154	
0	0	0	0	0	491	155	
1	0	0	0	0	494	155	
2	0	0	0	0	498	155	
3	0	0	0	0	502	154	
4	0	0	0	0	504	154	
5	0	0	0	0	502	155	
6	0	0	0	0	502	155	
7	0	0	0	0	502	155	
8	0	0	0	0	501	154	
9	0	0	0	0	500	154	
10	0	0	0	0	499	154	
11	0	0	0	0	497	155	
12	0	0	0	0	495	155	
13	0	0	0	0	493	155	
14	0	0	0	0	491	154	
15	0	0	0	0	488	154	
0	0	0	0	0	487	154	
1	0	0	0	0	486	155	
2	0	0	0	0	486	155	
3	0	0	0	0	487	155	
4	0	0	0	0	491	154	
5	0	0	0	0	496	154	
6	0	0	0	0	500	155	
7	0	0	0	0	502	155	
8	0	0	0	0	502	155	
9	0	0	0	0	501	154	
10	0	0	0	0	500	154	
11	0	0	0	0	499	154	
12	0	0	0	0	496	155	
13	0	0	0	0	494	155	
14	0	0	0	0	492	155	
15	0	0	0	0	489	154	
0	0	0	0	0	489	154	
1	0	0	0	0	491	154	
2	0	0	0	0	493	155	
3	0	0	0	0	495	155	
4	0	0	0	0	497	154	
5	0	0	0	0	500	154	
6	0	0	0	0	500	155	
7	0	0	0	0	501	155	
8	0	0	0	0	503	154	
9	0	0	0	0	503	154	
10	0	0	0	0	502	154	
11	0	0	0	0	500	155	
12	0	0	0	0	496	155	
13	0	0	0	0	493	154	
14	0	0	0	0	488	154	
15	0	0	0	0	485	155	
0	0	0	0	0	483	155	
1	0	0	0	0	483	154	
2	0	0	0	0	487	154	
3	0	0	0	0	493	154	
4	0	0	0	0	498	155	
5	0	0	0	0	501	155	
6	0	0	0	0	505	155	
7	0	0	0	0	509	154	
8	0	0	0	0	517	154	
9	0	0	0	0	527	154	
10	0	0	0	0	534	155	
11	0	0	0	0	536	155	
12	0	0	0	0	532	154	
13	0	0	0	0	525	154	
14	0	0	0	0	519	154	
15	0	0	0	0	512	154	
0	0	0	0	0	505	155	
1	0	0	0	0	499	155	
2	0	0	0	0	497	155	
3	0	0	0	0	496	154	
4	0	0	0	0	497	154	
5	0	0	0	0	501	154	
6	0	0	0	0	505	155	
7	0	0	0	0	511	155	
8	0	0	0	0	518	154	
9	0	0	0	0	525	154	
10	0	0	0	0	530	154	
11	0	0	0	0	529	155	
12	0	0	0	0	523	155	
13	0	0	0	0	515	155	
14	0	0	0	0	508	154	
15	0	0	0	0	500	154	
0	0	0	0	0	495	155	
1	0	0	0	0	492	155	
2	0	0	0	0	491	154	
3	0	0	0	0	491	154	
4	0	0	0	0	492	154	
5	0	0	0	0	494	155	
6	0	0	0	0	498	155	
7	0	0	0	0	505	155	
8	0	0	0	0	512	154	
9	0	0	0	0	518	154	
10	0	0	0	0	520	154	
11	0	0	0	0	519	155	
12	0	0	0	0	517	154	
13	0	0	0	0	512	154	
14	0	0	0	0	504	154	
15	0	0	0	0	495	154	
0	0	0	0	0	489	155	
1	0	0	0	0	487	155	
2	0	0	0	0	486	155	
3	0	0	0	0	489	154	
4	0	0	0	0	495	154	
5	0	0	0	0	504	155	
6	0	0	0	0	512	155	
7	0	0	0	0	520	154	
8	0	0	0	0	527	154	
9	0	0	0	0	532	153	
10	0	0	0	0	533	155	
11	0	0	0	0	530	154	
12	0	0	0	0	526	154	
13	0	0	0	0	523	154	
14	0	0	0	0	518	154	
15	0	0	0	0	515	155	
0	0	0	0	0	512	155	
1	0	0	0	0	509	154	
2	0	0	0	0	508	154	
3	0	0	0	0	506	154	
4	0	0	0	0	505	155	
5	0	0	0	0	505	155	
6	0	0	0	0	506	154	
7	0	0	0	0	509	154	
8	0	0	0	0	512	154	
9	0	0	0	0	515	155	
10	0	0	0	0	519	155	
11	0	0	0	0	521	154	
12	0	0	0	0	521	154	
13	0	0	0	0	520	154	
14	0	0	0	0	518	154	
15	0	0	0	0	517	155	
0	0	0	0	0	514	154	
1	0	0	0	0	511	154	
2	0	0	0	0	508	154	
3	0	0	0	0	504	154	
4	0	0	0	0	500	155	
5	0	0	0	0	499	154	
6	0	0	0	0	499	155	
7	0	0	0	0	500	154	
8	0	0	0	0	504	154	
9	0	0	0	0	507	155	
10	0	0	0	0	510	155	
11	0	0	0	0	512	154	
12	0	0	0	0	513	153	
13	0	0	0	0	514	155	
14	0	0	0	0	514	154	
15	0	0	0	0	515	154	
0	0	0	0	0	515	155	
1	0	0	0	0	515	154	
2	0	0	0	0	513	154	
3	0	0	0	0	512	154	
4	0	0	0	0	510	155	
5	0	0	0	0	509	154	
6	0	0	0	0	507	154	
7	0	0	0	0	505	154	
8	0	0	0	0	506	155	
9	0	0	0	0	509	154	
10	0	0	0	0	512	154	
11	0	0	0	0	515	153	
12	0	0	0	0	518	155	
13	0	0	0	0	523	154	
14	0	0	0	0	527	154	
15	0	0	0	0	529	154	
0	0	0	0	0	529	154	
1	0	0	0	0	525	154	
2	0	0	0	0	519	154	
3	0	0	0	0	517	154	
4	0	0	0	0	515	154	
5	0	0	0	0	515	155	
6	0	0	0	0	513	154	
7	0	0	0	0	512	154	
8	0	0	0	0	512	154	
9	0	0	0	0	512	154	
10	0	0	0	0	515	154	
11	0	0	0	0	520	155	
12	0	0	0	0	523	154	
13	0	0	0	0	525	154	
14	0	0	0	0	526	154	
15	0	0	0	0	527	153	
0	0	0	0	0	527	155	
1	0	0	0	0	524	155	
2	0	0	0	0	519	154	
3	0	0	0	0	512	154	
4	0	0	0	0	505	154	
5	0	0	0	0	500	154	
6	0	0	0	0	499	155	
7	0	0	0	0	499	154	
8	0	0	0	0	503	154	
9	0	0	0	0	508	154	
10	0	0	0	0	513	155	
11	0	0	0	0	517	154	
12	0	0	0	0	521	154	
13	0	0	0	0	524	154	
14	0	0	0	0	524	154	
15	0	0	0	0	524	155	
0	0	0	0	0	524	154	
1	0	0	0	0	524	154	
2	0	0	0	0	523	154	
3	0	0	0	0	519	154	
4	0	0	0	0	515	155	
5	0	0	0	0	513	154	
6	0	0	0	0	512	154	
7	0	0	0	0	513	154	
8	0	0	0	0	516	154	
9	0	0	0	0	519	155	
10	0	0	0	0	523	154	
11	0	0	0	0	526	154	
12	0	0	0	0	526	154	
13	0	0	0	0	525	153	
14	0	0	0	0	524	155	
15	0	0	0	0	523	154	
0	0	0	0	0	523	154	
1	0	0	0	0	524	154	
2	0	0	0	0	524	154	
3	0	0	0	0	522	153	
4	0	0	0	0	519	154	
5	0	0	0	0	517	154	
6	0	0	0	0	515	154	
7	0	0	0	0	511	153	
8	0	0	0	0	506	154	
9	0	0	0	0	503	155	
10	0	0	0	0	500	154	
11	0	0	0	0	499	154	
12	0	0	0	0	502	154	
13	0	0	0	0	505	155	
14	0	0	0	0	511	154	
15	0	0	0	0	518	154	
0	0	0	0	0	524	154	
1	0	0	0	0	533	153	
2	0	0	0	0	543	155	
3	0	0	0	0	551	154	
4	0	0	0	0	556	154	
5	0	0	0	0	558	154	
6	0	0	0	0	558	153	
7	0	0	0	0	553	154	
8	0	0	0	0	545	154	
9	0	0	0	0	536	154	
10	0	0	0	0	532	154	
11	0	0	0	0	530	153	
12	0	0	0	0	529	154	
13	0	0	0	0	531	154	
14	0	0	0	0	533	154	
15	0	0	0	0	536	153	
0	0	0	0	0	537	155	
1	0	0	0	0	537	154	
2	0	0	0	0	537	154	
3	0	0	0	0	534	153	
4	0	0	0	0	530	153	
5	0	0	0	0	526	155	
6	0	0	0	0	522	154	
7	0	0	0	0	519	154	
8	0	0	0	0	516	154	
9	0	0	0	0	516	154	
10	0	0	0	0	519	155	
11	0	0	0	0	523	154	
12	0	0	0	0	525	154	
13	0	0	0	0	525	153	
14	0	0	0	0	523	154	
15	0	0	0	0	522	154	
0	0	0	0	0	522	154	
1	0	0	0	0	523	154	
2	0	0	0	0	524	153	
3	0	0	0	0	526	154	
4	0	0	0	0	526	154	
5	0	0	0	0	525	154	
6	0	0	0	0	524	154	
7	0	0	0	0	521	154	
8	0	0	0	0	519	154	
9	0	0	0	0	517	155	
10	0	0	0	0	516	155	
11	0	0	0	0	515	154	
12	0	0	0	0	516	154	
13	0	0	0	0	519	154	
14	0	0	0	0	523	154	
15	0	0	0	0	526	154	
0	0	0	0	0	529	154	
1	0	0	0	0	531	154	
2	0	0	0	0	531	153	
3	0	0	0	0	530	155	
4	0	0	0	0	527	154	
5	0	0	0	0	523	154	
6	0	0	0	0	518	154	
7	0	0	0	0	513	154	
8	0	0	0	0	509	153	
9	0	0	0	0	507	155	
10	0	0	0	0	506	154	
11	0	0	0	0	508	154	
12	0	0	0	0	511	154	
13	0	0	0	0	513	155	
14	0	0	0	0	516	154	
15	0	0	0	0	518	154	
0	0	0	0	0	520	154	
1	0	0	0	0	522	153	
2	0	0	0	0	524	154	
3	0	0	0	0	524	154	
4	0	0	0	0	524	154	
5	0	0	0	0	522	154	
6	0	0	0	0	521	153	
7	0	0	0	0	519	154	
8	0	0	0	0	516	155	
9	0	0	0	0	515	154	
10	0	0	0	0	515	154	
11	0	0	0	0	515	154	
12	0	0	0	0	515	155	
13	0	0	0	0	517	154	
14	0	0	0	0	521	154	
15	0	0	0	0	526	154	
0	0	0	0	0	531	153	
1	0	0	0	0	535	154	
2	0	0	0	0	538	155	
3	0	0	0	0	540	154	
4	0	0	0	0	541	154	
5	0	0	0	0	541	153	
6	0	0	0	0	540	153	
7	0	0	0	0	539	155	
8	0	0	0	0	539	154	
9	0	0	0	0	538	154	
10	0	0	0	0	539	154	
11	0	0	0	0	541	153	
12	0	0	0	0	543	154	
13	0	0	0	0	548	154	
14	0	0	0	0	554	154	
15	0	0	0	0	560	153	
0	0	0	0	0	568	153	
1	0	0	0	0	572	155	
2	0	0	0	0	575	154	
3	0	0	0	0	576	154	
4	0	0	0	0	576	153	
5	0	0	0	0	574	154	
6	0	0	0	0	569	154	
7	0	0	0	0	563	154	
8	0	0	0	0	556	154	
9	0	0	0	0	547	153	
10	0	0	0	0	536	154	
11	0	0	0	0	526	155	
12	0	0	0	0	515	154	
13	0	0	0	0	505	154	
14	0	0	0	0	499	154	
15	0	0	0	0	497	154	
0	0	0	0	0	501	154	
1	0	0	0	0	511	155	
2	0	0	0	0	524	154	
3	0	0	0	0	535	153	
4	0	0	0	0	539	154	
5	0	0	0	0	536	155	
6	0	0	0	0	534	154	
7	0	0	0	0	528	154	
8	0	0	0	0	522	154	
9	0	0	0	0	518	153	
10	0	0	0	0	512	154	
11	0	0	0	0	503	155	
12	0	0	0	0	494	154	
13	0	0	0	0	485	154	
14	0	0	0	0	477	154	
15	0	0	0	0	472	155	
0	0	0	0	0	471	155	
1	0	0	0	0	472	155	
2	0	0	0	0	474	154	
3	0	0	0	0	476	154	
4	0	0	0	0	477	155	
5	0	0	0	0	478	154	
6	0	0	0	0	478	154	
7	0	0	0	0	478	154	
8	0	0	0	0	478	154	
9	0	0	0	0	478	154	
10	0	0	0	0	478	155	
11	0	0	0	0	479	154	
12	0	0	0	0	480	154	
13	0	0	0	0	483	154	
14	0	0	0	0	485	154	
15	0	0	0	0	486	155	
0	0	0	0	0	487	154	
1	0	0	0	0	492	154	
2	0	0	0	0	498	154	
3	0	0	0	0	503	154	
4	0	0	0	0	509	155	
5	0	0	0	0	513	154	
6	0	0	0	0	519	154	
7	0	0	0	0	524	154	
8	0	0	0	0	525	153	
9	0	0	0	0	524	153	
10	0	0	0	0	521	154	
11	0	0	0	0	520	154	
12	0	0	0	0	519	154	
13	0	0	0	0	519	154	
14	0	0	0	0	520	154	
15	0	0	0	0	521	153	
0	0	0	0	0	523	154	
1	0	0	0	0	525	154	
2	0	0	0	0	528	154	
3	0	0	0	0	531	154	
4	0	0	0	0	534	153	
5	0	0	0	0	536	154	
6	0	0	0	0	538	154	
7	0	0	0	0	537	154	
8	0	0	0	0	537	154	
9	0	0	0	0	536	153	
10	0	0	0	0	534	154	
11	0	0	0	0	530	155	
12	0	0	0	0	526	154	
13	0	0	0	0	524	154	
14	0	0	0	0	522	153	
15	0	0	0	0	521	153	
0	0	0	0	0	521	155	
1	0	0	0	0	523	154	
2	0	0	0	0	525	154	
3	0	0	0	0	528	154	
4	0	0	0	0	532	154	
5	0	0	0	0	536	153	
6	0	0	0	0	537	154	
7	0	0	0	0	537	154	
8	0	0	0	0	535	154	
9	0	0	0	0	531	154	
10	0	0	0	0	527	153	
11	0	0	0	0	523	155	
12	0	0	0	0	519	154	
13	0	0	0	0	515	154	
14	0	0	0	0	512	153	
15	0	0	0	0	510	154	
0	0	0	0	0	510	155	
1	0	0	0	0	510	154	
2	0	0	0	0	511	154	
3	0	0	0	0	514	154	
4	0	0	0	0	517	153	
5	0	0	0	0	519	153	
6	0	0	0	0	520	155	
7	0	0	0	0	519	154	
8	0	0	0	0	519	154	
9	0	0	0	0	518	154	
10	0	0	0	0	517	154	
11	0	0	0	0	516	153	
12	0	0	0	0	515	154	
13	0	0	0	0	513	154	
14	0	0	0	0	510	154	
15	0	0	0	0	507	154	
0	0	0	0	0	504	154	
1	0	0	0	0	500	154	
2	0	0	0	0	499	155	
3	0	0	0	0	500	154	
4	0	0	0	0	504	154	
5	0	0	0	0	507	153	
6	0	0	0	0	509	154	
7	0	0	0	0	508	154	
8	0	0	0	0	507	154	
9	0	0	0	0	506	154	
10	0	0	0	0	504	154	
11	0	0	0	0	501	153	
12	0	0	0	0	499	153	
13	0	0	0	0	498	154	
14	0	0	0	0	497	154	
15	0	0	0	0	499	154	
0	0	0	0	0	501	154	
1	0	0	0	0	505	153	
2	0	0	0	0	508	154	
3	0	0	0	0	511	154	
4	0	0	0	0	516	154	
5	0	0	0	0	524	154	
6	0	0	0	0	529	153	
7	0	0	0	0	531	153	
8	0	0	0	0	528	154	
9	0	0	0	0	523	154	
10	0	0	0	0	519	154	
11	0	0	0	0	514	154	
12	0	0	0	0	509	154	
13	0	0	0	0	504	154	
14	0	0	0	0	500	154	
15	0	0	0	0	498	154	
0	0	0	0	0	496	154	
1	0	0	0	0	494	153	
2	0	0	0	0	495	155	
3	0	0	0	0	495	154	
4	0	0	0	0	496	154	
5	0	0	0	0	498	154	
6	0	0	0	0	499	153	
7	0	0	0	0	502	153	
8	0	0	0	0	504	154	
9	0	0	0	0	507	154	
10	0	0	0	0	508	154	
11	0	0	0	0	508	154	
12	0	0	0	0	507	153	
13	0	0	0	0	506	154	
14	0	0	0	0	504	154	
15	0	0	0	0	502	154	
0	0	0	0	0	500	154	
1	0	0	0	0	499	153	
2	0	0	0	0	497	154	
3	0	0	0	0	496	155	
4	0	0	0	0	498	154	
5	0	0	0	0	501	154	
6	0	0	0	0	507	154	
7	0	0	0	0	513	153	
8	0	0	0	0	519	153	
9	0	0	0	0	524	155	
10	0	0	0	0	525	154	
11	0	0	0	0	526	154	
12	0	0	0	0	526	154	
13	0	0	0	0	523	153	
14	0	0	0	0	519	154	
15	0	0	0	0	512	154	
0	0	0	0	0	506	154	
1	0	0	0	0	501	154	
2	0	0	0	0	500	153	
3	0	0	0	0	502	154	
4	0	0	0	0	504	154	
5	0	0	0	0	505	154	
6	0	0	0	0	507	154	
7	0	0	0	0	508	153	
8	0	0	0	0	510	154	
9	0	0	0	0	512	154	
10	0	0	0	0	514	154	
11	0	0	0	0	515	153	
12	0	0	0	0	514	153	
13	0	0	0	0	513	154	
14	0	0	0	0	511	154	
15	0	0	0	0	510	154	
0	0	0	0	0	508	154	
1	0	0	0	0	506	153	
2	0	0	0	0	504	153	
3	0	0	0	0	503	154	
4	0	0	0	0	503	154	
5	0	0	0	0	503	154	
6	0	0	0	0	504	154	
7	0	0	0	0	507	154	
8	0	0	0	0	508	154	
9	0	0	0	0	511	154	
10	0	0	0	0	513	154	
11	0	0	0	0	516	154	
12	0	0	0	0	518	154	
13	0	0	0	0	519	153	
14	0	0	0	0	521	155	
15	0	0	0	0	519	154	
0	0	0	0	0	515	154	
1	0	0	0	0	513	153	
2	0	0	0	0	512	155	
3	0	0	0	0	510	154	
4	0	0	0	0	508	154	
5	0	0	0	0	507	154	
6	0	0	0	0	507	154	
7	0	0	0	0	507	153	
8	0	0	0	0	511	154	
9	0	0	0	0	514	155	
10	0	0	0	0	517	154	
11	0	0	0	0	522	154	
12	0	0	0	0	525	154	
13	0	0	0	0	527	153	
14	0	0	0	0	527	153	
15	0	0	0	0	525	154	
0	0	0	0	0	523	154	
1	0	0	0	0	518	154	
2	0	0	0	0	514	154	
