# OpenSignals Text File Format. Version 1
# {"98:D3:B1:FD:3D:90": {"position": 0, "device": "bitalino_rev", "device name": "98:D3:B1:FD:3D:90", "device connection": "BTH98:D3:B1:FD:3D:90", "sampling rate": 1000, "resolution": [4, 1, 1, 1, 1, 10, 10], "firmware version": 1281, "comments": "", "keywords": "", "mode": 0, "sync interval": 2, "date": "2022-4-13", "time": "19:21:14.168", "channels": [2, 3], "sensor": ["ECGBIT", "EDABITREV"], "label": ["A2", "A3"], "column": ["nSeq", "I1", "I2", "O1", "O2", "A2", "A3"], "special": [{}, {}], "digital IO": [0, 0, 1, 1]}}
# EndOfHeader
0	0	0	0	0	511	505	
1	0	0	0	0	511	505	
2	0	0	0	0	511	505	
3	0	0	0	0	511	505	
4	0	0	0	0	511	505	
5	0	0	0	0	511	505	
6	0	0	0	0	510	505	
7	0	0	0	0	510	505	
8	0	0	0	0	509	505	
9	0	0	0	0	509	505	
10	0	0	0	0	509	505	
11	0	0	0	0	509	505	
12	0	0	0	0	510	505	
13	0	0	0	0	510	505	
14	0	0	0	0	511	505	
15	0	0	0	0	511	505	
0	0	0	0	0	511	505	
1	0	0	0	0	511	505	
2	0	0	0	0	511	505	
3	0	0	0	0	511	505	
4	0	0	0	0	511	505	
5	0	0	0	0	511	505	
6	0	0	0	0	510	505	
7	0	0	0	0	509	505	
8	0	0	0	0	510	505	
9	0	0	0	0	509	505	
10	0	0	0	0	509	505	
11	0	0	0	0	509	505	
12	0	0	0	0	510	505	
13	0	0	0	0	511	505	
14	0	0	0	0	510	505	
15	0	0	0	0	511	505	
0	0	0	0	0	511	505	
1	0	0	0	0	512	504	
2	0	0	0	0	512	505	
3	0	0	0	0	512	505	
4	0	0	0	0	511	505	
5	0	0	0	0	511	505	
6	0	0	0	0	509	505	
7	0	0	0	0	508	505	
8	0	0	0	0	508	505	
9	0	0	0	0	508	505	
10	0	0	0	0	508	505	
11	0	0	0	0	509	505	
12	0	0	0	0	508	505	
13	0	0	0	0	510	505	
14	0	0	0	0	511	505	
15	0	0	0	0	511	505	
0	0	0	0	0	511	504	
1	0	0	0	0	512	504	
2	0	0	0	0	512	504	
3	0	0	0	0	512	504	
4	0	0	0	0	512	504	
5	0	0	0	0	512	504	
6	0	0	0	0	512	504	
7	0	0	0	0	511	505	
8	0	0	0	0	511	505	
9	0	0	0	0	511	504	
10	0	0	0	0	511	504	
11	0	0	0	0	510	504	
12	0	0	0	0	510	504	
13	0	0	0	0	511	504	
14	0	0	0	0	512	504	
15	0	0	0	0	512	504	
0	0	0	0	0	512	504	
1	0	0	0	0	512	504	
2	0	0	0	0	512	504	
3	0	0	0	0	511	504	
4	0	0	0	0	512	504	
5	0	0	0	0	512	504	
6	0	0	0	0	511	504	
7	0	0	0	0	511	504	
8	0	0	0	0	512	504	
9	0	0	0	0	512	504	
10	0	0	0	0	512	504	
11	0	0	0	0	512	504	
12	0	0	0	0	512	504	
13	0	0	0	0	512	504	
14	0	0	0	0	512	504	
15	0	0	0	0	513	504	
0	0	0	0	0	513	504	
1	0	0	0	0	514	504	
2	0	0	0	0	515	504	
3	0	0	0	0	515	504	
4	0	0	0	0	515	504	
5	0	0	0	0	514	504	
6	0	0	0	0	513	504	
7	0	0	0	0	513	504	
8	0	0	0	0	513	504	
9	0	0	0	0	513	504	
10	0	0	0	0	512	504	
11	0	0	0	0	512	504	
12	0	0	0	0	512	504	
13	0	0	0	0	512	504	
14	0	0	0	0	512	504	
15	0	0	0	0	512	504	
0	0	0	0	0	512	504	
1	0	0	0	0	513	504	
2	0	0	0	0	514	504	
3	0	0	0	0	515	504	
4	0	0	0	0	515	504	
5	0	0	0	0	515	504	
6	0	0	0	0	515	504	
7	0	0	0	0	514	504	
8	0	0	0	0	513	504	
9	0	0	0	0	513	504	
10	0	0	0	0	513	504	
11	0	0	0	0	512	504	
12	0	0	0	0	512	504	
13	0	0	0	0	512	504	
14	0	0	0	0	511	504	
15	0	0	0	0	511	504	
0	0	0	0	0	511	504	
1	0	0	0	0	511	504	
2	0	0	0	0	512	504	
3	0	0	0	0	511	504	
4	0	0	0	0	511	504	
5	0	0	0	0	512	504	
6	0	0	0	0	512	504	
7	0	0	0	0	512	504	
8	0	0	0	0	511	504	
9	0	0	0	0	510	504	
10	0	0	0	0	509	504	
11	0	0	0	0	509	504	
12	0	0	0	0	510	504	
13	0	0	0	0	509	504	
14	0	0	0	0	509	504	
15	0	0	0	0	509	504	
0	0	0	0	0	510	504	
1	0	0	0	0	511	504	
2	0	0	0	0	512	504	
3	0	0	0	0	513	504	
4	0	0	0	0	514	504	
5	0	0	0	0	514	504	
6	0	0	0	0	515	504	
7	0	0	0	0	516	504	
8	0	0	0	0	516	504	
9	0	0	0	0	516	504	
10	0	0	0	0	516	504	
11	0	0	0	0	516	504	
12	0	0	0	0	516	504	
13	0	0	0	0	516	504	
14	0	0	0	0	515	504	
15	0	0	0	0	515	504	
0	0	0	0	0	515	504	
1	0	0	0	0	516	504	
2	0	0	0	0	518	504	
3	0	0	0	0	518	504	
4	0	0	0	0	518	504	
5	0	0	0	0	517	504	
6	0	0	0	0	517	504	
7	0	0	0	0	517	504	
8	0	0	0	0	516	504	
9	0	0	0	0	516	504	
10	0	0	0	0	515	504	
11	0	0	0	0	515	504	
12	0	0	0	0	515	504	
13	0	0	0	0	515	504	
14	0	0	0	0	515	504	
15	0	0	0	0	515	504	
0	0	0	0	0	514	504	
1	0	0	0	0	514	504	
2	0	0	0	0	514	504	
3	0	0	0	0	515	504	
4	0	0	0	0	516	504	
5	0	0	0	0	517	504	
6	0	0	0	0	516	504	
7	0	0	0	0	515	504	
8	0	0	0	0	515	504	
9	0	0	0	0	515	503	
10	0	0	0	0	516	504	
11	0	0	0	0	516	503	
12	0	0	0	0	516	504	
13	0	0	0	0	515	504	
14	0	0	0	0	514	504	
15	0	0	0	0	515	504	
0	0	0	0	0	515	504	
1	0	0	0	0	515	504	
2	0	0	0	0	514	504	
3	0	0	0	0	515	504	
4	0	0	0	0	515	504	
5	0	0	0	0	514	504	
6	0	0	0	0	514	504	
7	0	0	0	0	513	503	
8	0	0	0	0	513	504	
9	0	0	0	0	513	504	
10	0	0	0	0	512	503	
11	0	0	0	0	512	504	
12	0	0	0	0	510	503	
13	0	0	0	0	509	504	
14	0	0	0	0	509	504	
15	0	0	0	0	507	504	
0	0	0	0	0	506	504	
1	0	0	0	0	505	504	
2	0	0	0	0	505	504	
3	0	0	0	0	504	504	
4	0	0	0	0	504	503	
5	0	0	0	0	503	504	
6	0	0	0	0	503	503	
7	0	0	0	0	503	503	
8	0	0	0	0	503	503	
9	0	0	0	0	502	503	
10	0	0	0	0	502	504	
11	0	0	0	0	502	503	
12	0	0	0	0	504	504	
13	0	0	0	0	504	503	
14	0	0	0	0	504	503	
15	0	0	0	0	504	504	
0	0	0	0	0	504	503	
1	0	0	0	0	503	504	
2	0	0	0	0	502	503	
3	0	0	0	0	501	503	
4	0	0	0	0	502	503	
5	0	0	0	0	502	503	
6	0	0	0	0	502	503	
7	0	0	0	0	501	503	
8	0	0	0	0	500	503	
9	0	0	0	0	500	503	
10	0	0	0	0	500	503	
11	0	0	0	0	499	503	
12	0	0	0	0	499	503	
13	0	0	0	0	499	503	
14	0	0	0	0	499	503	
15	0	0	0	0	499	503	
0	0	0	0	0	500	503	
1	0	0	0	0	501	503	
2	0	0	0	0	501	503	
3	0	0	0	0	502	503	
4	0	0	0	0	502	503	
5	0	0	0	0	504	503	
6	0	0	0	0	505	503	
7	0	0	0	0	506	503	
8	0	0	0	0	507	503	
9	0	0	0	0	508	503	
10	0	0	0	0	509	503	
11	0	0	0	0	510	503	
12	0	0	0	0	510	503	
13	0	0	0	0	510	503	
14	0	0	0	0	510	503	
15	0	0	0	0	509	503	
0	0	0	0	0	509	503	
1	0	0	0	0	510	503	
2	0	0	0	0	509	503	
3	0	0	0	0	509	503	
4	0	0	0	0	509	503	
5	0	0	0	0	510	503	
6	0	0	0	0	511	503	
7	0	0	0	0	511	503	
8	0	0	0	0	511	503	
9	0	0	0	0	512	503	
10	0	0	0	0	512	503	
11	0	0	0	0	513	503	
12	0	0	0	0	513	503	
13	0	0	0	0	512	503	
14	0	0	0	0	512	503	
15	0	0	0	0	511	503	
0	0	0	0	0	510	503	
1	0	0	0	0	509	503	
2	0	0	0	0	509	503	
3	0	0	0	0	508	503	
4	0	0	0	0	507	503	
5	0	0	0	0	507	503	
6	0	0	0	0	507	503	
7	0	0	0	0	507	503	
8	0	0	0	0	507	503	
9	0	0	0	0	507	503	
10	0	0	0	0	508	503	
11	0	0	0	0	508	503	
12	0	0	0	0	508	503	
13	0	0	0	0	508	503	
14	0	0	0	0	508	503	
15	0	0	0	0	508	503	
0	0	0	0	0	508	503	
1	0	0	0	0	507	503	
2	0	0	0	0	507	503	
3	0	0	0	0	507	503	
4	0	0	0	0	506	503	
5	0	0	0	0	506	503	
6	0	0	0	0	505	503	
7	0	0	0	0	505	503	
8	0	0	0	0	506	503	
9	0	0	0	0	506	503	
10	0	0	0	0	506	503	
11	0	0	0	0	506	503	
12	0	0	0	0	506	503	
13	0	0	0	0	506	503	
14	0	0	0	0	505	503	
15	0	0	0	0	505	503	
0	0	0	0	0	504	503	
1	0	0	0	0	504	503	
2	0	0	0	0	504	503	
3	0	0	0	0	503	502	
4	0	0	0	0	503	503	
5	0	0	0	0	503	502	
6	0	0	0	0	504	503	
7	0	0	0	0	504	503	
8	0	0	0	0	505	502	
9	0	0	0	0	506	502	
10	0	0	0	0	507	502	
11	0	0	0	0	509	502	
12	0	0	0	0	509	502	
13	0	0	0	0	509	502	
14	0	0	0	0	509	502	
15	0	0	0	0	509	502	
0	0	0	0	0	509	503	
1	0	0	0	0	509	502	
2	0	0	0	0	510	502	
3	0	0	0	0	509	502	
4	0	0	0	0	508	502	
5	0	0	0	0	507	503	
6	0	0	0	0	507	502	
7	0	0	0	0	506	502	
8	0	0	0	0	506	502	
9	0	0	0	0	505	502	
10	0	0	0	0	505	502	
11	0	0	0	0	506	502	
12	0	0	0	0	507	502	
13	0	0	0	0	508	502	
14	0	0	0	0	508	502	
15	0	0	0	0	508	502	
0	0	0	0	0	508	502	
1	0	0	0	0	508	502	
2	0	0	0	0	508	502	
3	0	0	0	0	508	502	
4	0	0	0	0	508	503	
5	0	0	0	0	507	502	
6	0	0	0	0	508	502	
7	0	0	0	0	507	502	
8	0	0	0	0	506	502	
9	0	0	0	0	506	502	
10	0	0	0	0	507	502	
11	0	0	0	0	507	502	
12	0	0	0	0	508	502	
13	0	0	0	0	508	502	
14	0	0	0	0	509	502	
15	0	0	0	0	509	502	
0	0	0	0	0	509	502	
1	0	0	0	0	510	502	
2	0	0	0	0	509	502	
3	0	0	0	0	509	502	
4	0	0	0	0	509	502	
5	0	0	0	0	509	502	
6	0	0	0	0	509	502	
7	0	0	0	0	510	502	
8	0	0	0	0	510	502	
9	0	0	0	0	510	502	
10	0	0	0	0	511	502	
11	0	0	0	0	512	502	
12	0	0	0	0	513	502	
13	0	0	0	0	513	502	
14	0	0	0	0	512	502	
15	0	0	0	0	513	502	
0	0	0	0	0	513	502	
1	0	0	0	0	513	502	
2	0	0	0	0	514	502	
3	0	0	0	0	513	502	
4	0	0	0	0	512	502	
5	0	0	0	0	512	502	
6	0	0	0	0	511	502	
7	0	0	0	0	511	502	
8	0	0	0	0	511	502	
9	0	0	0	0	512	502	
10	0	0	0	0	512	502	
11	0	0	0	0	510	502	
12	0	0	0	0	510	502	
13	0	0	0	0	510	502	
14	0	0	0	0	507	502	
15	0	0	0	0	504	502	
0	0	0	0	0	502	502	
1	0	0	0	0	500	502	
2	0	0	0	0	497	502	
3	0	0	0	0	494	502	
4	0	0	0	0	491	502	
5	0	0	0	0	488	502	
6	0	0	0	0	487	502	
7	0	0	0	0	484	502	
8	0	0	0	0	482	502	
9	0	0	0	0	480	502	
10	0	0	0	0	476	502	
11	0	0	0	0	474	502	
12	0	0	0	0	472	502	
13	0	0	0	0	470	502	
14	0	0	0	0	471	502	
15	0	0	0	0	472	501	
0	0	0	0	0	472	502	
1	0	0	0	0	474	502	
2	0	0	0	0	475	502	
3	0	0	0	0	476	502	
4	0	0	0	0	477	502	
5	0	0	0	0	478	502	
6	0	0	0	0	479	502	
7	0	0	0	0	479	502	
8	0	0	0	0	480	502	
9	0	0	0	0	479	502	
10	0	0	0	0	479	502	
11	0	0	0	0	479	502	
12	0	0	0	0	479	502	
13	0	0	0	0	479	502	
14	0	0	0	0	479	502	
15	0	0	0	0	480	502	
0	0	0	0	0	483	501	
1	0	0	0	0	486	502	
2	0	0	0	0	489	502	
3	0	0	0	0	491	502	
4	0	0	0	0	493	502	
5	0	0	0	0	496	502	
6	0	0	0	0	498	501	
7	0	0	0	0	499	501	
8	0	0	0	0	502	501	
9	0	0	0	0	504	501	
10	0	0	0	0	505	502	
11	0	0	0	0	507	501	
12	0	0	0	0	508	502	
13	0	0	0	0	508	501	
14	0	0	0	0	509	501	
15	0	0	0	0	512	501	
0	0	0	0	0	513	501	
1	0	0	0	0	515	501	
2	0	0	0	0	516	501	
3	0	0	0	0	517	501	
4	0	0	0	0	517	501	
5	0	0	0	0	516	501	
6	0	0	0	0	515	501	
7	0	0	0	0	515	501	
8	0	0	0	0	514	501	
9	0	0	0	0	513	501	
10	0	0	0	0	512	501	
11	0	0	0	0	511	501	
12	0	0	0	0	510	501	
13	0	0	0	0	510	501	
14	0	0	0	0	508	501	
15	0	0	0	0	508	501	
0	0	0	0	0	507	501	
1	0	0	0	0	506	501	
2	0	0	0	0	505	501	
3	0	0	0	0	504	501	
4	0	0	0	0	502	501	
5	0	0	0	0	501	501	
6	0	0	0	0	499	501	
7	0	0	0	0	499	501	
8	0	0	0	0	497	501	
9	0	0	0	0	496	501	
10	0	0	0	0	496	501	
11	0	0	0	0	496	501	
12	0	0	0	0	495	501	
13	0	0	0	0	496	501	
14	0	0	0	0	494	501	
15	0	0	0	0	494	501	
0	0	0	0	0	493	501	
1	0	0	0	0	493	501	
2	0	0	0	0	493	501	
3	0	0	0	0	493	501	
4	0	0	0	0	492	501	
5	0	0	0	0	492	501	
6	0	0	0	0	492	501	
7	0	0	0	0	492	501	
8	0	0	0	0	492	501	
9	0	0	0	0	492	501	
10	0	0	0	0	492	501	
11	0	0	0	0	492	501	
12	0	0	0	0	492	501	
13	0	0	0	0	492	501	
14	0	0	0	0	492	501	
15	0	0	0	0	494	501	
0	0	0	0	0	495	501	
1	0	0	0	0	495	501	
2	0	0	0	0	496	501	
3	0	0	0	0	496	500	
4	0	0	0	0	497	501	
5	0	0	0	0	497	501	
6	0	0	0	0	497	501	
7	0	0	0	0	496	501	
8	0	0	0	0	496	501	
9	0	0	0	0	495	501	
10	0	0	0	0	496	501	
11	0	0	0	0	496	501	
12	0	0	0	0	495	501	
13	0	0	0	0	496	501	
14	0	0	0	0	495	501	
15	0	0	0	0	497	501	
0	0	0	0	0	497	501	
1	0	0	0	0	497	501	
2	0	0	0	0	499	500	
3	0	0	0	0	500	501	
4	0	0	0	0	501	501	
5	0	0	0	0	502	501	
6	0	0	0	0	501	501	
7	0	0	0	0	500	501	
8	0	0	0	0	501	501	
9	0	0	0	0	500	501	
10	0	0	0	0	501	501	
11	0	0	0	0	501	501	
12	0	0	0	0	501	501	
13	0	0	0	0	500	500	
14	0	0	0	0	500	501	
15	0	0	0	0	500	500	
0	0	0	0	0	500	500	
1	0	0	0	0	502	501	
2	0	0	0	0	503	500	
3	0	0	0	0	504	501	
4	0	0	0	0	505	500	
5	0	0	0	0	505	500	
6	0	0	0	0	505	500	
7	0	0	0	0	505	500	
8	0	0	0	0	504	500	
9	0	0	0	0	504	500	
10	0	0	0	0	503	500	
11	0	0	0	0	502	500	
12	0	0	0	0	502	500	
13	0	0	0	0	503	500	
14	0	0	0	0	503	500	
15	0	0	0	0	502	500	
0	0	0	0	0	502	500	
1	0	0	0	0	502	500	
2	0	0	0	0	502	500	
3	0	0	0	0	503	500	
4	0	0	0	0	503	500	
5	0	0	0	0	503	500	
6	0	0	0	0	502	500	
7	0	0	0	0	502	500	
8	0	0	0	0	502	500	
9	0	0	0	0	500	500	
10	0	0	0	0	499	500	
11	0	0	0	0	498	500	
12	0	0	0	0	498	500	
13	0	0	0	0	498	500	
14	0	0	0	0	498	500	
15	0	0	0	0	498	500	
0	0	0	0	0	497	500	
1	0	0	0	0	497	500	
2	0	0	0	0	497	500	
3	0	0	0	0	497	500	
4	0	0	0	0	497	500	
5	0	0	0	0	497	500	
6	0	0	0	0	497	500	
7	0	0	0	0	497	500	
8	0	0	0	0	497	500	
9	0	0	0	0	497	500	
10	0	0	0	0	496	500	
11	0	0	0	0	496	500	
12	0	0	0	0	495	500	
13	0	0	0	0	493	500	
14	0	0	0	0	492	500	
15	0	0	0	0	492	500	
0	0	0	0	0	492	500	
1	0	0	0	0	492	500	
2	0	0	0	0	492	500	
3	0	0	0	0	492	500	
4	0	0	0	0	492	500	
5	0	0	0	0	493	500	
6	0	0	0	0	494	500	
7	0	0	0	0	494	500	
8	0	0	0	0	493	500	
9	0	0	0	0	493	500	
10	0	0	0	0	492	500	
11	0	0	0	0	491	500	
12	0	0	0	0	490	500	
13	0	0	0	0	489	500	
14	0	0	0	0	488	500	
15	0	0	0	0	489	500	
0	0	0	0	0	488	500	
1	0	0	0	0	488	500	
2	0	0	0	0	488	500	
3	0	0	0	0	488	500	
4	0	0	0	0	490	500	
5	0	0	0	0	491	500	
6	0	0	0	0	492	500	
7	0	0	0	0	492	500	
8	0	0	0	0	491	500	
9	0	0	0	0	491	500	
10	0	0	0	0	491	500	
11	0	0	0	0	489	500	
12	0	0	0	0	489	500	
13	0	0	0	0	489	500	
14	0	0	0	0	488	500	
15	0	0	0	0	488	500	
0	0	0	0	0	487	500	
1	0	0	0	0	487	500	
2	0	0	0	0	486	500	
3	0	0	0	0	487	500	
4	0	0	0	0	487	500	
5	0	0	0	0	487	500	
6	0	0	0	0	487	500	
7	0	0	0	0	487	500	
8	0	0	0	0	487	500	
9	0	0	0	0	487	499	
10	0	0	0	0	487	500	
11	0	0	0	0	487	500	
12	0	0	0	0	487	500	
13	0	0	0	0	488	500	
14	0	0	0	0	488	500	
15	0	0	0	0	489	500	
0	0	0	0	0	489	500	
1	0	0	0	0	490	500	
2	0	0	0	0	490	500	
3	0	0	0	0	491	500	
4	0	0	0	0	491	499	
5	0	0	0	0	492	500	
6	0	0	0	0	492	499	
7	0	0	0	0	493	499	
8	0	0	0	0	493	499	
9	0	0	0	0	494	499	
10	0	0	0	0	494	499	
11	0	0	0	0	495	499	
12	0	0	0	0	495	500	
13	0	0	0	0	495	499	
14	0	0	0	0	496	499	
15	0	0	0	0	496	500	
0	0	0	0	0	495	499	
1	0	0	0	0	495	499	
2	0	0	0	0	495	499	
3	0	0	0	0	496	499	
4	0	0	0	0	497	499	
5	0	0	0	0	498	499	
6	0	0	0	0	500	499	
7	0	0	0	0	500	499	
8	0	0	0	0	500	499	
9	0	0	0	0	501	499	
10	0	0	0	0	501	499	
11	0	0	0	0	502	499	
12	0	0	0	0	502	499	
13	0	0	0	0	503	499	
14	0	0	0	0	502	499	
15	0	0	0	0	502	499	
0	0	0	0	0	503	499	
1	0	0	0	0	503	499	
2	0	0	0	0	504	499	
3	0	0	0	0	504	499	
4	0	0	0	0	504	499	
5	0	0	0	0	505	499	
6	0	0	0	0	506	499	
7	0	0	0	0	508	499	
8	0	0	0	0	510	499	
9	0	0	0	0	510	499	
10	0	0	0	0	511	499	
11	0	0	0	0	512	499	
12	0	0	0	0	512	499	
13	0	0	0	0	511	499	
14	0	0	0	0	512	499	
15	0	0	0	0	512	499	
0	0	0	0	0	512	499	
1	0	0	0	0	512	499	
2	0	0	0	0	514	499	
3	0	0	0	0	514	499	
4	0	0	0	0	515	499	
5	0	0	0	0	517	499	
6	0	0	0	0	517	499	
7	0	0	0	0	519	499	
8	0	0	0	0	519	499	
9	0	0	0	0	520	499	
10	0	0	0	0	520	499	
11	0	0	0	0	521	499	
12	0	0	0	0	521	499	
13	0	0	0	0	521	499	
14	0	0	0	0	522	499	
15	0	0	0	0	522	499	
0	0	0	0	0	522	499	
1	0	0	0	0	523	499	
2	0	0	0	0	523	499	
3	0	0	0	0	524	499	
4	0	0	0	0	523	499	
5	0	0	0	0	524	499	
6	0	0	0	0	525	499	
7	0	0	0	0	527	499	
8	0	0	0	0	527	499	
9	0	0	0	0	528	499	
10	0	0	0	0	529	499	
11	0	0	0	0	529	499	
12	0	0	0	0	530	499	
13	0	0	0	0	531	499	
14	0	0	0	0	530	499	
15	0	0	0	0	530	499	
0	0	0	0	0	530	499	
1	0	0	0	0	529	499	
2	0	0	0	0	530	499	
3	0	0	0	0	530	499	
4	0	0	0	0	530	499	
5	0	0	0	0	530	499	
6	0	0	0	0	531	499	
7	0	0	0	0	531	499	
8	0	0	0	0	532	499	
9	0	0	0	0	532	499	
10	0	0	0	0	532	499	
11	0	0	0	0	532	499	
12	0	0	0	0	533	499	
13	0	0	0	0	534	499	
14	0	0	0	0	533	499	
15	0	0	0	0	532	499	
0	0	0	0	0	530	499	
1	0	0	0	0	530	499	
2	0	0	0	0	530	499	
3	0	0	0	0	531	499	
4	0	0	0	0	531	499	
5	0	0	0	0	531	499	
6	0	0	0	0	530	499	
7	0	0	0	0	531	499	
8	0	0	0	0	531	499	
9	0	0	0	0	531	499	
10	0	0	0	0	532	499	
11	0	0	0	0	533	499	
12	0	0	0	0	532	499	
13	0	0	0	0	532	499	
14	0	0	0	0	532	499	
15	0	0	0	0	531	499	
0	0	0	0	0	531	499	
1	0	0	0	0	531	499	
2	0	0	0	0	530	499	
3	0	0	0	0	529	499	
4	0	0	0	0	529	499	
5	0	0	0	0	531	499	
6	0	0	0	0	531	499	
7	0	0	0	0	530	499	
8	0	0	0	0	530	499	
9	0	0	0	0	531	498	
10	0	0	0	0	532	499	
11	0	0	0	0	532	499	
12	0	0	0	0	532	499	
13	0	0	0	0	532	499	
14	0	0	0	0	531	499	
15	0	0	0	0	531	499	
0	0	0	0	0	531	499	
1	0	0	0	0	530	499	
2	0	0	0	0	530	499	
3	0	0	0	0	530	498	
4	0	0	0	0	530	499	
5	0	0	0	0	529	498	
6	0	0	0	0	529	499	
7	0	0	0	0	528	499	
8	0	0	0	0	527	499	
9	0	0	0	0	528	499	
10	0	0	0	0	527	498	
11	0	0	0	0	528	498	
12	0	0	0	0	528	498	
13	0	0	0	0	527	498	
14	0	0	0	0	527	498	
15	0	0	0	0	527	498	
0	0	0	0	0	526	498	
1	0	0	0	0	526	498	
2	0	0	0	0	526	498	
3	0	0	0	0	525	499	
4	0	0	0	0	524	498	
5	0	0	0	0	523	498	
6	0	0	0	0	523	498	
7	0	0	0	0	522	498	
8	0	0	0	0	522	498	
9	0	0	0	0	521	498	
10	0	0	0	0	522	498	
11	0	0	0	0	521	498	
12	0	0	0	0	521	498	
13	0	0	0	0	520	498	
14	0	0	0	0	520	498	
15	0	0	0	0	520	498	
0	0	0	0	0	520	498	
1	0	0	0	0	520	498	
2	0	0	0	0	520	498	
3	0	0	0	0	520	498	
4	0	0	0	0	519	498	
5	0	0	0	0	519	498	
6	0	0	0	0	519	498	
7	0	0	0	0	519	498	
8	0	0	0	0	518	498	
9	0	0	0	0	517	498	
10	0	0	0	0	517	498	
11	0	0	0	0	518	498	
12	0	0	0	0	518	498	
13	0	0	0	0	519	498	
14	0	0	0	0	519	498	
15	0	0	0	0	519	498	
0	0	0	0	0	518	498	
1	0	0	0	0	518	498	
2	0	0	0	0	518	498	
3	0	0	0	0	517	498	
4	0	0	0	0	517	498	
5	0	0	0	0	516	498	
6	0	0	0	0	516	498	
7	0	0	0	0	515	498	
8	0	0	0	0	513	498	
9	0	0	0	0	513	498	
10	0	0	0	0	513	498	
11	0	0	0	0	513	498	
12	0	0	0	0	513	498	
13	0	0	0	0	513	498	
14	0	0	0	0	515	498	
15	0	0	0	0	515	497	
0	0	0	0	0	515	498	
1	0	0	0	0	514	498	
2	0	0	0	0	513	498	
3	0	0	0	0	513	498	
4	0	0	0	0	512	498	
5	0	0	0	0	512	498	
6	0	0	0	0	512	498	
7	0	0	0	0	511	498	
8	0	0	0	0	512	498	
9	0	0	0	0	512	498	
10	0	0	0	0	513	498	
11	0	0	0	0	513	498	
12	0	0	0	0	514	498	
13	0	0	0	0	515	498	
14	0	0	0	0	516	497	
15	0	0	0	0	517	498	
0	0	0	0	0	517	498	
1	0	0	0	0	516	498	
2	0	0	0	0	515	498	
3	0	0	0	0	515	497	
4	0	0	0	0	514	498	
5	0	0	0	0	514	497	
6	0	0	0	0	513	498	
7	0	0	0	0	512	498	
8	0	0	0	0	512	498	
9	0	0	0	0	512	498	
10	0	0	0	0	511	498	
11	0	0	0	0	512	498	
12	0	0	0	0	513	498	
13	0	0	0	0	513	497	
14	0	0	0	0	515	498	
15	0	0	0	0	515	497	
0	0	0	0	0	515	497	
1	0	0	0	0	515	497	
2	0	0	0	0	515	497	
3	0	0	0	0	514	498	
4	0	0	0	0	513	497	
5	0	0	0	0	512	497	
6	0	0	0	0	512	498	
7	0	0	0	0	511	498	
8	0	0	0	0	510	497	
9	0	0	0	0	509	498	
10	0	0	0	0	508	497	
11	0	0	0	0	508	497	
12	0	0	0	0	508	497	
13	0	0	0	0	509	498	
14	0	0	0	0	510	497	
15	0	0	0	0	511	497	
0	0	0	0	0	511	497	
1	0	0	0	0	512	497	
2	0	0	0	0	511	497	
3	0	0	0	0	511	497	
4	0	0	0	0	512	497	
5	0	0	0	0	512	497	
6	0	0	0	0	511	497	
7	0	0	0	0	511	497	
8	0	0	0	0	511	497	
9	0	0	0	0	510	497	
10	0	0	0	0	510	497	
11	0	0	0	0	510	497	
12	0	0	0	0	511	497	
13	0	0	0	0	511	497	
14	0	0	0	0	511	497	
15	0	0	0	0	512	497	
0	0	0	0	0	512	497	
1	0	0	0	0	513	497	
2	0	0	0	0	514	497	
3	0	0	0	0	514	497	
4	0	0	0	0	514	497	
5	0	0	0	0	513	497	
6	0	0	0	0	512	497	
7	0	0	0	0	512	497	
8	0	0	0	0	512	497	
9	0	0	0	0	511	497	
10	0	0	0	0	511	497	
11	0	0	0	0	511	497	
12	0	0	0	0	511	497	
13	0	0	0	0	511	497	
14	0	0	0	0	511	497	
15	0	0	0	0	512	497	
0	0	0	0	0	512	497	
1	0	0	0	0	513	497	
2	0	0	0	0	513	497	
3	0	0	0	0	513	497	
4	0	0	0	0	512	497	
5	0	0	0	0	512	497	
6	0	0	0	0	511	497	
7	0	0	0	0	510	497	
8	0	0	0	0	510	497	
9	0	0	0	0	508	497	
10	0	0	0	0	508	497	
11	0	0	0	0	508	497	
12	0	0	0	0	508	497	
13	0	0	0	0	508	497	
14	0	0	0	0	508	497	
15	0	0	0	0	509	497	
0	0	0	0	0	509	497	
1	0	0	0	0	510	497	
2	0	0	0	0	512	497	
3	0	0	0	0	512	497	
4	0	0	0	0	512	497	
5	0	0	0	0	512	497	
6	0	0	0	0	513	497	
7	0	0	0	0	513	497	
8	0	0	0	0	513	497	
9	0	0	0	0	512	497	
10	0	0	0	0	511	497	
11	0	0	0	0	510	497	
12	0	0	0	0	510	497	
13	0	0	0	0	511	497	
14	0	0	0	0	511	497	
15	0	0	0	0	511	497	
0	0	0	0	0	511	497	
1	0	0	0	0	512	497	
2	0	0	0	0	512	497	
3	0	0	0	0	513	497	
4	0	0	0	0	513	497	
5	0	0	0	0	513	497	
6	0	0	0	0	513	497	
7	0	0	0	0	512	497	
8	0	0	0	0	511	497	
9	0	0	0	0	511	497	
10	0	0	0	0	510	497	
11	0	0	0	0	510	497	
12	0	0	0	0	509	497	
13	0	0	0	0	509	497	
14	0	0	0	0	509	497	
15	0	0	0	0	509	497	
0	0	0	0	0	508	497	
1	0	0	0	0	509	497	
2	0	0	0	0	509	497	
3	0	0	0	0	510	497	
4	0	0	0	0	511	497	
5	0	0	0	0	512	497	
6	0	0	0	0	512	497	
7	0	0	0	0	512	497	
8	0	0	0	0	511	497	
9	0	0	0	0	510	497	
10	0	0	0	0	510	497	
11	0	0	0	0	509	497	
12	0	0	0	0	509	497	
13	0	0	0	0	510	497	
14	0	0	0	0	510	497	
15	0	0	0	0	510	497	
0	0	0	0	0	510	497	
1	0	0	0	0	510	497	
2	0	0	0	0	511	496	
3	0	0	0	0	511	497	
4	0	0	0	0	511	497	
5	0	0	0	0	512	496	
6	0	0	0	0	512	497	
7	0	0	0	0	511	496	
8	0	0	0	0	511	497	
9	0	0	0	0	510	496	
10	0	0	0	0	510	496	
11	0	0	0	0	510	497	
12	0	0	0	0	510	497	
13	0	0	0	0	510	497	
14	0	0	0	0	510	496	
15	0	0	0	0	510	496	
0	0	0	0	0	511	496	
1	0	0	0	0	511	496	
2	0	0	0	0	512	496	
3	0	0	0	0	512	496	
4	0	0	0	0	512	496	
5	0	0	0	0	512	496	
6	0	0	0	0	512	496	
7	0	0	0	0	512	496	
8	0	0	0	0	513	496	
9	0	0	0	0	513	496	
10	0	0	0	0	513	497	
11	0	0	0	0	513	496	
12	0	0	0	0	513	496	
13	0	0	0	0	512	496	
14	0	0	0	0	512	496	
15	0	0	0	0	512	496	
0	0	0	0	0	512	496	
1	0	0	0	0	513	496	
2	0	0	0	0	513	496	
3	0	0	0	0	512	496	
4	0	0	0	0	513	496	
5	0	0	0	0	513	496	
6	0	0	0	0	512	496	
7	0	0	0	0	512	496	
8	0	0	0	0	511	496	
9	0	0	0	0	511	496	
10	0	0	0	0	511	496	
11	0	0	0	0	510	496	
12	0	0	0	0	510	496	
13	0	0	0	0	509	496	
14	0	0	0	0	507	496	
15	0	0	0	0	507	496	
0	0	0	0	0	507	496	
1	0	0	0	0	505	496	
2	0	0	0	0	506	496	
3	0	0	0	0	506	496	
4	0	0	0	0	506	496	
5	0	0	0	0	507	496	
6	0	0	0	0	507	496	
7	0	0	0	0	507	496	
8	0	0	0	0	507	496	
9	0	0	0	0	507	496	
10	0	0	0	0	506	496	
11	0	0	0	0	505	496	
12	0	0	0	0	504	496	
13	0	0	0	0	504	496	
14	0	0	0	0	503	496	
15	0	0	0	0	503	496	
0	0	0	0	0	502	496	
1	0	0	0	0	501	496	
2	0	0	0	0	501	496	
3	0	0	0	0	501	496	
4	0	0	0	0	500	496	
5	0	0	0	0	502	496	
6	0	0	0	0	502	496	
7	0	0	0	0	503	496	
8	0	0	0	0	502	496	
9	0	0	0	0	502	496	
10	0	0	0	0	503	496	
11	0	0	0	0	502	496	
12	0	0	0	0	502	496	
13	0	0	0	0	501	496	
14	0	0	0	0	501	496	
15	0	0	0	0	501	496	
0	0	0	0	0	501	496	
1	0	0	0	0	502	496	
2	0	0	0	0	502	496	
3	0	0	0	0	502	496	
4	0	0	0	0	503	496	
5	0	0	0	0	503	496	
6	0	0	0	0	504	496	
7	0	0	0	0	504	496	
8	0	0	0	0	505	496	
9	0	0	0	0	506	496	
10	0	0	0	0	505	496	
11	0	0	0	0	506	496	
12	0	0	0	0	507	496	
13	0	0	0	0	507	496	
14	0	0	0	0	507	496	
15	0	0	0	0	507	496	
0	0	0	0	0	507	496	
1	0	0	0	0	507	496	
2	0	0	0	0	507	496	
3	0	0	0	0	507	496	
4	0	0	0	0	508	496	
5	0	0	0	0	509	496	
6	0	0	0	0	510	496	
7	0	0	0	0	510	496	
8	0	0	0	0	511	496	
9	0	0	0	0	511	496	
10	0	0	0	0	511	496	
11	0	0	0	0	511	496	
12	0	0	0	0	511	496	
13	0	0	0	0	510	496	
14	0	0	0	0	509	496	
15	0	0	0	0	508	496	
0	0	0	0	0	508	496	
1	0	0	0	0	508	496	
2	0	0	0	0	508	496	
3	0	0	0	0	508	496	
4	0	0	0	0	508	496	
5	0	0	0	0	508	496	
6	0	0	0	0	509	496	
7	0	0	0	0	510	496	
8	0	0	0	0	510	496	
9	0	0	0	0	510	495	
10	0	0	0	0	510	496	
11	0	0	0	0	510	496	
12	0	0	0	0	509	496	
13	0	0	0	0	508	495	
14	0	0	0	0	508	496	
15	0	0	0	0	507	496	
0	0	0	0	0	506	496	
1	0	0	0	0	505	496	
2	0	0	0	0	505	496	
3	0	0	0	0	506	496	
4	0	0	0	0	506	496	
5	0	0	0	0	507	496	
6	0	0	0	0	508	496	
7	0	0	0	0	508	495	
8	0	0	0	0	508	496	
9	0	0	0	0	509	496	
10	0	0	0	0	510	496	
11	0	0	0	0	511	496	
12	0	0	0	0	512	496	
13	0	0	0	0	512	496	
14	0	0	0	0	512	496	
15	0	0	0	0	512	495	
0	0	0	0	0	511	496	
1	0	0	0	0	509	496	
2	0	0	0	0	509	496	
3	0	0	0	0	508	496	
4	0	0	0	0	507	496	
5	0	0	0	0	506	496	
6	0	0	0	0	506	495	
7	0	0	0	0	506	496	
8	0	0	0	0	507	496	
9	0	0	0	0	507	496	
10	0	0	0	0	507	496	
11	0	0	0	0	507	495	
12	0	0	0	0	507	495	
13	0	0	0	0	508	496	
14	0	0	0	0	508	495	
15	0	0	0	0	507	495	
0	0	0	0	0	507	495	
1	0	0	0	0	507	496	
2	0	0	0	0	506	496	
3	0	0	0	0	505	495	
4	0	0	0	0	505	495	
5	0	0	0	0	505	495	
6	0	0	0	0	506	495	
7	0	0	0	0	506	495	
8	0	0	0	0	508	495	
9	0	0	0	0	507	495	
10	0	0	0	0	508	495	
11	0	0	0	0	509	495	
12	0	0	0	0	509	495	
13	0	0	0	0	509	495	
14	0	0	0	0	509	495	
15	0	0	0	0	509	495	
0	0	0	0	0	509	496	
1	0	0	0	0	508	495	
2	0	0	0	0	508	495	
3	0	0	0	0	508	495	
4	0	0	0	0	508	495	
5	0	0	0	0	508	495	
6	0	0	0	0	508	495	
7	0	0	0	0	508	495	
8	0	0	0	0	509	495	
9	0	0	0	0	510	495	
10	0	0	0	0	512	495	
11	0	0	0	0	512	495	
12	0	0	0	0	512	495	
13	0	0	0	0	513	495	
14	0	0	0	0	513	495	
15	0	0	0	0	514	495	
0	0	0	0	0	514	495	
1	0	0	0	0	513	495	
2	0	0	0	0	512	495	
3	0	0	0	0	512	495	
4	0	0	0	0	512	495	
5	0	0	0	0	513	495	
6	0	0	0	0	512	495	
7	0	0	0	0	513	495	
8	0	0	0	0	514	495	
9	0	0	0	0	514	495	
10	0	0	0	0	514	495	
11	0	0	0	0	515	495	
12	0	0	0	0	515	495	
13	0	0	0	0	516	495	
14	0	0	0	0	518	495	
15	0	0	0	0	518	495	
0	0	0	0	0	518	495	
1	0	0	0	0	518	495	
2	0	0	0	0	517	495	
3	0	0	0	0	517	495	
4	0	0	0	0	516	495	
5	0	0	0	0	516	495	
6	0	0	0	0	517	495	
7	0	0	0	0	517	495	
8	0	0	0	0	517	495	
9	0	0	0	0	516	495	
10	0	0	0	0	517	495	
11	0	0	0	0	519	495	
12	0	0	0	0	519	495	
13	0	0	0	0	519	495	
14	0	0	0	0	519	495	
15	0	0	0	0	519	495	
0	0	0	0	0	519	495	
1	0	0	0	0	520	495	
2	0	0	0	0	520	495	
3	0	0	0	0	520	495	
4	0	0	0	0	519	495	
5	0	0	0	0	519	495	
6	0	0	0	0	519	495	
7	0	0	0	0	519	495	
8	0	0	0	0	520	495	
9	0	0	0	0	520	495	
10	0	0	0	0	520	495	
11	0	0	0	0	520	495	
12	0	0	0	0	520	495	
13	0	0	0	0	520	495	
14	0	0	0	0	520	495	
15	0	0	0	0	521	495	
0	0	0	0	0	519	495	
1	0	0	0	0	519	495	
2	0	0	0	0	519	495	
3	0	0	0	0	518	495	
4	0	0	0	0	518	495	
5	0	0	0	0	517	495	
6	0	0	0	0	516	495	
7	0	0	0	0	516	495	
8	0	0	0	0	516	495	
9	0	0	0	0	515	495	
10	0	0	0	0	516	495	
11	0	0	0	0	516	495	
12	0	0	0	0	515	495	
13	0	0	0	0	516	495	
14	0	0	0	0	516	495	
15	0	0	0	0	516	495	
0	0	0	0	0	516	495	
1	0	0	0	0	517	495	
2	0	0	0	0	516	495	
3	0	0	0	0	516	495	
4	0	0	0	0	516	495	
5	0	0	0	0	516	495	
6	0	0	0	0	514	495	
7	0	0	0	0	514	495	
8	0	0	0	0	514	495	
9	0	0	0	0	513	494	
10	0	0	0	0	513	495	
11	0	0	0	0	514	495	
12	0	0	0	0	514	495	
13	0	0	0	0	513	495	
14	0	0	0	0	513	495	
15	0	0	0	0	513	495	
0	0	0	0	0	513	495	
1	0	0	0	0	514	494	
2	0	0	0	0	514	494	
3	0	0	0	0	514	495	
4	0	0	0	0	514	495	
5	0	0	0	0	513	495	
6	0	0	0	0	513	495	
7	0	0	0	0	512	495	
8	0	0	0	0	512	495	
9	0	0	0	0	511	495	
10	0	0	0	0	511	494	
11	0	0	0	0	511	494	
12	0	0	0	0	511	495	
13	0	0	0	0	512	494	
14	0	0	0	0	512	494	
15	0	0	0	0	513	494	
0	0	0	0	0	513	494	
1	0	0	0	0	513	494	
2	0	0	0	0	512	494	
3	0	0	0	0	513	494	
4	0	0	0	0	513	494	
5	0	0	0	0	513	494	
6	0	0	0	0	513	494	
7	0	0	0	0	513	494	
8	0	0	0	0	513	494	
9	0	0	0	0	513	494	
10	0	0	0	0	514	494	
11	0	0	0	0	513	494	
12	0	0	0	0	512	494	
13	0	0	0	0	511	495	
14	0	0	0	0	509	494	
15	0	0	0	0	507	494	
0	0	0	0	0	504	494	
1	0	0	0	0	502	494	
2	0	0	0	0	501	494	
3	0	0	0	0	498	494	
4	0	0	0	0	496	494	
5	0	0	0	0	493	494	
6	0	0	0	0	490	494	
7	0	0	0	0	490	494	
8	0	0	0	0	487	494	
9	0	0	0	0	486	494	
10	0	0	0	0	482	494	
11	0	0	0	0	478	494	
12	0	0	0	0	475	495	
13	0	0	0	0	473	494	
14	0	0	0	0	472	494	
15	0	0	0	0	473	494	
0	0	0	0	0	474	494	
1	0	0	0	0	476	494	
2	0	0	0	0	477	494	
3	0	0	0	0	478	494	
4	0	0	0	0	478	494	
5	0	0	0	0	479	494	
6	0	0	0	0	481	494	
7	0	0	0	0	480	494	
8	0	0	0	0	481	494	
9	0	0	0	0	481	494	
10	0	0	0	0	480	494	
11	0	0	0	0	479	494	
12	0	0	0	0	479	494	
13	0	0	0	0	479	494	
14	0	0	0	0	481	494	
15	0	0	0	0	482	494	
0	0	0	0	0	485	494	
1	0	0	0	0	488	494	
2	0	0	0	0	491	494	
3	0	0	0	0	495	494	
4	0	0	0	0	496	494	
5	0	0	0	0	500	494	
6	0	0	0	0	503	494	
7	0	0	0	0	506	494	
8	0	0	0	0	508	494	
9	0	0	0	0	510	494	
10	0	0	0	0	511	494	
11	0	0	0	0	511	494	
12	0	0	0	0	512	494	
13	0	0	0	0	514	494	
14	0	0	0	0	516	494	
15	0	0	0	0	518	494	
0	0	0	0	0	520	494	
1	0	0	0	0	522	494	
2	0	0	0	0	524	494	
3	0	0	0	0	524	494	
4	0	0	0	0	523	494	
5	0	0	0	0	522	494	
6	0	0	0	0	521	494	
7	0	0	0	0	519	494	
8	0	0	0	0	519	494	
9	0	0	0	0	518	494	
10	0	0	0	0	516	494	
11	0	0	0	0	514	494	
12	0	0	0	0	512	494	
13	0	0	0	0	511	494	
14	0	0	0	0	509	494	
15	0	0	0	0	508	494	
0	0	0	0	0	508	494	
1	0	0	0	0	508	494	
2	0	0	0	0	508	494	
3	0	0	0	0	507	494	
4	0	0	0	0	507	494	
5	0	0	0	0	505	494	
6	0	0	0	0	504	494	
7	0	0	0	0	502	494	
8	0	0	0	0	501	494	
9	0	0	0	0	500	494	
10	0	0	0	0	500	494	
11	0	0	0	0	499	494	
12	0	0	0	0	497	494	
13	0	0	0	0	497	494	
14	0	0	0	0	497	494	
15	0	0	0	0	497	494	
0	0	0	0	0	498	494	
1	0	0	0	0	497	494	
2	0	0	0	0	498	494	
3	0	0	0	0	499	494	
4	0	0	0	0	499	494	
5	0	0	0	0	499	494	
6	0	0	0	0	499	494	
7	0	0	0	0	499	494	
8	0	0	0	0	499	494	
9	0	0	0	0	499	494	
10	0	0	0	0	498	494	
11	0	0	0	0	498	494	
12	0	0	0	0	497	494	
13	0	0	0	0	496	494	
14	0	0	0	0	496	494	
15	0	0	0	0	497	494	
0	0	0	0	0	497	494	
1	0	0	0	0	498	494	
2	0	0	0	0	498	494	
3	0	0	0	0	499	494	
4	0	0	0	0	499	494	
5	0	0	0	0	500	494	
6	0	0	0	0	500	494	
7	0	0	0	0	500	494	
8	0	0	0	0	500	494	
9	0	0	0	0	500	494	
10	0	0	0	0	499	494	
11	0	0	0	0	499	494	
12	0	0	0	0	499	494	
13	0	0	0	0	499	494	
14	0	0	0	0	499	494	
15	0	0	0	0	500	494	
0	0	0	0	0	500	494	
1	0	0	0	0	500	494	
2	0	0	0	0	500	494	
3	0	0	0	0	501	494	
4	0	0	0	0	502	493	
5	0	0	0	0	502	493	
6	0	0	0	0	502	494	
7	0	0	0	0	502	493	
8	0	0	0	0	502	494	
9	0	0	0	0	502	493	
10	0	0	0	0	502	494	
11	0	0	0	0	501	493	
12	0	0	0	0	500	494	
13	0	0	0	0	500	494	
14	0	0	0	0	499	493	
15	0	0	0	0	500	494	
0	0	0	0	0	500	494	
1	0	0	0	0	500	493	
2	0	0	0	0	500	493	
3	0	0	0	0	500	493	
4	0	0	0	0	500	494	
5	0	0	0	0	500	493	
6	0	0	0	0	502	493	
7	0	0	0	0	502	493	
8	0	0	0	0	503	494	
9	0	0	0	0	503	493	
10	0	0	0	0	503	493	
11	0	0	0	0	502	493	
12	0	0	0	0	502	494	
13	0	0	0	0	503	493	
14	0	0	0	0	504	493	
15	0	0	0	0	504	493	
0	0	0	0	0	504	493	
1	0	0	0	0	504	493	
2	0	0	0	0	504	493	
3	0	0	0	0	505	493	
4	0	0	0	0	506	493	
5	0	0	0	0	507	493	
6	0	0	0	0	507	493	
7	0	0	0	0	508	493	
8	0	0	0	0	508	493	
9	0	0	0	0	508	493	
10	0	0	0	0	507	493	
11	0	0	0	0	506	493	
12	0	0	0	0	505	493	
13	0	0	0	0	506	494	
14	0	0	0	0	506	493	
15	0	0	0	0	506	493	
0	0	0	0	0	506	494	
1	0	0	0	0	506	493	
2	0	0	0	0	506	493	
3	0	0	0	0	506	493	
4	0	0	0	0	506	493	
5	0	0	0	0	506	493	
6	0	0	0	0	507	493	
7	0	0	0	0	507	493	
8	0	0	0	0	508	493	
9	0	0	0	0	508	493	
10	0	0	0	0	508	493	
11	0	0	0	0	507	493	
12	0	0	0	0	508	493	
13	0	0	0	0	508	493	
14	0	0	0	0	507	493	
15	0	0	0	0	505	493	
0	0	0	0	0	504	493	
1	0	0	0	0	504	493	
2	0	0	0	0	504	493	
3	0	0	0	0	504	493	
4	0	0	0	0	505	493	
5	0	0	0	0	506	493	
6	0	0	0	0	507	493	
7	0	0	0	0	507	493	
8	0	0	0	0	506	493	
9	0	0	0	0	506	493	
10	0	0	0	0	506	493	
11	0	0	0	0	507	493	
12	0	0	0	0	507	493	
13	0	0	0	0	507	493	
14	0	0	0	0	508	493	
15	0	0	0	0	507	493	
0	0	0	0	0	507	493	
1	0	0	0	0	507	493	
2	0	0	0	0	508	493	
3	0	0	0	0	508	493	
4	0	0	0	0	508	493	
5	0	0	0	0	509	493	
6	0	0	0	0	509	493	
7	0	0	0	0	510	493	
8	0	0	0	0	510	493	
9	0	0	0	0	510	493	
10	0	0	0	0	511	493	
11	0	0	0	0	511	493	
12	0	0	0	0	511	493	
13	0	0	0	0	511	493	
14	0	0	0	0	510	493	
15	0	0	0	0	511	493	
0	0	0	0	0	510	493	
1	0	0	0	0	510	493	
2	0	0	0	0	511	493	
3	0	0	0	0	510	493	
4	0	0	0	0	511	493	
5	0	0	0	0	511	493	
6	0	0	0	0	512	493	
7	0	0	0	0	513	493	
8	0	0	0	0	514	493	
9	0	0	0	0	514	493	
10	0	0	0	0	514	493	
11	0	0	0	0	515	493	
12	0	0	0	0	515	493	
13	0	0	0	0	515	493	
14	0	0	0	0	515	493	
15	0	0	0	0	515	493	
0	0	0	0	0	514	493	
1	0	0	0	0	513	493	
2	0	0	0	0	513	493	
3	0	0	0	0	513	493	
4	0	0	0	0	513	493	
5	0	0	0	0	513	493	
6	0	0	0	0	515	493	
7	0	0	0	0	515	493	
8	0	0	0	0	516	493	
9	0	0	0	0	517	493	
10	0	0	0	0	517	493	
11	0	0	0	0	517	493	
12	0	0	0	0	517	493	
13	0	0	0	0	518	493	
14	0	0	0	0	519	493	
15	0	0	0	0	519	493	
0	0	0	0	0	519	493	
1	0	0	0	0	518	492	
2	0	0	0	0	519	493	
3	0	0	0	0	519	493	
4	0	0	0	0	519	493	
5	0	0	0	0	520	493	
6	0	0	0	0	520	492	
7	0	0	0	0	522	493	
8	0	0	0	0	523	492	
9	0	0	0	0	524	492	
10	0	0	0	0	525	492	
11	0	0	0	0	525	492	
12	0	0	0	0	525	493	
13	0	0	0	0	524	493	
14	0	0	0	0	525	493	
15	0	0	0	0	524	492	
0	0	0	0	0	525	492	
1	0	0	0	0	525	493	
2	0	0	0	0	525	493	
3	0	0	0	0	525	493	
4	0	0	0	0	525	493	
5	0	0	0	0	525	492	
6	0	0	0	0	526	493	
7	0	0	0	0	526	493	
8	0	0	0	0	526	492	
9	0	0	0	0	527	492	
10	0	0	0	0	529	492	
11	0	0	0	0	530	493	
12	0	0	0	0	531	492	
13	0	0	0	0	531	492	
14	0	0	0	0	531	492	
15	0	0	0	0	532	492	
0	0	0	0	0	532	492	
1	0	0	0	0	532	492	
2	0	0	0	0	533	492	
3	0	0	0	0	533	492	
4	0	0	0	0	533	492	
5	0	0	0	0	534	492	
6	0	0	0	0	534	492	
7	0	0	0	0	534	492	
8	0	0	0	0	536	493	
9	0	0	0	0	536	492	
10	0	0	0	0	537	492	
11	0	0	0	0	537	492	
12	0	0	0	0	538	492	
13	0	0	0	0	539	492	
14	0	0	0	0	539	492	
15	0	0	0	0	540	492	
0	0	0	0	0	540	492	
1	0	0	0	0	541	492	
2	0	0	0	0	542	493	
3	0	0	0	0	541	492	
4	0	0	0	0	542	492	
5	0	0	0	0	542	492	
6	0	0	0	0	541	492	
7	0	0	0	0	542	492	
8	0	0	0	0	542	492	
9	0	0	0	0	543	492	
10	0	0	0	0	543	492	
11	0	0	0	0	544	492	
12	0	0	0	0	545	492	
13	0	0	0	0	545	492	
14	0	0	0	0	547	492	
15	0	0	0	0	546	492	
0	0	0	0	0	547	492	
1	0	0	0	0	547	492	
2	0	0	0	0	545	492	
3	0	0	0	0	544	492	
4	0	0	0	0	544	492	
5	0	0	0	0	543	492	
6	0	0	0	0	544	492	
7	0	0	0	0	544	492	
8	0	0	0	0	544	492	
9	0	0	0	0	544	492	
10	0	0	0	0	545	492	
11	0	0	0	0	547	492	
12	0	0	0	0	547	492	
13	0	0	0	0	547	492	
14	0	0	0	0	547	492	
15	0	0	0	0	548	492	
0	0	0	0	0	548	492	
1	0	0	0	0	547	492	
2	0	0	0	0	547	492	
3	0	0	0	0	547	492	
4	0	0	0	0	547	492	
5	0	0	0	0	547	492	
6	0	0	0	0	546	492	
7	0	0	0	0	546	492	
8	0	0	0	0	546	492	
9	0	0	0	0	546	492	
10	0	0	0	0	547	492	
11	0	0	0	0	546	492	
12	0	0	0	0	546	492	
13	0	0	0	0	545	492	
14	0	0	0	0	545	492	
15	0	0	0	0	544	492	
0	0	0	0	0	543	492	
1	0	0	0	0	543	492	
2	0	0	0	0	543	492	
3	0	0	0	0	542	492	
4	0	0	0	0	541	492	
5	0	0	0	0	539	492	
6	0	0	0	0	538	492	
7	0	0	0	0	537	492	
8	0	0	0	0	536	492	
9	0	0	0	0	536	492	
10	0	0	0	0	535	492	
11	0	0	0	0	536	492	
12	0	0	0	0	537	492	
13	0	0	0	0	537	492	
14	0	0	0	0	536	492	
15	0	0	0	0	536	492	
0	0	0	0	0	536	492	
1	0	0	0	0	536	492	
2	0	0	0	0	536	492	
3	0	0	0	0	535	492	
4	0	0	0	0	532	492	
5	0	0	0	0	532	492	
6	0	0	0	0	531	492	
7	0	0	0	0	531	492	
8	0	0	0	0	531	492	
9	0	0	0	0	530	492	
10	0	0	0	0	531	492	
11	0	0	0	0	531	492	
12	0	0	0	0	531	492	
13	0	0	0	0	531	492	
14	0	0	0	0	531	492	
15	0	0	0	0	531	492	
0	0	0	0	0	531	492	
1	0	0	0	0	530	492	
2	0	0	0	0	530	492	
3	0	0	0	0	531	492	
4	0	0	0	0	530	492	
5	0	0	0	0	529	492	
6	0	0	0	0	528	492	
7	0	0	0	0	528	492	
8	0	0	0	0	528	492	
9	0	0	0	0	528	492	
10	0	0	0	0	528	492	
11	0	0	0	0	527	492	
12	0	0	0	0	527	492	
13	0	0	0	0	526	492	
14	0	0	0	0	526	492	
15	0	0	0	0	525	492	
0	0	0	0	0	526	492	
1	0	0	0	0	526	492	
2	0	0	0	0	526	492	
3	0	0	0	0	525	492	
4	0	0	0	0	524	492	
5	0	0	0	0	524	492	
6	0	0	0	0	523	492	
7	0	0	0	0	521	492	
8	0	0	0	0	521	492	
9	0	0	0	0	520	492	
10	0	0	0	0	519	492	
11	0	0	0	0	519	492	
12	0	0	0	0	519	492	
13	0	0	0	0	520	492	
14	0	0	0	0	519	492	
15	0	0	0	0	519	492	
0	0	0	0	0	520	492	
1	0	0	0	0	521	492	
2	0	0	0	0	521	492	
3	0	0	0	0	521	492	
4	0	0	0	0	520	492	
5	0	0	0	0	519	492	
6	0	0	0	0	518	492	
7	0	0	0	0	517	492	
8	0	0	0	0	516	492	
9	0	0	0	0	516	492	
10	0	0	0	0	517	492	
11	0	0	0	0	517	492	
12	0	0	0	0	518	492	
13	0	0	0	0	517	492	
14	0	0	0	0	518	492	
15	0	0	0	0	518	492	
0	0	0	0	0	518	491	
1	0	0	0	0	519	492	
2	0	0	0	0	519	492	
3	0	0	0	0	519	492	
4	0	0	0	0	518	492	
5	0	0	0	0	517	492	
6	0	0	0	0	517	492	
7	0	0	0	0	517	492	
8	0	0	0	0	517	492	
9	0	0	0	0	517	492	
10	0	0	0	0	516	492	
11	0	0	0	0	516	492	
12	0	0	0	0	515	492	
13	0	0	0	0	514	492	
14	0	0	0	0	515	492	
15	0	0	0	0	515	492	
0	0	0	0	0	516	492	
1	0	0	0	0	516	492	
2	0	0	0	0	516	492	
3	0	0	0	0	516	491	
4	0	0	0	0	516	492	
5	0	0	0	0	515	492	
6	0	0	0	0	515	492	
7	0	0	0	0	515	492	
8	0	0	0	0	515	492	
9	0	0	0	0	514	492	
10	0	0	0	0	515	492	
11	0	0	0	0	515	492	
12	0	0	0	0	515	492	
13	0	0	0	0	514	492	
14	0	0	0	0	514	492	
15	0	0	0	0	514	492	
0	0	0	0	0	515	491	
1	0	0	0	0	515	492	
2	0	0	0	0	516	492	
3	0	0	0	0	517	491	
4	0	0	0	0	517	492	
5	0	0	0	0	516	491	
6	0	0	0	0	515	492	
7	0	0	0	0	515	491	
8	0	0	0	0	515	492	
9	0	0	0	0	513	491	
10	0	0	0	0	513	492	
11	0	0	0	0	512	492	
12	0	0	0	0	512	492	
13	0	0	0	0	511	491	
14	0	0	0	0	510	492	
15	0	0	0	0	510	491	
0	0	0	0	0	510	491	
1	0	0	0	0	510	492	
2	0	0	0	0	510	491	
3	0	0	0	0	511	492	
4	0	0	0	0	512	491	
5	0	0	0	0	512	491	
6	0	0	0	0	513	491	
7	0	0	0	0	513	491	
8	0	0	0	0	513	492	
9	0	0	0	0	513	491	
10	0	0	0	0	513	491	
11	0	0	0	0	512	491	
12	0	0	0	0	512	491	
13	0	0	0	0	512	491	
14	0	0	0	0	513	491	
15	0	0	0	0	513	491	
0	0	0	0	0	513	491	
1	0	0	0	0	513	491	
2	0	0	0	0	513	491	
3	0	0	0	0	513	491	
4	0	0	0	0	513	491	
5	0	0	0	0	514	491	
6	0	0	0	0	513	491	
7	0	0	0	0	512	492	
8	0	0	0	0	511	491	
9	0	0	0	0	511	491	
10	0	0	0	0	511	492	
11	0	0	0	0	511	491	
12	0	0	0	0	510	492	
13	0	0	0	0	511	491	
14	0	0	0	0	511	491	
15	0	0	0	0	512	492	
0	0	0	0	0	512	491	
1	0	0	0	0	513	491	
2	0	0	0	0	512	491	
3	0	0	0	0	513	491	
4	0	0	0	0	513	491	
5	0	0	0	0	513	491	
6	0	0	0	0	514	491	
7	0	0	0	0	514	491	
8	0	0	0	0	515	491	
9	0	0	0	0	514	491	
10	0	0	0	0	514	491	
11	0	0	0	0	514	492	
12	0	0	0	0	513	491	
13	0	0	0	0	512	491	
14	0	0	0	0	512	491	
15	0	0	0	0	511	491	
0	0	0	0	0	511	491	
1	0	0	0	0	511	491	
2	0	0	0	0	511	491	
3	0	0	0	0	512	491	
4	0	0	0	0	512	491	
5	0	0	0	0	513	491	
6	0	0	0	0	513	491	
7	0	0	0	0	512	491	
8	0	0	0	0	513	491	
9	0	0	0	0	513	491	
10	0	0	0	0	513	491	
11	0	0	0	0	513	491	
12	0	0	0	0	512	491	
13	0	0	0	0	513	491	
14	0	0	0	0	513	491	
15	0	0	0	0	514	491	
0	0	0	0	0	515	491	
1	0	0	0	0	515	491	
2	0	0	0	0	515	491	
3	0	0	0	0	516	491	
4	0	0	0	0	517	491	
5	0	0	0	0	517	491	
6	0	0	0	0	518	491	
7	0	0	0	0	518	491	
8	0	0	0	0	518	491	
9	0	0	0	0	518	491	
10	0	0	0	0	517	491	
11	0	0	0	0	517	491	
12	0	0	0	0	518	491	
13	0	0	0	0	516	491	
14	0	0	0	0	517	491	
15	0	0	0	0	516	491	
0	0	0	0	0	517	491	
1	0	0	0	0	517	491	
2	0	0	0	0	517	491	
3	0	0	0	0	517	491	
4	0	0	0	0	517	491	
5	0	0	0	0	518	491	
6	0	0	0	0	518	491	
7	0	0	0	0	518	491	
8	0	0	0	0	519	491	
9	0	0	0	0	519	491	
10	0	0	0	0	519	491	
11	0	0	0	0	519	491	
12	0	0	0	0	519	491	
13	0	0	0	0	518	491	
14	0	0	0	0	518	491	
15	0	0	0	0	517	491	
0	0	0	0	0	516	491	
1	0	0	0	0	517	491	
2	0	0	0	0	518	491	
3	0	0	0	0	517	491	
4	0	0	0	0	517	491	
5	0	0	0	0	518	491	
6	0	0	0	0	518	491	
7	0	0	0	0	519	491	
8	0	0	0	0	519	491	
9	0	0	0	0	519	491	
10	0	0	0	0	519	491	
11	0	0	0	0	519	491	
12	0	0	0	0	519	491	
13	0	0	0	0	519	491	
14	0	0	0	0	519	491	
15	0	0	0	0	518	491	
0	0	0	0	0	517	491	
1	0	0	0	0	517	491	
2	0	0	0	0	517	491	
3	0	0	0	0	518	491	
4	0	0	0	0	519	491	
5	0	0	0	0	519	491	
6	0	0	0	0	519	491	
7	0	0	0	0	519	491	
8	0	0	0	0	519	491	
9	0	0	0	0	519	491	
10	0	0	0	0	519	491	
11	0	0	0	0	519	491	
12	0	0	0	0	519	491	
13	0	0	0	0	519	491	
14	0	0	0	0	519	491	
15	0	0	0	0	518	491	
0	0	0	0	0	518	491	
1	0	0	0	0	517	491	
2	0	0	0	0	517	491	
3	0	0	0	0	516	491	
4	0	0	0	0	515	491	
5	0	0	0	0	516	491	
6	0	0	0	0	517	491	
7	0	0	0	0	518	491	
8	0	0	0	0	518	491	
9	0	0	0	0	518	491	
10	0	0	0	0	519	491	
11	0	0	0	0	518	491	
12	0	0	0	0	518	491	
13	0	0	0	0	518	491	
14	0	0	0	0	518	491	
15	0	0	0	0	518	491	
0	0	0	0	0	517	491	
1	0	0	0	0	517	491	
2	0	0	0	0	517	491	
3	0	0	0	0	515	491	
4	0	0	0	0	516	491	
5	0	0	0	0	516	491	
6	0	0	0	0	516	491	
7	0	0	0	0	518	491	
8	0	0	0	0	518	491	
9	0	0	0	0	518	491	
10	0	0	0	0	518	491	
11	0	0	0	0	518	491	
12	0	0	0	0	518	490	
13	0	0	0	0	518	490	
14	0	0	0	0	517	491	
15	0	0	0	0	516	491	
0	0	0	0	0	515	491	
1	0	0	0	0	514	491	
2	0	0	0	0	514	491	
3	0	0	0	0	514	491	
4	0	0	0	0	514	491	
5	0	0	0	0	513	491	
6	0	0	0	0	514	491	
7	0	0	0	0	515	491	
8	0	0	0	0	516	491	
9	0	0	0	0	516	490	
10	0	0	0	0	516	490	
11	0	0	0	0	517	490	
12	0	0	0	0	517	491	
13	0	0	0	0	517	491	
14	0	0	0	0	516	491	
15	0	0	0	0	515	491	
0	0	0	0	0	514	491	
1	0	0	0	0	513	491	
2	0	0	0	0	512	491	
3	0	0	0	0	512	491	
4	0	0	0	0	512	490	
5	0	0	0	0	511	490	
6	0	0	0	0	512	490	
7	0	0	0	0	512	490	
8	0	0	0	0	512	490	
9	0	0	0	0	513	490	
10	0	0	0	0	513	491	
11	0	0	0	0	513	490	
12	0	0	0	0	513	490	
13	0	0	0	0	512	490	
14	0	0	0	0	512	490	
15	0	0	0	0	512	490	
0	0	0	0	0	511	490	
1	0	0	0	0	511	491	
2	0	0	0	0	510	490	
3	0	0	0	0	509	491	
4	0	0	0	0	508	490	
5	0	0	0	0	508	490	
6	0	0	0	0	509	490	
7	0	0	0	0	511	490	
8	0	0	0	0	510	490	
9	0	0	0	0	510	490	
10	0	0	0	0	510	490	
11	0	0	0	0	510	490	
12	0	0	0	0	509	490	
13	0	0	0	0	510	490	
14	0	0	0	0	510	491	
15	0	0	0	0	510	490	
0	0	0	0	0	510	491	
1	0	0	0	0	509	490	
2	0	0	0	0	510	490	
3	0	0	0	0	509	490	
4	0	0	0	0	509	490	
5	0	0	0	0	508	490	
6	0	0	0	0	508	490	
7	0	0	0	0	508	490	
8	0	0	0	0	509	490	
9	0	0	0	0	510	490	
10	0	0	0	0	511	490	
11	0	0	0	0	511	490	
12	0	0	0	0	511	490	
13	0	0	0	0	511	490	
14	0	0	0	0	510	490	
15	0	0	0	0	510	490	
0	0	0	0	0	510	490	
1	0	0	0	0	510	490	
2	0	0	0	0	509	490	
3	0	0	0	0	508	490	
4	0	0	0	0	508	490	
5	0	0	0	0	507	490	
6	0	0	0	0	507	490	
7	0	0	0	0	507	490	
8	0	0	0	0	506	490	
9	0	0	0	0	507	490	
10	0	0	0	0	508	490	
11	0	0	0	0	508	490	
12	0	0	0	0	508	490	
13	0	0	0	0	507	490	
14	0	0	0	0	507	490	
15	0	0	0	0	505	490	
0	0	0	0	0	504	490	
1	0	0	0	0	504	490	
2	0	0	0	0	503	490	
3	0	0	0	0	504	490	
4	0	0	0	0	504	490	
5	0	0	0	0	504	490	
6	0	0	0	0	505	490	
7	0	0	0	0	505	490	
8	0	0	0	0	505	490	
9	0	0	0	0	506	490	
10	0	0	0	0	506	490	
11	0	0	0	0	507	490	
12	0	0	0	0	507	490	
13	0	0	0	0	508	490	
14	0	0	0	0	508	490	
15	0	0	0	0	508	490	
0	0	0	0	0	508	490	
1	0	0	0	0	506	490	
2	0	0	0	0	506	490	
3	0	0	0	0	505	490	
4	0	0	0	0	503	490	
5	0	0	0	0	502	490	
6	0	0	0	0	501	490	
7	0	0	0	0	500	490	
8	0	0	0	0	499	490	
9	0	0	0	0	498	490	
10	0	0	0	0	498	490	
11	0	0	0	0	498	490	
12	0	0	0	0	499	490	
13	0	0	0	0	498	490	
14	0	0	0	0	497	490	
15	0	0	0	0	497	490	
0	0	0	0	0	497	490	
1	0	0	0	0	498	490	
2	0	0	0	0	498	490	
3	0	0	0	0	497	490	
4	0	0	0	0	496	490	
5	0	0	0	0	496	490	
6	0	0	0	0	496	490	
7	0	0	0	0	496	490	
8	0	0	0	0	497	490	
9	0	0	0	0	497	490	
10	0	0	0	0	497	490	
11	0	0	0	0	498	490	
12	0	0	0	0	499	490	
13	0	0	0	0	500	490	
14	0	0	0	0	500	490	
15	0	0	0	0	499	489	
0	0	0	0	0	500	490	
1	0	0	0	0	499	490	
2	0	0	0	0	499	490	
3	0	0	0	0	499	490	
4	0	0	0	0	498	490	
5	0	0	0	0	499	490	
6	0	0	0	0	498	490	
7	0	0	0	0	497	490	
8	0	0	0	0	497	490	
9	0	0	0	0	498	490	
10	0	0	0	0	499	490	
11	0	0	0	0	499	490	
12	0	0	0	0	500	489	
13	0	0	0	0	500	490	
14	0	0	0	0	501	489	
15	0	0	0	0	501	490	
0	0	0	0	0	500	490	
1	0	0	0	0	500	490	
2	0	0	0	0	500	490	
3	0	0	0	0	500	490	
4	0	0	0	0	500	490	
5	0	0	0	0	499	489	
6	0	0	0	0	499	490	
7	0	0	0	0	499	490	
8	0	0	0	0	499	489	
9	0	0	0	0	499	490	
10	0	0	0	0	499	490	
11	0	0	0	0	499	489	
12	0	0	0	0	500	490	
13	0	0	0	0	502	489	
14	0	0	0	0	503	490	
15	0	0	0	0	504	490	
0	0	0	0	0	503	489	
1	0	0	0	0	504	489	
2	0	0	0	0	504	489	
3	0	0	0	0	504	490	
4	0	0	0	0	504	489	
5	0	0	0	0	504	490	
6	0	0	0	0	504	490	
7	0	0	0	0	504	489	
8	0	0	0	0	504	489	
9	0	0	0	0	506	490	
10	0	0	0	0	507	489	
11	0	0	0	0	507	490	
12	0	0	0	0	507	489	
13	0	0	0	0	508	490	
14	0	0	0	0	509	489	
15	0	0	0	0	510	489	
0	0	0	0	0	510	489	
1	0	0	0	0	510	489	
2	0	0	0	0	510	489	
3	0	0	0	0	510	489	
4	0	0	0	0	510	489	
5	0	0	0	0	511	490	
6	0	0	0	0	510	489	
7	0	0	0	0	511	489	
8	0	0	0	0	510	489	
9	0	0	0	0	509	489	
10	0	0	0	0	509	489	
11	0	0	0	0	510	489	
12	0	0	0	0	510	490	
13	0	0	0	0	510	489	
14	0	0	0	0	511	489	
15	0	0	0	0	511	489	
0	0	0	0	0	511	489	
1	0	0	0	0	512	490	
2	0	0	0	0	511	489	
3	0	0	0	0	511	489	
4	0	0	0	0	511	489	
5	0	0	0	0	511	489	
6	0	0	0	0	511	489	
7	0	0	0	0	511	489	
8	0	0	0	0	510	489	
9	0	0	0	0	509	489	
10	0	0	0	0	508	489	
11	0	0	0	0	509	489	
12	0	0	0	0	509	489	
13	0	0	0	0	510	489	
14	0	0	0	0	510	489	
15	0	0	0	0	510	489	
0	0	0	0	0	511	489	
1	0	0	0	0	512	489	
2	0	0	0	0	513	489	
3	0	0	0	0	513	489	
4	0	0	0	0	514	489	
5	0	0	0	0	514	489	
6	0	0	0	0	513	489	
7	0	0	0	0	512	489	
8	0	0	0	0	511	489	
9	0	0	0	0	510	489	
10	0	0	0	0	510	489	
11	0	0	0	0	510	489	
12	0	0	0	0	510	489	
13	0	0	0	0	512	489	
14	0	0	0	0	512	489	
15	0	0	0	0	512	489	
0	0	0	0	0	513	489	
1	0	0	0	0	513	489	
2	0	0	0	0	513	489	
3	0	0	0	0	513	489	
4	0	0	0	0	513	489	
5	0	0	0	0	513	489	
6	0	0	0	0	513	489	
7	0	0	0	0	512	489	
8	0	0	0	0	512	489	
9	0	0	0	0	511	489	
10	0	0	0	0	511	489	
11	0	0	0	0	511	489	
12	0	0	0	0	511	489	
13	0	0	0	0	510	489	
14	0	0	0	0	511	489	
15	0	0	0	0	512	489	
0	0	0	0	0	513	489	
1	0	0	0	0	514	489	
2	0	0	0	0	513	489	
3	0	0	0	0	513	489	
4	0	0	0	0	513	489	
5	0	0	0	0	513	489	
6	0	0	0	0	514	489	
7	0	0	0	0	514	489	
8	0	0	0	0	514	489	
9	0	0	0	0	515	489	
10	0	0	0	0	515	489	
11	0	0	0	0	515	489	
12	0	0	0	0	515	489	
13	0	0	0	0	514	489	
14	0	0	0	0	512	489	
15	0	0	0	0	510	489	
0	0	0	0	0	508	489	
1	0	0	0	0	506	489	
2	0	0	0	0	505	489	
3	0	0	0	0	503	489	
4	0	0	0	0	499	489	
5	0	0	0	0	497	489	
6	0	0	0	0	494	489	
7	0	0	0	0	492	489	
8	0	0	0	0	489	489	
9	0	0	0	0	487	489	
10	0	0	0	0	485	489	
11	0	0	0	0	482	489	
12	0	0	0	0	480	489	
13	0	0	0	0	478	489	
14	0	0	0	0	476	489	
15	0	0	0	0	476	489	
0	0	0	0	0	478	489	
1	0	0	0	0	480	489	
2	0	0	0	0	481	489	
3	0	0	0	0	484	489	
4	0	0	0	0	486	489	
5	0	0	0	0	487	489	
6	0	0	0	0	487	489	
7	0	0	0	0	489	489	
8	0	0	0	0	490	489	
9	0	0	0	0	490	489	
10	0	0	0	0	491	489	
11	0	0	0	0	491	489	
12	0	0	0	0	489	489	
13	0	0	0	0	488	489	
14	0	0	0	0	487	489	
15	0	0	0	0	487	489	
0	0	0	0	0	489	489	
1	0	0	0	0	492	489	
2	0	0	0	0	495	489	
3	0	0	0	0	499	489	
4	0	0	0	0	502	489	
5	0	0	0	0	504	489	
6	0	0	0	0	507	489	
7	0	0	0	0	510	489	
8	0	0	0	0	512	489	
9	0	0	0	0	514	489	
10	0	0	0	0	516	489	
11	0	0	0	0	517	489	
12	0	0	0	0	518	489	
13	0	0	0	0	519	489	
14	0	0	0	0	520	489	
15	0	0	0	0	522	489	
0	0	0	0	0	523	489	
1	0	0	0	0	524	489	
2	0	0	0	0	525	489	
3	0	0	0	0	525	489	
4	0	0	0	0	526	489	
5	0	0	0	0	527	489	
6	0	0	0	0	527	489	
7	0	0	0	0	527	489	
8	0	0	0	0	527	489	
9	0	0	0	0	527	489	
10	0	0	0	0	525	489	
11	0	0	0	0	524	489	
12	0	0	0	0	523	489	
13	0	0	0	0	521	489	
14	0	0	0	0	521	489	
15	0	0	0	0	520	489	
0	0	0	0	0	519	489	
1	0	0	0	0	518	489	
2	0	0	0	0	516	489	
3	0	0	0	0	516	489	
4	0	0	0	0	515	489	
5	0	0	0	0	516	489	
6	0	0	0	0	516	489	
7	0	0	0	0	515	488	
8	0	0	0	0	515	489	
9	0	0	0	0	514	489	
10	0	0	0	0	513	489	
11	0	0	0	0	511	489	
12	0	0	0	0	510	489	
13	0	0	0	0	510	489	
14	0	0	0	0	509	489	
15	0	0	0	0	508	489	
0	0	0	0	0	508	489	
1	0	0	0	0	508	488	
2	0	0	0	0	508	489	
3	0	0	0	0	509	489	
4	0	0	0	0	509	489	
5	0	0	0	0	509	489	
6	0	0	0	0	509	488	
7	0	0	0	0	510	489	
8	0	0	0	0	510	489	
9	0	0	0	0	510	489	
10	0	0	0	0	510	489	
11	0	0	0	0	510	489	
12	0	0	0	0	510	489	
13	0	0	0	0	510	488	
14	0	0	0	0	509	489	
15	0	0	0	0	508	489	
0	0	0	0	0	508	488	
1	0	0	0	0	509	489	
2	0	0	0	0	510	489	
3	0	0	0	0	511	489	
4	0	0	0	0	511	489	
5	0	0	0	0	511	488	
6	0	0	0	0	512	489	
7	0	0	0	0	513	488	
8	0	0	0	0	513	489	
9	0	0	0	0	513	488	
10	0	0	0	0	512	488	
11	0	0	0	0	512	489	
12	0	0	0	0	511	489	
13	0	0	0	0	511	488	
14	0	0	0	0	510	489	
15	0	0	0	0	510	488	
0	0	0	0	0	510	489	
1	0	0	0	0	510	489	
2	0	0	0	0	509	489	
3	0	0	0	0	509	489	
4	0	0	0	0	509	488	
5	0	0	0	0	509	489	
6	0	0	0	0	510	489	
7	0	0	0	0	509	488	
8	0	0	0	0	509	488	
9	0	0	0	0	509	488	
10	0	0	0	0	510	489	
11	0	0	0	0	509	488	
12	0	0	0	0	510	488	
13	0	0	0	0	510	488	
14	0	0	0	0	509	488	
15	0	0	0	0	508	489	
0	0	0	0	0	506	488	
1	0	0	0	0	505	489	
2	0	0	0	0	505	489	
3	0	0	0	0	505	488	
4	0	0	0	0	505	489	
5	0	0	0	0	505	488	
6	0	0	0	0	507	488	
7	0	0	0	0	508	488	
8	0	0	0	0	508	488	
9	0	0	0	0	509	488	
10	0	0	0	0	510	488	
11	0	0	0	0	511	488	
12	0	0	0	0	511	488	
13	0	0	0	0	510	488	
14	0	0	0	0	511	489	
15	0	0	0	0	510	488	
0	0	0	0	0	509	488	
1	0	0	0	0	508	488	
2	0	0	0	0	508	488	
3	0	0	0	0	508	488	
4	0	0	0	0	509	488	
5	0	0	0	0	510	488	
6	0	0	0	0	511	488	
7	0	0	0	0	511	488	
8	0	0	0	0	511	488	
9	0	0	0	0	511	488	
10	0	0	0	0	511	488	
11	0	0	0	0	512	488	
12	0	0	0	0	512	488	
13	0	0	0	0	511	488	
14	0	0	0	0	510	488	
15	0	0	0	0	510	488	
0	0	0	0	0	510	488	
1	0	0	0	0	509	488	
2	0	0	0	0	508	488	
3	0	0	0	0	507	488	
4	0	0	0	0	507	488	
5	0	0	0	0	506	488	
6	0	0	0	0	506	488	
7	0	0	0	0	506	488	
8	0	0	0	0	506	488	
9	0	0	0	0	506	488	
10	0	0	0	0	506	488	
11	0	0	0	0	506	488	
12	0	0	0	0	506	488	
13	0	0	0	0	506	488	
14	0	0	0	0	507	488	
15	0	0	0	0	506	488	
0	0	0	0	0	505	488	
1	0	0	0	0	503	488	
2	0	0	0	0	502	488	
3	0	0	0	0	500	488	
4	0	0	0	0	500	488	
5	0	0	0	0	500	488	
6	0	0	0	0	499	488	
7	0	0	0	0	499	488	
8	0	0	0	0	499	488	
9	0	0	0	0	499	488	
10	0	0	0	0	498	488	
11	0	0	0	0	498	488	
12	0	0	0	0	498	488	
13	0	0	0	0	498	488	
14	0	0	0	0	497	488	
15	0	0	0	0	496	488	
0	0	0	0	0	496	488	
1	0	0	0	0	495	488	
2	0	0	0	0	495	488	
3	0	0	0	0	494	488	
4	0	0	0	0	494	488	
5	0	0	0	0	494	488	
6	0	0	0	0	494	488	
7	0	0	0	0	494	488	
8	0	0	0	0	495	488	
9	0	0	0	0	495	488	
10	0	0	0	0	497	488	
11	0	0	0	0	497	488	
12	0	0	0	0	497	488	
13	0	0	0	0	497	488	
14	0	0	0	0	497	488	
15	0	0	0	0	496	488	
0	0	0	0	0	495	488	
1	0	0	0	0	495	488	
2	0	0	0	0	495	488	
3	0	0	0	0	495	488	
4	0	0	0	0	495	488	
5	0	0	0	0	495	488	
6	0	0	0	0	495	488	
7	0	0	0	0	495	488	
8	0	0	0	0	496	488	
9	0	0	0	0	496	488	
10	0	0	0	0	496	488	
11	0	0	0	0	496	488	
12	0	0	0	0	496	488	
13	0	0	0	0	496	488	
14	0	0	0	0	496	488	
15	0	0	0	0	496	488	
0	0	0	0	0	496	488	
1	0	0	0	0	495	488	
2	0	0	0	0	494	488	
3	0	0	0	0	494	488	
4	0	0	0	0	493	488	
5	0	0	0	0	493	488	
6	0	0	0	0	493	488	
7	0	0	0	0	493	488	
8	0	0	0	0	492	488	
9	0	0	0	0	493	488	
10	0	0	0	0	494	488	
11	0	0	0	0	494	488	
12	0	0	0	0	494	488	
13	0	0	0	0	494	488	
14	0	0	0	0	494	488	
15	0	0	0	0	494	488	
0	0	0	0	0	494	488	
1	0	0	0	0	494	488	
2	0	0	0	0	494	488	
3	0	0	0	0	494	488	
4	0	0	0	0	493	488	
5	0	0	0	0	493	488	
6	0	0	0	0	493	488	
7	0	0	0	0	494	488	
8	0	0	0	0	494	488	
9	0	0	0	0	494	488	
10	0	0	0	0	496	488	
11	0	0	0	0	497	488	
12	0	0	0	0	498	488	
13	0	0	0	0	498	488	
14	0	0	0	0	497	488	
15	0	0	0	0	497	488	
0	0	0	0	0	498	488	
1	0	0	0	0	499	488	
2	0	0	0	0	499	488	
3	0	0	0	0	498	488	
4	0	0	0	0	499	488	
5	0	0	0	0	499	488	
6	0	0	0	0	499	488	
7	0	0	0	0	500	488	
8	0	0	0	0	501	488	
9	0	0	0	0	502	488	
10	0	0	0	0	503	488	
11	0	0	0	0	504	488	
12	0	0	0	0	505	488	
13	0	0	0	0	506	488	
14	0	0	0	0	507	488	
15	0	0	0	0	507	488	
0	0	0	0	0	507	488	
1	0	0	0	0	508	488	
2	0	0	0	0	508	488	
3	0	0	0	0	509	488	
4	0	0	0	0	509	488	
5	0	0	0	0	510	488	
6	0	0	0	0	510	488	
7	0	0	0	0	511	488	
8	0	0	0	0	511	488	
9	0	0	0	0	511	488	
10	0	0	0	0	512	488	
11	0	0	0	0	513	488	
12	0	0	0	0	514	487	
13	0	0	0	0	515	488	
14	0	0	0	0	516	488	
15	0	0	0	0	517	488	
0	0	0	0	0	517	488	
1	0	0	0	0	517	488	
2	0	0	0	0	517	488	
3	0	0	0	0	517	487	
4	0	0	0	0	518	488	
5	0	0	0	0	518	488	
6	0	0	0	0	518	488	
7	0	0	0	0	519	488	
8	0	0	0	0	519	488	
9	0	0	0	0	519	488	
10	0	0	0	0	519	487	
11	0	0	0	0	520	488	
12	0	0	0	0	521	487	
13	0	0	0	0	521	487	
14	0	0	0	0	523	488	
15	0	0	0	0	523	487	
0	0	0	0	0	523	487	
1	0	0	0	0	524	488	
2	0	0	0	0	525	487	
3	0	0	0	0	525	488	
4	0	0	0	0	525	487	
5	0	0	0	0	525	488	
6	0	0	0	0	524	488	
7	0	0	0	0	524	487	
8	0	0	0	0	524	488	
9	0	0	0	0	524	488	
10	0	0	0	0	524	487	
11	0	0	0	0	524	488	
12	0	0	0	0	525	487	
13	0	0	0	0	525	487	
14	0	0	0	0	526	487	
15	0	0	0	0	527	487	
0	0	0	0	0	527	488	
1	0	0	0	0	527	487	
2	0	0	0	0	528	487	
3	0	0	0	0	528	488	
4	0	0	0	0	527	487	
5	0	0	0	0	527	487	
6	0	0	0	0	526	487	
7	0	0	0	0	526	487	
8	0	0	0	0	525	487	
9	0	0	0	0	524	487	
10	0	0	0	0	524	487	
11	0	0	0	0	524	487	
12	0	0	0	0	523	488	
13	0	0	0	0	523	487	
14	0	0	0	0	523	487	
15	0	0	0	0	524	487	
0	0	0	0	0	524	487	
1	0	0	0	0	525	488	
2	0	0	0	0	525	487	
3	0	0	0	0	524	487	
4	0	0	0	0	524	487	
5	0	0	0	0	523	487	
6	0	0	0	0	522	487	
7	0	0	0	0	522	487	
8	0	0	0	0	522	487	
9	0	0	0	0	521	487	
10	0	0	0	0	521	487	
11	0	0	0	0	520	487	
12	0	0	0	0	520	487	
13	0	0	0	0	520	487	
14	0	0	0	0	520	487	
15	0	0	0	0	520	487	
0	0	0	0	0	521	487	
1	0	0	0	0	521	487	
2	0	0	0	0	521	487	
3	0	0	0	0	521	487	
4	0	0	0	0	521	487	
5	0	0	0	0	521	487	
6	0	0	0	0	519	487	
7	0	0	0	0	519	487	
8	0	0	0	0	517	487	
9	0	0	0	0	516	487	
10	0	0	0	0	515	487	
11	0	0	0	0	515	487	
12	0	0	0	0	515	487	
13	0	0	0	0	515	487	
14	0	0	0	0	516	487	
15	0	0	0	0	518	487	
0	0	0	0	0	519	487	
1	0	0	0	0	518	487	
2	0	0	0	0	518	487	
3	0	0	0	0	518	487	
4	0	0	0	0	519	487	
5	0	0	0	0	519	487	
6	0	0	0	0	519	487	
7	0	0	0	0	518	487	
8	0	0	0	0	517	487	
9	0	0	0	0	517	487	
10	0	0	0	0	517	487	
11	0	0	0	0	516	487	
12	0	0	0	0	515	487	
13	0	0	0	0	515	487	
14	0	0	0	0	514	487	
15	0	0	0	0	514	487	
0	0	0	0	0	514	487	
1	0	0	0	0	515	487	
2	0	0	0	0	515	487	
3	0	0	0	0	514	487	
4	0	0	0	0	514	487	
5	0	0	0	0	515	487	
6	0	0	0	0	514	487	
7	0	0	0	0	513	487	
8	0	0	0	0	513	487	
9	0	0	0	0	513	487	
10	0	0	0	0	513	487	
11	0	0	0	0	512	487	
12	0	0	0	0	511	487	
13	0	0	0	0	512	487	
14	0	0	0	0	512	487	
15	0	0	0	0	512	487	
0	0	0	0	0	512	487	
1	0	0	0	0	513	487	
2	0	0	0	0	513	487	
3	0	0	0	0	514	487	
4	0	0	0	0	514	487	
5	0	0	0	0	515	487	
6	0	0	0	0	515	487	
7	0	0	0	0	515	487	
8	0	0	0	0	513	487	
9	0	0	0	0	512	487	
10	0	0	0	0	512	487	
11	0	0	0	0	511	487	
12	0	0	0	0	511	487	
13	0	0	0	0	511	487	
14	0	0	0	0	510	487	
15	0	0	0	0	511	487	
0	0	0	0	0	511	487	
1	0	0	0	0	513	487	
2	0	0	0	0	514	487	
3	0	0	0	0	515	487	
4	0	0	0	0	514	487	
5	0	0	0	0	513	487	
6	0	0	0	0	513	487	
7	0	0	0	0	513	487	
8	0	0	0	0	512	487	
9	0	0	0	0	512	487	
10	0	0	0	0	511	487	
11	0	0	0	0	510	487	
12	0	0	0	0	508	487	
13	0	0	0	0	508	487	
14	0	0	0	0	507	487	
15	0	0	0	0	506	487	
0	0	0	0	0	507	487	
1	0	0	0	0	506	487	
2	0	0	0	0	507	487	
3	0	0	0	0	508	487	
4	0	0	0	0	510	487	
5	0	0	0	0	510	487	
6	0	0	0	0	510	487	
7	0	0	0	0	511	487	
8	0	0	0	0	512	487	
9	0	0	0	0	512	487	
10	0	0	0	0	512	487	
11	0	0	0	0	511	487	
12	0	0	0	0	512	487	
13	0	0	0	0	511	487	
14	0	0	0	0	511	487	
15	0	0	0	0	511	487	
0	0	0	0	0	511	487	
1	0	0	0	0	511	487	
2	0	0	0	0	511	487	
3	0	0	0	0	511	487	
4	0	0	0	0	512	487	
5	0	0	0	0	513	487	
6	0	0	0	0	513	487	
7	0	0	0	0	513	487	
8	0	0	0	0	513	487	
9	0	0	0	0	513	487	
10	0	0	0	0	513	487	
11	0	0	0	0	515	487	
12	0	0	0	0	515	487	
13	0	0	0	0	514	487	
14	0	0	0	0	514	487	
15	0	0	0	0	513	487	
0	0	0	0	0	513	487	
1	0	0	0	0	513	487	
2	0	0	0	0	513	487	
3	0	0	0	0	513	487	
4	0	0	0	0	513	487	
5	0	0	0	0	514	487	
6	0	0	0	0	515	487	
7	0	0	0	0	515	487	
8	0	0	0	0	515	487	
9	0	0	0	0	516	487	
10	0	0	0	0	515	487	
11	0	0	0	0	515	487	
12	0	0	0	0	514	487	
13	0	0	0	0	514	487	
14	0	0	0	0	513	487	
15	0	0	0	0	513	487	
0	0	0	0	0	513	487	
1	0	0	0	0	512	487	
2	0	0	0	0	512	487	
3	0	0	0	0	512	487	
4	0	0	0	0	511	487	
5	0	0	0	0	511	487	
6	0	0	0	0	511	487	
7	0	0	0	0	512	487	
8	0	0	0	0	511	487	
9	0	0	0	0	511	487	
10	0	0	0	0	511	487	
11	0	0	0	0	510	487	
12	0	0	0	0	510	487	
13	0	0	0	0	510	487	
14	0	0	0	0	510	487	
15	0	0	0	0	510	487	
0	0	0	0	0	510	487	
1	0	0	0	0	510	487	
2	0	0	0	0	510	487	
3	0	0	0	0	510	487	
4	0	0	0	0	511	487	
5	0	0	0	0	511	487	
6	0	0	0	0	512	487	
7	0	0	0	0	512	487	
8	0	0	0	0	513	487	
9	0	0	0	0	512	487	
10	0	0	0	0	512	487	
11	0	0	0	0	512	487	
12	0	0	0	0	512	487	
13	0	0	0	0	512	487	
14	0	0	0	0	511	487	
15	0	0	0	0	510	487	
0	0	0	0	0	510	487	
1	0	0	0	0	509	487	
2	0	0	0	0	508	487	
3	0	0	0	0	508	487	
4	0	0	0	0	509	487	
5	0	0	0	0	511	487	
6	0	0	0	0	511	487	
7	0	0	0	0	512	487	
8	0	0	0	0	512	487	
9	0	0	0	0	512	487	
10	0	0	0	0	511	487	
11	0	0	0	0	511	487	
12	0	0	0	0	511	487	
13	0	0	0	0	510	487	
14	0	0	0	0	509	487	
15	0	0	0	0	508	487	
0	0	0	0	0	508	487	
1	0	0	0	0	508	487	
2	0	0	0	0	507	487	
3	0	0	0	0	507	487	
4	0	0	0	0	507	487	
5	0	0	0	0	507	487	
6	0	0	0	0	508	487	
7	0	0	0	0	508	487	
8	0	0	0	0	508	487	
9	0	0	0	0	508	487	
10	0	0	0	0	507	487	
11	0	0	0	0	506	487	
12	0	0	0	0	505	487	
13	0	0	0	0	504	487	
14	0	0	0	0	503	487	
15	0	0	0	0	501	487	
0	0	0	0	0	500	487	
1	0	0	0	0	499	487	
2	0	0	0	0	499	487	
3	0	0	0	0	499	487	
4	0	0	0	0	500	487	
5	0	0	0	0	500	487	
6	0	0	0	0	501	487	
7	0	0	0	0	502	487	
8	0	0	0	0	504	487	
9	0	0	0	0	504	487	
10	0	0	0	0	504	487	
11	0	0	0	0	503	487	
12	0	0	0	0	502	487	
13	0	0	0	0	502	487	
14	0	0	0	0	500	487	
15	0	0	0	0	500	487	
0	0	0	0	0	499	487	
1	0	0	0	0	498	487	
2	0	0	0	0	498	487	
3	0	0	0	0	497	487	
4	0	0	0	0	497	487	
5	0	0	0	0	498	487	
6	0	0	0	0	498	487	
7	0	0	0	0	499	487	
8	0	0	0	0	499	487	
9	0	0	0	0	500	487	
10	0	0	0	0	500	487	
11	0	0	0	0	501	487	
12	0	0	0	0	501	487	
13	0	0	0	0	500	487	
14	0	0	0	0	499	487	
15	0	0	0	0	499	487	
0	0	0	0	0	499	487	
1	0	0	0	0	499	487	
2	0	0	0	0	497	487	
3	0	0	0	0	497	487	
4	0	0	0	0	497	487	
5	0	0	0	0	496	486	
6	0	0	0	0	496	487	
7	0	0	0	0	496	487	
8	0	0	0	0	497	486	
9	0	0	0	0	497	487	
10	0	0	0	0	497	486	
11	0	0	0	0	498	487	
12	0	0	0	0	498	487	
13	0	0	0	0	498	487	
14	0	0	0	0	497	487	
15	0	0	0	0	496	487	
0	0	0	0	0	497	487	
1	0	0	0	0	496	487	
2	0	0	0	0	496	487	
3	0	0	0	0	495	486	
4	0	0	0	0	494	487	
5	0	0	0	0	495	487	
6	0	0	0	0	495	487	
7	0	0	0	0	496	487	
8	0	0	0	0	496	487	
9	0	0	0	0	497	487	
10	0	0	0	0	498	487	
11	0	0	0	0	498	486	
12	0	0	0	0	498	486	
13	0	0	0	0	498	487	
14	0	0	0	0	498	486	
15	0	0	0	0	499	487	
0	0	0	0	0	498	487	
1	0	0	0	0	497	487	
2	0	0	0	0	497	487	
3	0	0	0	0	496	487	
4	0	0	0	0	496	487	
5	0	0	0	0	496	487	
6	0	0	0	0	496	487	
7	0	0	0	0	496	487	
8	0	0	0	0	496	486	
9	0	0	0	0	497	486	
10	0	0	0	0	498	487	
11	0	0	0	0	498	487	
12	0	0	0	0	499	486	
13	0	0	0	0	499	486	
14	0	0	0	0	501	487	
15	0	0	0	0	501	487	
0	0	0	0	0	500	487	
1	0	0	0	0	500	487	
2	0	0	0	0	500	486	
3	0	0	0	0	500	487	
4	0	0	0	0	500	486	
5	0	0	0	0	500	487	
6	0	0	0	0	499	487	
7	0	0	0	0	498	486	
8	0	0	0	0	499	487	
9	0	0	0	0	499	487	
10	0	0	0	0	500	486	
11	0	0	0	0	501	486	
12	0	0	0	0	502	486	
13	0	0	0	0	503	487	
14	0	0	0	0	502	486	
15	0	0	0	0	502	486	
0	0	0	0	0	502	487	
1	0	0	0	0	502	486	
2	0	0	0	0	502	487	
3	0	0	0	0	501	486	
4	0	0	0	0	501	486	
5	0	0	0	0	501	486	
6	0	0	0	0	500	486	
7	0	0	0	0	500	486	
8	0	0	0	0	500	486	
9	0	0	0	0	501	487	
10	0	0	0	0	501	486	
11	0	0	0	0	502	486	
12	0	0	0	0	502	486	
13	0	0	0	0	502	486	
14	0	0	0	0	502	486	
15	0	0	0	0	503	486	
0	0	0	0	0	503	486	
1	0	0	0	0	503	487	
2	0	0	0	0	503	486	
3	0	0	0	0	503	487	
4	0	0	0	0	502	486	
5	0	0	0	0	502	486	
6	0	0	0	0	502	486	
7	0	0	0	0	503	486	
8	0	0	0	0	503	486	
9	0	0	0	0	503	486	
10	0	0	0	0	503	486	
11	0	0	0	0	503	486	
12	0	0	0	0	503	486	
13	0	0	0	0	504	486	
14	0	0	0	0	504	486	
15	0	0	0	0	503	486	
0	0	0	0	0	503	487	
1	0	0	0	0	502	486	
2	0	0	0	0	502	486	
3	0	0	0	0	502	486	
4	0	0	0	0	503	486	
5	0	0	0	0	503	486	
6	0	0	0	0	503	486	
7	0	0	0	0	502	486	
8	0	0	0	0	501	486	
9	0	0	0	0	501	486	
10	0	0	0	0	502	487	
11	0	0	0	0	502	486	
12	0	0	0	0	502	486	
13	0	0	0	0	502	486	
14	0	0	0	0	502	486	
15	0	0	0	0	504	486	
0	0	0	0	0	504	486	
1	0	0	0	0	504	486	
2	0	0	0	0	505	486	
3	0	0	0	0	504	486	
4	0	0	0	0	504	486	
5	0	0	0	0	504	486	
6	0	0	0	0	503	486	
7	0	0	0	0	503	486	
8	0	0	0	0	503	486	
9	0	0	0	0	504	486	
10	0	0	0	0	504	486	
11	0	0	0	0	504	486	
12	0	0	0	0	505	486	
13	0	0	0	0	507	486	
14	0	0	0	0	508	486	
15	0	0	0	0	509	486	
0	0	0	0	0	510	486	
1	0	0	0	0	509	486	
2	0	0	0	0	508	486	
3	0	0	0	0	509	486	
4	0	0	0	0	509	486	
5	0	0	0	0	508	486	
6	0	0	0	0	508	486	
7	0	0	0	0	508	486	
8	0	0	0	0	508	486	
9	0	0	0	0	508	486	
10	0	0	0	0	508	486	
11	0	0	0	0	509	486	
12	0	0	0	0	508	486	
13	0	0	0	0	509	486	
14	0	0	0	0	508	486	
15	0	0	0	0	509	486	
0	0	0	0	0	511	486	
1	0	0	0	0	510	486	
2	0	0	0	0	510	486	
3	0	0	0	0	510	486	
4	0	0	0	0	510	486	
5	0	0	0	0	510	486	
6	0	0	0	0	509	486	
7	0	0	0	0	509	486	
8	0	0	0	0	507	486	
9	0	0	0	0	506	486	
10	0	0	0	0	505	486	
11	0	0	0	0	504	486	
12	0	0	0	0	504	486	
13	0	0	0	0	505	486	
14	0	0	0	0	505	486	
15	0	0	0	0	506	486	
0	0	0	0	0	506	486	
1	0	0	0	0	505	486	
2	0	0	0	0	504	486	
3	0	0	0	0	503	486	
4	0	0	0	0	503	486	
5	0	0	0	0	503	486	
6	0	0	0	0	504	486	
7	0	0	0	0	503	486	
8	0	0	0	0	503	486	
9	0	0	0	0	503	486	
10	0	0	0	0	503	486	
11	0	0	0	0	504	486	
12	0	0	0	0	504	486	
13	0	0	0	0	504	486	
14	0	0	0	0	504	486	
15	0	0	0	0	505	486	
0	0	0	0	0	506	486	
1	0	0	0	0	506	486	
2	0	0	0	0	507	486	
3	0	0	0	0	508	486	
4	0	0	0	0	508	486	
5	0	0	0	0	508	486	
6	0	0	0	0	508	486	
7	0	0	0	0	508	486	
8	0	0	0	0	507	486	
9	0	0	0	0	507	486	
10	0	0	0	0	507	486	
11	0	0	0	0	508	486	
12	0	0	0	0	509	486	
13	0	0	0	0	509	486	
14	0	0	0	0	509	486	
15	0	0	0	0	510	486	
0	0	0	0	0	511	486	
1	0	0	0	0	511	486	
2	0	0	0	0	511	486	
3	0	0	0	0	511	486	
4	0	0	0	0	511	486	
5	0	0	0	0	511	486	
6	0	0	0	0	512	486	
7	0	0	0	0	512	486	
8	0	0	0	0	512	486	
9	0	0	0	0	512	486	
10	0	0	0	0	512	486	
11	0	0	0	0	511	486	
12	0	0	0	0	510	486	
13	0	0	0	0	511	486	
14	0	0	0	0	511	486	
15	0	0	0	0	511	486	
0	0	0	0	0	512	486	
1	0	0	0	0	513	486	
2	0	0	0	0	513	486	
3	0	0	0	0	513	486	
4	0	0	0	0	513	486	
5	0	0	0	0	514	486	
6	0	0	0	0	514	486	
7	0	0	0	0	513	486	
8	0	0	0	0	513	486	
9	0	0	0	0	513	486	
10	0	0	0	0	513	486	
11	0	0	0	0	513	486	
12	0	0	0	0	513	486	
13	0	0	0	0	513	486	
14	0	0	0	0	513	486	
15	0	0	0	0	513	486	
0	0	0	0	0	514	486	
1	0	0	0	0	514	486	
2	0	0	0	0	515	486	
3	0	0	0	0	516	486	
4	0	0	0	0	516	486	
5	0	0	0	0	518	486	
6	0	0	0	0	518	486	
7	0	0	0	0	517	486	
8	0	0	0	0	517	486	
9	0	0	0	0	517	486	
10	0	0	0	0	517	486	
11	0	0	0	0	517	486	
12	0	0	0	0	517	486	
13	0	0	0	0	515	486	
14	0	0	0	0	515	486	
15	0	0	0	0	515	486	
0	0	0	0	0	515	486	
1	0	0	0	0	516	486	
2	0	0	0	0	518	486	
3	0	0	0	0	519	486	
4	0	0	0	0	519	486	
5	0	0	0	0	519	486	
6	0	0	0	0	519	486	
7	0	0	0	0	519	486	
8	0	0	0	0	519	486	
9	0	0	0	0	518	486	
10	0	0	0	0	517	486	
11	0	0	0	0	517	486	
12	0	0	0	0	516	486	
13	0	0	0	0	516	486	
14	0	0	0	0	516	486	
15	0	0	0	0	516	486	
0	0	0	0	0	516	486	
1	0	0	0	0	516	486	
2	0	0	0	0	517	486	
3	0	0	0	0	517	486	
4	0	0	0	0	516	486	
5	0	0	0	0	517	486	
6	0	0	0	0	516	486	
7	0	0	0	0	516	486	
8	0	0	0	0	515	486	
9	0	0	0	0	515	486	
10	0	0	0	0	515	486	
11	0	0	0	0	514	486	
12	0	0	0	0	513	486	
13	0	0	0	0	513	486	
14	0	0	0	0	513	486	
15	0	0	0	0	513	486	
0	0	0	0	0	513	486	
1	0	0	0	0	513	486	
2	0	0	0	0	513	486	
3	0	0	0	0	514	486	
4	0	0	0	0	514	486	
5	0	0	0	0	513	486	
6	0	0	0	0	512	486	
7	0	0	0	0	512	486	
8	0	0	0	0	511	486	
9	0	0	0	0	511	486	
10	0	0	0	0	510	486	
11	0	0	0	0	509	486	
12	0	0	0	0	508	486	
13	0	0	0	0	507	486	
14	0	0	0	0	507	486	
15	0	0	0	0	505	486	
0	0	0	0	0	504	486	
1	0	0	0	0	504	486	
2	0	0	0	0	504	486	
3	0	0	0	0	505	486	
4	0	0	0	0	505	486	
5	0	0	0	0	505	486	
6	0	0	0	0	505	486	
7	0	0	0	0	507	486	
8	0	0	0	0	507	486	
9	0	0	0	0	505	486	
10	0	0	0	0	504	486	
11	0	0	0	0	504	486	
12	0	0	0	0	504	486	
13	0	0	0	0	503	486	
14	0	0	0	0	503	486	
15	0	0	0	0	502	486	
0	0	0	0	0	502	486	
1	0	0	0	0	503	486	
2	0	0	0	0	503	486	
3	0	0	0	0	503	486	
4	0	0	0	0	504	486	
5	0	0	0	0	506	486	
6	0	0	0	0	506	486	
7	0	0	0	0	506	485	
8	0	0	0	0	506	486	
9	0	0	0	0	507	486	
10	0	0	0	0	506	486	
11	0	0	0	0	505	486	
12	0	0	0	0	506	486	
13	0	0	0	0	505	486	
14	0	0	0	0	504	486	
15	0	0	0	0	504	486	
0	0	0	0	0	503	486	
1	0	0	0	0	504	486	
2	0	0	0	0	504	486	
3	0	0	0	0	505	486	
4	0	0	0	0	507	486	
5	0	0	0	0	508	486	
6	0	0	0	0	509	485	
7	0	0	0	0	509	486	
8	0	0	0	0	508	485	
9	0	0	0	0	507	485	
10	0	0	0	0	505	485	
11	0	0	0	0	504	486	
12	0	0	0	0	500	486	
13	0	0	0	0	497	486	
14	0	0	0	0	495	486	
15	0	0	0	0	492	486	
0	0	0	0	0	488	486	
1	0	0	0	0	485	486	
2	0	0	0	0	482	486	
3	0	0	0	0	480	486	
4	0	0	0	0	479	485	
5	0	0	0	0	477	486	
6	0	0	0	0	474	485	
7	0	0	0	0	472	485	
8	0	0	0	0	469	486	
9	0	0	0	0	467	485	
10	0	0	0	0	467	486	
11	0	0	0	0	467	486	
12	0	0	0	0	467	485	
13	0	0	0	0	468	485	
14	0	0	0	0	468	485	
15	0	0	0	0	470	486	
0	0	0	0	0	471	486	
1	0	0	0	0	471	486	
2	0	0	0	0	471	486	
3	0	0	0	0	472	486	
4	0	0	0	0	474	486	
5	0	0	0	0	476	486	
6	0	0	0	0	476	485	
7	0	0	0	0	477	486	
8	0	0	0	0	477	485	
9	0	0	0	0	477	485	
10	0	0	0	0	477	485	
11	0	0	0	0	479	486	
12	0	0	0	0	480	486	
13	0	0	0	0	483	485	
14	0	0	0	0	487	485	
15	0	0	0	0	489	486	
0	0	0	0	0	492	486	
1	0	0	0	0	494	485	
2	0	0	0	0	496	485	
3	0	0	0	0	499	486	
4	0	0	0	0	502	485	
5	0	0	0	0	504	485	
6	0	0	0	0	507	485	
7	0	0	0	0	510	485	
8	0	0	0	0	512	486	
9	0	0	0	0	515	485	
10	0	0	0	0	517	485	
11	0	0	0	0	518	485	
12	0	0	0	0	520	485	
13	0	0	0	0	522	485	
14	0	0	0	0	523	485	
15	0	0	0	0	522	485	
0	0	0	0	0	522	485	
1	0	0	0	0	523	485	
2	0	0	0	0	523	486	
3	0	0	0	0	523	485	
4	0	0	0	0	523	485	
5	0	0	0	0	523	485	
6	0	0	0	0	523	485	
7	0	0	0	0	523	485	
8	0	0	0	0	523	485	
9	0	0	0	0	523	485	
10	0	0	0	0	523	485	
11	0	0	0	0	522	485	
12	0	0	0	0	521	485	
13	0	0	0	0	521	485	
14	0	0	0	0	520	485	
15	0	0	0	0	519	485	
0	0	0	0	0	517	485	
1	0	0	0	0	515	486	
2	0	0	0	0	513	485	
3	0	0	0	0	513	485	
4	0	0	0	0	512	485	
5	0	0	0	0	512	485	
6	0	0	0	0	512	485	
7	0	0	0	0	512	485	
8	0	0	0	0	513	485	
9	0	0	0	0	513	485	
10	0	0	0	0	513	485	
11	0	0	0	0	513	485	
12	0	0	0	0	513	485	
13	0	0	0	0	512	485	
14	0	0	0	0	512	485	
15	0	0	0	0	511	485	
0	0	0	0	0	511	485	
1	0	0	0	0	509	485	
2	0	0	0	0	509	485	
3	0	0	0	0	508	485	
4	0	0	0	0	508	485	
5	0	0	0	0	508	485	
6	0	0	0	0	508	485	
7	0	0	0	0	508	485	
8	0	0	0	0	508	485	
9	0	0	0	0	509	485	
10	0	0	0	0	510	485	
11	0	0	0	0	509	485	
12	0	0	0	0	509	485	
13	0	0	0	0	509	485	
14	0	0	0	0	509	485	
15	0	0	0	0	510	485	
0	0	0	0	0	509	485	
1	0	0	0	0	509	485	
2	0	0	0	0	509	485	
3	0	0	0	0	508	485	
4	0	0	0	0	508	485	
5	0	0	0	0	508	485	
6	0	0	0	0	507	485	
7	0	0	0	0	507	485	
8	0	0	0	0	507	485	
9	0	0	0	0	508	485	
10	0	0	0	0	509	485	
11	0	0	0	0	510	485	
12	0	0	0	0	510	485	
13	0	0	0	0	509	485	
14	0	0	0	0	509	485	
15	0	0	0	0	510	485	
0	0	0	0	0	510	485	
1	0	0	0	0	509	485	
2	0	0	0	0	509	485	
3	0	0	0	0	508	485	
4	0	0	0	0	508	485	
5	0	0	0	0	508	485	
6	0	0	0	0	508	485	
7	0	0	0	0	507	485	
8	0	0	0	0	507	485	
9	0	0	0	0	506	485	
10	0	0	0	0	507	485	
11	0	0	0	0	508	485	
12	0	0	0	0	508	485	
13	0	0	0	0	508	485	
14	0	0	0	0	508	485	
15	0	0	0	0	508	485	
0	0	0	0	0	508	485	
1	0	0	0	0	507	485	
2	0	0	0	0	507	485	
3	0	0	0	0	506	485	
4	0	0	0	0	505	485	
5	0	0	0	0	505	485	
6	0	0	0	0	504	485	
7	0	0	0	0	505	485	
8	0	0	0	0	504	485	
9	0	0	0	0	505	485	
10	0	0	0	0	505	485	
11	0	0	0	0	505	485	
12	0	0	0	0	505	485	
13	0	0	0	0	505	485	
14	0	0	0	0	505	485	
15	0	0	0	0	504	485	
0	0	0	0	0	504	485	
1	0	0	0	0	504	485	
2	0	0	0	0	503	485	
3	0	0	0	0	502	485	
4	0	0	0	0	502	485	
5	0	0	0	0	501	485	
6	0	0	0	0	502	485	
7	0	0	0	0	501	485	
8	0	0	0	0	501	485	
9	0	0	0	0	502	485	
10	0	0	0	0	502	484	
11	0	0	0	0	502	485	
12	0	0	0	0	502	485	
13	0	0	0	0	503	485	
14	0	0	0	0	503	485	
15	0	0	0	0	504	485	
0	0	0	0	0	504	485	
1	0	0	0	0	504	485	
2	0	0	0	0	504	485	
3	0	0	0	0	503	485	
4	0	0	0	0	502	484	
5	0	0	0	0	500	485	
6	0	0	0	0	499	485	
7	0	0	0	0	499	485	
8	0	0	0	0	499	485	
9	0	0	0	0	497	485	
10	0	0	0	0	497	485	
11	0	0	0	0	497	485	
12	0	0	0	0	497	485	
13	0	0	0	0	498	485	
14	0	0	0	0	499	484	
15	0	0	0	0	500	485	
0	0	0	0	0	500	485	
1	0	0	0	0	501	485	
2	0	0	0	0	501	485	
3	0	0	0	0	501	484	
4	0	0	0	0	500	485	
5	0	0	0	0	500	485	
6	0	0	0	0	499	485	
7	0	0	0	0	499	485	
8	0	0	0	0	497	484	
9	0	0	0	0	496	485	
10	0	0	0	0	496	484	
11	0	0	0	0	496	485	
12	0	0	0	0	496	485	
13	0	0	0	0	496	484	
14	0	0	0	0	496	485	
15	0	0	0	0	496	485	
0	0	0	0	0	496	484	
1	0	0	0	0	496	484	
2	0	0	0	0	496	484	
3	0	0	0	0	496	485	
4	0	0	0	0	495	484	
5	0	0	0	0	494	485	
6	0	0	0	0	494	485	
7	0	0	0	0	494	484	
8	0	0	0	0	494	484	
9	0	0	0	0	494	485	
10	0	0	0	0	494	485	
11	0	0	0	0	494	485	
12	0	0	0	0	495	485	
13	0	0	0	0	496	485	
14	0	0	0	0	496	484	
15	0	0	0	0	497	484	
0	0	0	0	0	497	484	
1	0	0	0	0	497	484	
2	0	0	0	0	498	485	
3	0	0	0	0	497	484	
4	0	0	0	0	498	484	
5	0	0	0	0	497	484	
6	0	0	0	0	496	484	
7	0	0	0	0	496	485	
8	0	0	0	0	495	485	
9	0	0	0	0	495	484	
10	0	0	0	0	495	484	
11	0	0	0	0	495	485	
12	0	0	0	0	496	485	
13	0	0	0	0	496	484	
14	0	0	0	0	496	484	
15	0	0	0	0	497	484	
0	0	0	0	0	497	484	
1	0	0	0	0	498	485	
2	0	0	0	0	499	484	
3	0	0	0	0	499	484	
4	0	0	0	0	499	484	
5	0	0	0	0	499	484	
6	0	0	0	0	499	484	
7	0	0	0	0	498	485	
8	0	0	0	0	497	484	
9	0	0	0	0	496	484	
10	0	0	0	0	496	484	
11	0	0	0	0	496	485	
12	0	0	0	0	496	484	
13	0	0	0	0	497	484	
14	0	0	0	0	498	484	
15	0	0	0	0	498	484	
0	0	0	0	0	499	484	
1	0	0	0	0	499	484	
2	0	0	0	0	500	484	
3	0	0	0	0	500	484	
4	0	0	0	0	500	484	
5	0	0	0	0	499	484	
6	0	0	0	0	500	484	
7	0	0	0	0	500	484	
8	0	0	0	0	500	484	
9	0	0	0	0	500	484	
10	0	0	0	0	500	485	
11	0	0	0	0	500	484	
12	0	0	0	0	499	484	
13	0	0	0	0	499	484	
14	0	0	0	0	499	484	
15	0	0	0	0	501	484	
0	0	0	0	0	501	484	
1	0	0	0	0	503	484	
2	0	0	0	0	502	484	
3	0	0	0	0	502	484	
4	0	0	0	0	502	484	
5	0	0	0	0	504	484	
6	0	0	0	0	503	484	
7	0	0	0	0	504	484	
8	0	0	0	0	503	484	
9	0	0	0	0	504	484	
10	0	0	0	0	505	484	
11	0	0	0	0	505	484	
12	0	0	0	0	505	484	
13	0	0	0	0	505	484	
14	0	0	0	0	507	485	
15	0	0	0	0	507	484	
0	0	0	0	0	508	484	
1	0	0	0	0	508	484	
2	0	0	0	0	509	484	
3	0	0	0	0	511	484	
4	0	0	0	0	512	484	
5	0	0	0	0	512	484	
6	0	0	0	0	512	484	
7	0	0	0	0	512	484	
8	0	0	0	0	513	484	
9	0	0	0	0	513	484	
10	0	0	0	0	513	484	
11	0	0	0	0	514	484	
12	0	0	0	0	514	484	
13	0	0	0	0	515	484	
14	0	0	0	0	516	484	
15	0	0	0	0	517	484	
0	0	0	0	0	518	484	
1	0	0	0	0	519	484	
2	0	0	0	0	519	484	
3	0	0	0	0	520	484	
4	0	0	0	0	521	484	
5	0	0	0	0	523	484	
6	0	0	0	0	523	484	
7	0	0	0	0	524	484	
8	0	0	0	0	524	484	
9	0	0	0	0	525	484	
10	0	0	0	0	526	484	
11	0	0	0	0	526	484	
12	0	0	0	0	526	484	
13	0	0	0	0	526	484	
14	0	0	0	0	527	484	
15	0	0	0	0	527	484	
0	0	0	0	0	527	484	
1	0	0	0	0	529	484	
2	0	0	0	0	529	484	
3	0	0	0	0	530	484	
4	0	0	0	0	530	484	
5	0	0	0	0	530	484	
6	0	0	0	0	531	484	
7	0	0	0	0	530	484	
8	0	0	0	0	530	484	
9	0	0	0	0	529	484	
10	0	0	0	0	528	484	
11	0	0	0	0	528	484	
12	0	0	0	0	527	484	
13	0	0	0	0	527	484	
14	0	0	0	0	527	484	
15	0	0	0	0	528	484	
0	0	0	0	0	530	484	
1	0	0	0	0	531	484	
2	0	0	0	0	531	484	
3	0	0	0	0	532	484	
4	0	0	0	0	532	484	
5	0	0	0	0	533	484	
6	0	0	0	0	532	484	
7	0	0	0	0	531	484	
8	0	0	0	0	531	484	
9	0	0	0	0	531	484	
10	0	0	0	0	531	484	
11	0	0	0	0	530	484	
12	0	0	0	0	530	484	
13	0	0	0	0	530	484	
14	0	0	0	0	529	484	
15	0	0	0	0	530	484	
0	0	0	0	0	530	484	
1	0	0	0	0	529	484	
2	0	0	0	0	528	484	
3	0	0	0	0	527	484	
4	0	0	0	0	529	484	
5	0	0	0	0	529	484	
6	0	0	0	0	529	484	
7	0	0	0	0	528	484	
8	0	0	0	0	528	484	
9	0	0	0	0	527	484	
10	0	0	0	0	527	484	
11	0	0	0	0	526	484	
12	0	0	0	0	526	484	
13	0	0	0	0	525	484	
14	0	0	0	0	525	484	
15	0	0	0	0	524	484	
0	0	0	0	0	524	484	
1	0	0	0	0	524	484	
2	0	0	0	0	523	484	
3	0	0	0	0	523	484	
4	0	0	0	0	523	484	
5	0	0	0	0	523	484	
6	0	0	0	0	522	484	
7	0	0	0	0	521	484	
8	0	0	0	0	521	484	
9	0	0	0	0	520	484	
10	0	0	0	0	520	484	
11	0	0	0	0	519	484	
12	0	0	0	0	518	484	
13	0	0	0	0	517	484	
14	0	0	0	0	516	484	
15	0	0	0	0	515	484	
0	0	0	0	0	514	484	
1	0	0	0	0	514	484	
2	0	0	0	0	514	484	
3	0	0	0	0	514	484	
4	0	0	0	0	514	484	
5	0	0	0	0	515	484	
6	0	0	0	0	515	484	
7	0	0	0	0	515	484	
8	0	0	0	0	515	484	
9	0	0	0	0	515	484	
10	0	0	0	0	514	484	
11	0	0	0	0	513	484	
12	0	0	0	0	513	484	
13	0	0	0	0	512	484	
14	0	0	0	0	512	484	
15	0	0	0	0	512	484	
0	0	0	0	0	512	484	
1	0	0	0	0	511	484	
2	0	0	0	0	511	484	
3	0	0	0	0	511	484	
4	0	0	0	0	511	484	
5	0	0	0	0	512	484	
6	0	0	0	0	513	484	
7	0	0	0	0	514	484	
8	0	0	0	0	515	483	
9	0	0	0	0	516	484	
10	0	0	0	0	517	484	
11	0	0	0	0	517	484	
12	0	0	0	0	516	484	
13	0	0	0	0	516	484	
14	0	0	0	0	515	484	
15	0	0	0	0	515	484	
0	0	0	0	0	513	484	
1	0	0	0	0	513	484	
2	0	0	0	0	515	484	
3	0	0	0	0	515	484	
4	0	0	0	0	515	484	
5	0	0	0	0	516	484	
6	0	0	0	0	516	484	
7	0	0	0	0	517	483	
8	0	0	0	0	518	483	
9	0	0	0	0	518	483	
10	0	0	0	0	519	484	
11	0	0	0	0	519	483	
12	0	0	0	0	520	483	
13	0	0	0	0	520	484	
14	0	0	0	0	519	483	
15	0	0	0	0	520	484	
0	0	0	0	0	519	483	
1	0	0	0	0	520	484	
2	0	0	0	0	520	484	
3	0	0	0	0	520	483	
4	0	0	0	0	521	484	
5	0	0	0	0	521	484	
6	0	0	0	0	522	484	
7	0	0	0	0	523	483	
8	0	0	0	0	524	484	
9	0	0	0	0	523	484	
10	0	0	0	0	522	483	
11	0	0	0	0	522	483	
12	0	0	0	0	522	484	
13	0	0	0	0	522	483	
14	0	0	0	0	522	484	
15	0	0	0	0	521	483	
0	0	0	0	0	520	483	
1	0	0	0	0	520	484	
2	0	0	0	0	519	483	
3	0	0	0	0	519	484	
4	0	0	0	0	519	483	
5	0	0	0	0	519	484	
6	0	0	0	0	520	484	
7	0	0	0	0	520	483	
8	0	0	0	0	520	483	
9	0	0	0	0	519	483	
10	0	0	0	0	519	483	
11	0	0	0	0	519	483	
12	0	0	0	0	519	483	
13	0	0	0	0	519	484	
14	0	0	0	0	518	483	
15	0	0	0	0	518	483	
0	0	0	0	0	517	484	
1	0	0	0	0	516	483	
2	0	0	0	0	516	483	
3	0	0	0	0	515	484	
4	0	0	0	0	515	483	
5	0	0	0	0	515	484	
6	0	0	0	0	515	483	
7	0	0	0	0	515	483	
8	0	0	0	0	515	483	
9	0	0	0	0	516	483	
10	0	0	0	0	516	483	
11	0	0	0	0	516	483	
12	0	0	0	0	516	484	
13	0	0	0	0	516	483	
14	0	0	0	0	516	483	
15	0	0	0	0	516	483	
0	0	0	0	0	516	483	
1	0	0	0	0	517	483	
2	0	0	0	0	516	483	
3	0	0	0	0	517	483	
4	0	0	0	0	517	483	
5	0	0	0	0	517	483	
6	0	0	0	0	518	484	
7	0	0	0	0	518	483	
8	0	0	0	0	519	483	
9	0	0	0	0	520	483	
10	0	0	0	0	521	483	
11	0	0	0	0	521	483	
12	0	0	0	0	521	483	
13	0	0	0	0	521	483	
14	0	0	0	0	520	483	
15	0	0	0	0	520	483	
0	0	0	0	0	521	483	
1	0	0	0	0	520	483	
2	0	0	0	0	519	483	
3	0	0	0	0	519	483	
4	0	0	0	0	518	483	
5	0	0	0	0	519	483	
6	0	0	0	0	519	483	
7	0	0	0	0	519	483	
8	0	0	0	0	520	483	
9	0	0	0	0	521	483	
10	0	0	0	0	522	483	
11	0	0	0	0	521	483	
12	0	0	0	0	521	483	
13	0	0	0	0	521	483	
14	0	0	0	0	519	483	
15	0	0	0	0	519	483	
0	0	0	0	0	519	483	
1	0	0	0	0	518	483	
2	0	0	0	0	518	483	
3	0	0	0	0	516	483	
4	0	0	0	0	516	483	
5	0	0	0	0	516	483	
6	0	0	0	0	516	483	
7	0	0	0	0	516	483	
8	0	0	0	0	517	483	
9	0	0	0	0	518	483	
10	0	0	0	0	518	483	
11	0	0	0	0	518	483	
12	0	0	0	0	518	483	
13	0	0	0	0	518	483	
14	0	0	0	0	519	483	
15	0	0	0	0	519	483	
0	0	0	0	0	519	483	
1	0	0	0	0	519	483	
2	0	0	0	0	519	483	
3	0	0	0	0	519	483	
4	0	0	0	0	518	483	
5	0	0	0	0	518	483	
6	0	0	0	0	518	483	
7	0	0	0	0	518	483	
8	0	0	0	0	518	483	
9	0	0	0	0	518	483	
10	0	0	0	0	519	483	
11	0	0	0	0	520	483	
12	0	0	0	0	521	483	
13	0	0	0	0	521	483	
14	0	0	0	0	521	483	
15	0	0	0	0	521	483	
0	0	0	0	0	520	483	
1	0	0	0	0	520	483	
2	0	0	0	0	519	483	
3	0	0	0	0	520	483	
4	0	0	0	0	519	483	
5	0	0	0	0	519	483	
6	0	0	0	0	518	483	
7	0	0	0	0	517	483	
8	0	0	0	0	516	483	
9	0	0	0	0	516	483	
10	0	0	0	0	516	483	
11	0	0	0	0	517	483	
12	0	0	0	0	518	483	
13	0	0	0	0	518	483	
14	0	0	0	0	518	483	
15	0	0	0	0	519	483	
0	0	0	0	0	518	483	
1	0	0	0	0	518	483	
2	0	0	0	0	517	483	
3	0	0	0	0	517	483	
4	0	0	0	0	518	483	
5	0	0	0	0	517	483	
6	0	0	0	0	516	483	
7	0	0	0	0	516	483	
8	0	0	0	0	516	483	
9	0	0	0	0	515	483	
10	0	0	0	0	515	483	
11	0	0	0	0	516	483	
12	0	0	0	0	517	483	
13	0	0	0	0	518	483	
14	0	0	0	0	518	483	
15	0	0	0	0	517	483	
0	0	0	0	0	518	483	
1	0	0	0	0	517	483	
2	0	0	0	0	517	483	
3	0	0	0	0	516	483	
4	0	0	0	0	515	483	
5	0	0	0	0	515	483	
6	0	0	0	0	513	483	
7	0	0	0	0	512	483	
8	0	0	0	0	512	483	
9	0	0	0	0	512	483	
10	0	0	0	0	512	483	
11	0	0	0	0	513	483	
12	0	0	0	0	513	483	
13	0	0	0	0	514	483	
14	0	0	0	0	514	483	
15	0	0	0	0	515	483	
0	0	0	0	0	515	483	
1	0	0	0	0	515	483	
2	0	0	0	0	515	483	
3	0	0	0	0	515	483	
4	0	0	0	0	514	483	
5	0	0	0	0	513	483	
6	0	0	0	0	513	483	
7	0	0	0	0	511	483	
8	0	0	0	0	511	483	
9	0	0	0	0	511	483	
10	0	0	0	0	511	483	
11	0	0	0	0	512	483	
12	0	0	0	0	512	483	
13	0	0	0	0	513	483	
14	0	0	0	0	514	483	
15	0	0	0	0	514	483	
0	0	0	0	0	514	483	
1	0	0	0	0	514	483	
2	0	0	0	0	514	483	
3	0	0	0	0	515	483	
4	0	0	0	0	514	483	
5	0	0	0	0	513	483	
6	0	0	0	0	512	483	
7	0	0	0	0	512	483	
8	0	0	0	0	512	483	
9	0	0	0	0	512	483	
10	0	0	0	0	511	483	
11	0	0	0	0	511	483	
12	0	0	0	0	511	483	
13	0	0	0	0	513	483	
14	0	0	0	0	514	483	
15	0	0	0	0	514	483	
0	0	0	0	0	515	483	
1	0	0	0	0	514	483	
2	0	0	0	0	514	483	
3	0	0	0	0	513	483	
4	0	0	0	0	513	483	
5	0	0	0	0	512	483	
6	0	0	0	0	511	483	
7	0	0	0	0	510	483	
8	0	0	0	0	510	483	
9	0	0	0	0	509	483	
10	0	0	0	0	508	483	
11	0	0	0	0	508	483	
12	0	0	0	0	509	483	
13	0	0	0	0	509	483	
14	0	0	0	0	509	483	
15	0	0	0	0	510	483	
0	0	0	0	0	511	483	
1	0	0	0	0	512	483	
2	0	0	0	0	512	483	
3	0	0	0	0	512	483	
4	0	0	0	0	511	483	
5	0	0	0	0	510	483	
6	0	0	0	0	509	483	
7	0	0	0	0	509	483	
8	0	0	0	0	510	483	
9	0	0	0	0	510	483	
10	0	0	0	0	510	483	
11	0	0	0	0	509	483	
12	0	0	0	0	510	483	
13	0	0	0	0	510	483	
14	0	0	0	0	510	483	
15	0	0	0	0	510	483	
0	0	0	0	0	511	483	
1	0	0	0	0	510	483	
2	0	0	0	0	510	483	
3	0	0	0	0	510	483	
4	0	0	0	0	510	483	
5	0	0	0	0	509	483	
6	0	0	0	0	508	483	
7	0	0	0	0	508	483	
8	0	0	0	0	508	483	
9	0	0	0	0	507	483	
10	0	0	0	0	508	483	
11	0	0	0	0	508	483	
12	0	0	0	0	508	483	
13	0	0	0	0	509	483	
14	0	0	0	0	509	483	
15	0	0	0	0	510	483	
0	0	0	0	0	510	483	
1	0	0	0	0	511	483	
2	0	0	0	0	512	483	
3	0	0	0	0	512	483	
4	0	0	0	0	512	483	
5	0	0	0	0	512	483	
6	0	0	0	0	510	483	
7	0	0	0	0	510	483	
8	0	0	0	0	510	483	
9	0	0	0	0	510	483	
10	0	0	0	0	508	483	
11	0	0	0	0	509	483	
12	0	0	0	0	509	483	
13	0	0	0	0	508	483	
14	0	0	0	0	508	483	
15	0	0	0	0	509	483	
0	0	0	0	0	509	483	
1	0	0	0	0	510	483	
2	0	0	0	0	510	483	
3	0	0	0	0	511	483	
4	0	0	0	0	510	483	
5	0	0	0	0	509	483	
6	0	0	0	0	508	483	
7	0	0	0	0	508	483	
8	0	0	0	0	507	483	
9	0	0	0	0	506	483	
10	0	0	0	0	505	483	
11	0	0	0	0	505	483	
12	0	0	0	0	504	483	
13	0	0	0	0	503	483	
14	0	0	0	0	502	483	
15	0	0	0	0	503	483	
0	0	0	0	0	502	483	
1	0	0	0	0	501	482	
2	0	0	0	0	501	483	
3	0	0	0	0	501	482	
4	0	0	0	0	502	483	
5	0	0	0	0	502	482	
6	0	0	0	0	501	482	
7	0	0	0	0	500	483	
8	0	0	0	0	499	483	
9	0	0	0	0	499	483	
10	0	0	0	0	497	483	
11	0	0	0	0	496	483	
12	0	0	0	0	496	483	
13	0	0	0	0	495	483	
14	0	0	0	0	495	483	
15	0	0	0	0	495	483	
0	0	0	0	0	495	483	
1	0	0	0	0	495	483	
2	0	0	0	0	496	482	
3	0	0	0	0	496	482	
4	0	0	0	0	496	483	
5	0	0	0	0	497	482	
6	0	0	0	0	497	483	
7	0	0	0	0	497	482	
8	0	0	0	0	496	483	
9	0	0	0	0	496	483	
10	0	0	0	0	495	482	
11	0	0	0	0	494	483	
12	0	0	0	0	493	482	
13	0	0	0	0	493	482	
14	0	0	0	0	493	483	
15	0	0	0	0	492	483	
0	0	0	0	0	494	483	
1	0	0	0	0	493	483	
2	0	0	0	0	494	482	
3	0	0	0	0	495	482	
4	0	0	0	0	495	482	
5	0	0	0	0	494	482	
6	0	0	0	0	494	483	
7	0	0	0	0	494	482	
8	0	0	0	0	493	483	
9	0	0	0	0	492	482	
10	0	0	0	0	492	483	
11	0	0	0	0	492	483	
12	0	0	0	0	491	482	
13	0	0	0	0	491	482	
14	0	0	0	0	490	482	
15	0	0	0	0	490	483	
0	0	0	0	0	491	483	
1	0	0	0	0	490	482	
2	0	0	0	0	489	482	
3	0	0	0	0	488	482	
4	0	0	0	0	488	482	
5	0	0	0	0	488	482	
6	0	0	0	0	489	482	
7	0	0	0	0	488	482	
8	0	0	0	0	488	482	
9	0	0	0	0	487	482	
10	0	0	0	0	486	482	
11	0	0	0	0	486	482	
12	0	0	0	0	485	482	
13	0	0	0	0	483	482	
14	0	0	0	0	483	482	
15	0	0	0	0	482	483	
0	0	0	0	0	482	482	
1	0	0	0	0	482	482	
2	0	0	0	0	483	482	
3	0	0	0	0	483	482	
4	0	0	0	0	483	482	
5	0	0	0	0	483	482	
6	0	0	0	0	483	482	
7	0	0	0	0	484	482	
8	0	0	0	0	484	482	
9	0	0	0	0	484	482	
10	0	0	0	0	484	482	
11	0	0	0	0	483	482	
12	0	0	0	0	482	482	
13	0	0	0	0	481	482	
14	0	0	0	0	481	482	
15	0	0	0	0	481	482	
0	0	0	0	0	481	482	
1	0	0	0	0	481	482	
2	0	0	0	0	481	482	
3	0	0	0	0	481	482	
4	0	0	0	0	483	482	
5	0	0	0	0	484	482	
6	0	0	0	0	485	482	
7	0	0	0	0	486	482	
8	0	0	0	0	486	482	
9	0	0	0	0	486	482	
10	0	0	0	0	486	482	
11	0	0	0	0	486	482	
12	0	0	0	0	486	482	
13	0	0	0	0	486	482	
14	0	0	0	0	487	482	
15	0	0	0	0	487	482	
0	0	0	0	0	487	482	
1	0	0	0	0	487	483	
2	0	0	0	0	488	482	
3	0	0	0	0	489	482	
4	0	0	0	0	490	482	
5	0	0	0	0	492	482	
6	0	0	0	0	493	482	
7	0	0	0	0	494	482	
8	0	0	0	0	495	482	
9	0	0	0	0	496	482	
10	0	0	0	0	496	482	
11	0	0	0	0	496	482	
12	0	0	0	0	496	482	
13	0	0	0	0	495	482	
14	0	0	0	0	495	482	
15	0	0	0	0	494	482	
0	0	0	0	0	494	482	
1	0	0	0	0	495	482	
2	0	0	0	0	495	482	
3	0	0	0	0	494	482	
4	0	0	0	0	495	482	
5	0	0	0	0	496	482	
6	0	0	0	0	497	482	
7	0	0	0	0	498	482	
8	0	0	0	0	499	482	
9	0	0	0	0	500	482	
10	0	0	0	0	500	482	
11	0	0	0	0	500	482	
12	0	0	0	0	500	482	
13	0	0	0	0	500	482	
14	0	0	0	0	500	482	
15	0	0	0	0	501	482	
0	0	0	0	0	501	482	
1	0	0	0	0	500	482	
2	0	0	0	0	501	482	
3	0	0	0	0	501	482	
4	0	0	0	0	503	482	
5	0	0	0	0	504	482	
6	0	0	0	0	504	482	
7	0	0	0	0	505	482	
8	0	0	0	0	506	482	
9	0	0	0	0	507	482	
10	0	0	0	0	508	482	
11	0	0	0	0	508	482	
12	0	0	0	0	508	482	
13	0	0	0	0	507	482	
14	0	0	0	0	506	482	
15	0	0	0	0	507	482	
0	0	0	0	0	507	482	
1	0	0	0	0	507	482	
2	0	0	0	0	506	482	
3	0	0	0	0	507	482	
4	0	0	0	0	508	482	
5	0	0	0	0	508	482	
6	0	0	0	0	508	482	
7	0	0	0	0	508	482	
8	0	0	0	0	509	482	
9	0	0	0	0	510	482	
10	0	0	0	0	511	482	
11	0	0	0	0	510	482	
12	0	0	0	0	510	482	
13	0	0	0	0	509	482	
14	0	0	0	0	509	482	
15	0	0	0	0	509	482	
0	0	0	0	0	508	482	
1	0	0	0	0	507	482	
2	0	0	0	0	507	482	
3	0	0	0	0	507	482	
4	0	0	0	0	507	482	
5	0	0	0	0	508	482	
6	0	0	0	0	507	482	
7	0	0	0	0	507	482	
8	0	0	0	0	508	482	
9	0	0	0	0	508	482	
10	0	0	0	0	509	482	
11	0	0	0	0	509	482	
12	0	0	0	0	508	482	
13	0	0	0	0	508	482	
14	0	0	0	0	508	482	
15	0	0	0	0	508	482	
0	0	0	0	0	508	482	
1	0	0	0	0	508	482	
2	0	0	0	0	508	482	
3	0	0	0	0	507	482	
4	0	0	0	0	508	482	
5	0	0	0	0	508	482	
6	0	0	0	0	508	481	
7	0	0	0	0	509	482	
8	0	0	0	0	510	482	
9	0	0	0	0	510	482	
10	0	0	0	0	511	482	
11	0	0	0	0	512	482	
12	0	0	0	0	512	482	
13	0	0	0	0	512	482	
14	0	0	0	0	512	482	
15	0	0	0	0	511	482	
0	0	0	0	0	512	482	
1	0	0	0	0	511	482	
2	0	0	0	0	511	482	
3	0	0	0	0	510	482	
4	0	0	0	0	510	482	
5	0	0	0	0	510	482	
6	0	0	0	0	511	482	
7	0	0	0	0	511	482	
8	0	0	0	0	511	482	
9	0	0	0	0	511	482	
10	0	0	0	0	512	482	
11	0	0	0	0	513	481	
12	0	0	0	0	513	481	
13	0	0	0	0	514	481	
14	0	0	0	0	515	481	
15	0	0	0	0	516	482	
0	0	0	0	0	515	482	
1	0	0	0	0	515	482	
2	0	0	0	0	514	482	
3	0	0	0	0	513	481	
4	0	0	0	0	513	482	
5	0	0	0	0	513	482	
6	0	0	0	0	514	482	
7	0	0	0	0	514	482	
8	0	0	0	0	515	481	
9	0	0	0	0	516	481	
10	0	0	0	0	517	482	
11	0	0	0	0	518	482	
12	0	0	0	0	518	481	
13	0	0	0	0	517	481	
14	0	0	0	0	515	482	
15	0	0	0	0	513	482	
0	0	0	0	0	511	482	
1	0	0	0	0	507	482	
2	0	0	0	0	504	481	
3	0	0	0	0	502	482	
4	0	0	0	0	498	482	
5	0	0	0	0	495	481	
6	0	0	0	0	492	482	
7	0	0	0	0	489	482	
8	0	0	0	0	488	482	
9	0	0	0	0	487	482	
10	0	0	0	0	486	482	
11	0	0	0	0	484	481	
12	0	0	0	0	482	481	
13	0	0	0	0	479	482	
14	0	0	0	0	476	481	
15	0	0	0	0	475	481	
0	0	0	0	0	475	481	
1	0	0	0	0	475	481	
2	0	0	0	0	476	482	
3	0	0	0	0	476	482	
4	0	0	0	0	476	482	
5	0	0	0	0	476	482	
6	0	0	0	0	476	481	
7	0	0	0	0	477	482	
8	0	0	0	0	478	482	
9	0	0	0	0	478	481	
10	0	0	0	0	479	482	
11	0	0	0	0	479	481	
12	0	0	0	0	479	482	
13	0	0	0	0	479	481	
14	0	0	0	0	478	481	
15	0	0	0	0	478	481	
0	0	0	0	0	478	481	
1	0	0	0	0	480	482	
2	0	0	0	0	481	481	
3	0	0	0	0	483	481	
4	0	0	0	0	486	481	
5	0	0	0	0	488	481	
6	0	0	0	0	492	482	
7	0	0	0	0	496	481	
8	0	0	0	0	499	482	
9	0	0	0	0	503	481	
10	0	0	0	0	505	481	
11	0	0	0	0	508	481	
12	0	0	0	0	510	481	
13	0	0	0	0	512	481	
14	0	0	0	0	513	481	
15	0	0	0	0	513	481	
0	0	0	0	0	515	481	
1	0	0	0	0	515	481	
2	0	0	0	0	516	481	
3	0	0	0	0	516	481	
4	0	0	0	0	517	481	
5	0	0	0	0	517	481	
6	0	0	0	0	516	481	
7	0	0	0	0	517	481	
8	0	0	0	0	518	481	
9	0	0	0	0	517	481	
10	0	0	0	0	517	481	
11	0	0	0	0	517	481	
12	0	0	0	0	517	481	
13	0	0	0	0	516	481	
14	0	0	0	0	515	481	
15	0	0	0	0	515	481	
0	0	0	0	0	513	481	
1	0	0	0	0	512	481	
2	0	0	0	0	511	481	
3	0	0	0	0	509	481	
4	0	0	0	0	508	481	
5	0	0	0	0	507	481	
6	0	0	0	0	505	481	
7	0	0	0	0	504	481	
8	0	0	0	0	503	481	
9	0	0	0	0	503	481	
10	0	0	0	0	502	481	
11	0	0	0	0	502	481	
12	0	0	0	0	502	481	
13	0	0	0	0	502	481	
14	0	0	0	0	502	481	
15	0	0	0	0	500	481	
0	0	0	0	0	500	481	
1	0	0	0	0	500	481	
2	0	0	0	0	501	481	
3	0	0	0	0	502	481	
4	0	0	0	0	502	481	
5	0	0	0	0	502	481	
6	0	0	0	0	502	481	
7	0	0	0	0	502	481	
8	0	0	0	0	502	481	
9	0	0	0	0	501	481	
10	0	0	0	0	501	481	
11	0	0	0	0	502	481	
12	0	0	0	0	502	481	
13	0	0	0	0	504	481	
14	0	0	0	0	504	481	
15	0	0	0	0	505	481	
0	0	0	0	0	506	481	
1	0	0	0	0	507	481	
2	0	0	0	0	507	481	
3	0	0	0	0	507	481	
4	0	0	0	0	507	481	
5	0	0	0	0	507	481	
6	0	0	0	0	506	481	
7	0	0	0	0	507	481	
8	0	0	0	0	506	481	
9	0	0	0	0	506	481	
10	0	0	0	0	507	481	
11	0	0	0	0	507	481	
12	0	0	0	0	508	481	
13	0	0	0	0	508	481	
14	0	0	0	0	509	481	
15	0	0	0	0	510	481	
0	0	0	0	0	510	481	
1	0	0	0	0	511	481	
2	0	0	0	0	511	481	
3	0	0	0	0	511	481	
4	0	0	0	0	512	481	
5	0	0	0	0	511	481	
6	0	0	0	0	511	481	
7	0	0	0	0	510	481	
8	0	0	0	0	510	481	
9	0	0	0	0	510	481	
10	0	0	0	0	510	481	
11	0	0	0	0	512	481	
12	0	0	0	0	512	481	
13	0	0	0	0	512	481	
14	0	0	0	0	513	481	
15	0	0	0	0	513	481	
0	0	0	0	0	514	481	
1	0	0	0	0	515	481	
2	0	0	0	0	515	481	
3	0	0	0	0	515	481	
4	0	0	0	0	514	481	
5	0	0	0	0	513	481	
6	0	0	0	0	512	481	
7	0	0	0	0	512	481	
8	0	0	0	0	512	481	
9	0	0	0	0	511	481	
10	0	0	0	0	511	481	
11	0	0	0	0	510	481	
12	0	0	0	0	509	481	
13	0	0	0	0	509	481	
14	0	0	0	0	510	481	
15	0	0	0	0	510	481	
0	0	0	0	0	510	481	
1	0	0	0	0	511	481	
2	0	0	0	0	512	481	
3	0	0	0	0	512	481	
4	0	0	0	0	512	481	
5	0	0	0	0	512	481	
6	0	0	0	0	513	481	
7	0	0	0	0	513	481	
8	0	0	0	0	512	481	
9	0	0	0	0	513	481	
10	0	0	0	0	512	481	
11	0	0	0	0	511	481	
12	0	0	0	0	511	481	
13	0	0	0	0	511	481	
14	0	0	0	0	511	481	
15	0	0	0	0	512	481	
0	0	0	0	0	512	481	
1	0	0	0	0	513	481	
2	0	0	0	0	514	481	
3	0	0	0	0	514	481	
4	0	0	0	0	513	481	
5	0	0	0	0	513	481	
6	0	0	0	0	512	481	
7	0	0	0	0	512	481	
8	0	0	0	0	511	481	
9	0	0	0	0	510	481	
10	0	0	0	0	509	481	
11	0	0	0	0	508	481	
12	0	0	0	0	508	481	
13	0	0	0	0	508	481	
14	0	0	0	0	507	481	
15	0	0	0	0	507	481	
0	0	0	0	0	507	481	
1	0	0	0	0	507	481	
2	0	0	0	0	508	481	
3	0	0	0	0	507	481	
4	0	0	0	0	507	481	
5	0	0	0	0	505	481	
6	0	0	0	0	505	481	
7	0	0	0	0	504	481	
8	0	0	0	0	505	481	
9	0	0	0	0	504	481	
10	0	0	0	0	504	481	
11	0	0	0	0	502	481	
12	0	0	0	0	503	481	
13	0	0	0	0	502	481	
14	0	0	0	0	503	481	
15	0	0	0	0	503	481	
0	0	0	0	0	503	481	
1	0	0	0	0	504	481	
2	0	0	0	0	503	481	
3	0	0	0	0	504	481	
4	0	0	0	0	504	481	
5	0	0	0	0	504	481	
6	0	0	0	0	504	481	
7	0	0	0	0	504	481	
8	0	0	0	0	503	481	
9	0	0	0	0	503	481	
10	0	0	0	0	501	481	
11	0	0	0	0	501	481	
12	0	0	0	0	500	481	
13	0	0	0	0	500	481	
14	0	0	0	0	500	481	
15	0	0	0	0	500	481	
0	0	0	0	0	500	481	
1	0	0	0	0	501	481	
2	0	0	0	0	501	481	
3	0	0	0	0	501	481	
4	0	0	0	0	501	481	
5	0	0	0	0	501	481	
6	0	0	0	0	502	481	
7	0	0	0	0	502	481	
8	0	0	0	0	502	481	
9	0	0	0	0	502	481	
10	0	0	0	0	500	481	
11	0	0	0	0	499	481	
12	0	0	0	0	499	481	
13	0	0	0	0	498	481	
14	0	0	0	0	498	481	
15	0	0	0	0	498	481	
0	0	0	0	0	498	481	
1	0	0	0	0	499	481	
2	0	0	0	0	499	481	
3	0	0	0	0	499	480	
4	0	0	0	0	500	481	
5	0	0	0	0	500	481	
6	0	0	0	0	499	480	
7	0	0	0	0	499	481	
8	0	0	0	0	499	480	
9	0	0	0	0	499	481	
10	0	0	0	0	498	481	
11	0	0	0	0	497	480	
12	0	0	0	0	497	480	
13	0	0	0	0	496	480	
14	0	0	0	0	496	481	
15	0	0	0	0	495	481	
0	0	0	0	0	495	481	
1	0	0	0	0	496	481	
2	0	0	0	0	496	480	
3	0	0	0	0	497	481	
4	0	0	0	0	497	480	
5	0	0	0	0	498	481	
6	0	0	0	0	498	480	
7	0	0	0	0	497	481	
8	0	0	0	0	498	481	
9	0	0	0	0	498	480	
10	0	0	0	0	497	480	
11	0	0	0	0	497	481	
12	0	0	0	0	496	480	
13	0	0	0	0	496	481	
14	0	0	0	0	496	481	
15	0	0	0	0	496	480	
0	0	0	0	0	498	481	
1	0	0	0	0	498	480	
2	0	0	0	0	499	481	
3	0	0	0	0	499	480	
4	0	0	0	0	500	480	
5	0	0	0	0	503	480	
6	0	0	0	0	503	480	
7	0	0	0	0	503	480	
8	0	0	0	0	503	480	
9	0	0	0	0	504	481	
10	0	0	0	0	504	480	
11	0	0	0	0	504	480	
12	0	0	0	0	504	481	
13	0	0	0	0	504	480	
14	0	0	0	0	504	480	
15	0	0	0	0	505	480	
0	0	0	0	0	506	480	
1	0	0	0	0	507	481	
2	0	0	0	0	506	480	
3	0	0	0	0	507	480	
4	0	0	0	0	507	480	
5	0	0	0	0	508	480	
6	0	0	0	0	510	480	
7	0	0	0	0	511	480	
8	0	0	0	0	512	480	
9	0	0	0	0	512	480	
10	0	0	0	0	513	480	
11	0	0	0	0	514	480	
12	0	0	0	0	514	480	
13	0	0	0	0	514	480	
14	0	0	0	0	515	480	
15	0	0	0	0	515	480	
0	0	0	0	0	515	481	
1	0	0	0	0	515	480	
2	0	0	0	0	516	480	
3	0	0	0	0	517	480	
4	0	0	0	0	518	480	
5	0	0	0	0	520	480	
6	0	0	0	0	522	480	
7	0	0	0	0	524	480	
8	0	0	0	0	524	480	
9	0	0	0	0	525	480	
10	0	0	0	0	526	480	
11	0	0	0	0	527	480	
12	0	0	0	0	527	480	
13	0	0	0	0	527	480	
14	0	0	0	0	527	480	
15	0	0	0	0	527	480	
0	0	0	0	0	527	480	
1	0	0	0	0	526	480	
2	0	0	0	0	527	480	
3	0	0	0	0	527	480	
4	0	0	0	0	528	480	
5	0	0	0	0	528	480	
6	0	0	0	0	528	480	
7	0	0	0	0	530	480	
8	0	0	0	0	531	480	
9	0	0	0	0	532	480	
10	0	0	0	0	531	480	
11	0	0	0	0	531	480	
12	0	0	0	0	530	480	
13	0	0	0	0	529	480	
14	0	0	0	0	530	480	
15	0	0	0	0	530	480	
0	0	0	0	0	529	480	
1	0	0	0	0	529	480	
2	0	0	0	0	529	480	
3	0	0	0	0	529	480	
4	0	0	0	0	529	480	
5	0	0	0	0	529	480	
6	0	0	0	0	529	480	
7	0	0	0	0	529	480	
8	0	0	0	0	530	480	
9	0	0	0	0	530	480	
10	0	0	0	0	530	480	
11	0	0	0	0	531	480	
12	0	0	0	0	530	480	
13	0	0	0	0	530	480	
14	0	0	0	0	529	480	
15	0	0	0	0	529	480	
0	0	0	0	0	528	480	
1	0	0	0	0	528	480	
2	0	0	0	0	528	480	
3	0	0	0	0	528	480	
4	0	0	0	0	527	480	
5	0	0	0	0	528	480	
6	0	0	0	0	528	480	
7	0	0	0	0	528	480	
8	0	0	0	0	529	480	
9	0	0	0	0	530	480	
10	0	0	0	0	530	480	
11	0	0	0	0	529	480	
12	0	0	0	0	530	480	
13	0	0	0	0	530	480	
14	0	0	0	0	529	480	
15	0	0	0	0	528	480	
0	0	0	0	0	527	480	
1	0	0	0	0	527	480	
2	0	0	0	0	526	480	
3	0	0	0	0	526	480	
4	0	0	0	0	526	480	
5	0	0	0	0	526	480	
6	0	0	0	0	526	480	
7	0	0	0	0	526	480	
8	0	0	0	0	527	480	
9	0	0	0	0	527	480	
10	0	0	0	0	528	480	
11	0	0	0	0	528	480	
12	0	0	0	0	528	480	
13	0	0	0	0	528	480	
14	0	0	0	0	527	480	
15	0	0	0	0	526	480	
0	0	0	0	0	525	480	
1	0	0	0	0	525	480	
2	0	0	0	0	524	480	
3	0	0	0	0	523	480	
4	0	0	0	0	523	480	
5	0	0	0	0	522	480	
6	0	0	0	0	521	480	
7	0	0	0	0	522	480	
8	0	0	0	0	522	480	
9	0	0	0	0	523	480	
10	0	0	0	0	523	480	
11	0	0	0	0	523	480	
12	0	0	0	0	523	480	
13	0	0	0	0	523	480	
14	0	0	0	0	522	480	
15	0	0	0	0	522	480	
0	0	0	0	0	521	480	
1	0	0	0	0	520	480	
2	0	0	0	0	520	480	
3	0	0	0	0	519	480	
4	0	0	0	0	519	480	
5	0	0	0	0	519	480	
6	0	0	0	0	518	480	
7	0	0	0	0	518	480	
8	0	0	0	0	518	480	
9	0	0	0	0	518	480	
10	0	0	0	0	518	480	
11	0	0	0	0	518	480	
12	0	0	0	0	519	480	
13	0	0	0	0	519	480	
14	0	0	0	0	519	480	
15	0	0	0	0	519	480	
0	0	0	0	0	519	480	
1	0	0	0	0	519	480	
2	0	0	0	0	518	480	
3	0	0	0	0	518	480	
4	0	0	0	0	518	480	
5	0	0	0	0	518	480	
6	0	0	0	0	518	480	
7	0	0	0	0	518	480	
8	0	0	0	0	518	480	
9	0	0	0	0	518	480	
10	0	0	0	0	518	480	
11	0	0	0	0	518	480	
12	0	0	0	0	518	480	
13	0	0	0	0	519	480	
14	0	0	0	0	518	480	
15	0	0	0	0	518	480	
0	0	0	0	0	518	480	
1	0	0	0	0	518	480	
2	0	0	0	0	517	480	
3	0	0	0	0	517	480	
4	0	0	0	0	516	480	
5	0	0	0	0	516	480	
6	0	0	0	0	515	480	
7	0	0	0	0	515	480	
8	0	0	0	0	515	480	
9	0	0	0	0	514	480	
10	0	0	0	0	514	480	
11	0	0	0	0	514	480	
12	0	0	0	0	515	480	
13	0	0	0	0	515	480	
14	0	0	0	0	514	480	
15	0	0	0	0	513	480	
0	0	0	0	0	513	480	
1	0	0	0	0	512	480	
2	0	0	0	0	512	480	
3	0	0	0	0	511	480	
4	0	0	0	0	511	480	
5	0	0	0	0	510	480	
6	0	0	0	0	510	480	
7	0	0	0	0	509	480	
8	0	0	0	0	508	480	
9	0	0	0	0	507	480	
10	0	0	0	0	507	480	
11	0	0	0	0	508	480	
12	0	0	0	0	509	480	
13	0	0	0	0	509	480	
14	0	0	0	0	510	480	
15	0	0	0	0	510	480	
0	0	0	0	0	511	480	
1	0	0	0	0	510	480	
2	0	0	0	0	510	480	
3	0	0	0	0	509	480	
4	0	0	0	0	508	480	
5	0	0	0	0	508	480	
6	0	0	0	0	508	480	
7	0	0	0	0	508	480	
8	0	0	0	0	508	480	
9	0	0	0	0	508	480	
10	0	0	0	0	508	480	
11	0	0	0	0	508	480	
12	0	0	0	0	508	480	
13	0	0	0	0	508	480	
14	0	0	0	0	508	480	
15	0	0	0	0	509	480	
0	0	0	0	0	509	480	
1	0	0	0	0	509	480	
2	0	0	0	0	508	480	
3	0	0	0	0	508	480	
4	0	0	0	0	508	480	
5	0	0	0	0	507	480	
6	0	0	0	0	507	480	
7	0	0	0	0	506	480	
8	0	0	0	0	505	480	
9	0	0	0	0	505	480	
10	0	0	0	0	504	480	
11	0	0	0	0	504	480	
12	0	0	0	0	505	480	
13	0	0	0	0	504	479	
14	0	0	0	0	505	480	
15	0	0	0	0	505	480	
0	0	0	0	0	506	480	
1	0	0	0	0	505	480	
2	0	0	0	0	505	480	
3	0	0	0	0	504	480	
4	0	0	0	0	504	480	
5	0	0	0	0	503	480	
6	0	0	0	0	503	480	
7	0	0	0	0	501	480	
8	0	0	0	0	502	480	
9	0	0	0	0	503	480	
10	0	0	0	0	504	480	
11	0	0	0	0	504	480	
12	0	0	0	0	505	480	
13	0	0	0	0	505	480	
14	0	0	0	0	505	480	
15	0	0	0	0	505	480	
0	0	0	0	0	506	480	
1	0	0	0	0	505	479	
2	0	0	0	0	506	480	
3	0	0	0	0	506	480	
4	0	0	0	0	505	480	
5	0	0	0	0	505	480	
6	0	0	0	0	504	480	
7	0	0	0	0	504	480	
8	0	0	0	0	504	479	
9	0	0	0	0	504	480	
10	0	0	0	0	504	480	
11	0	0	0	0	504	479	
12	0	0	0	0	504	480	
13	0	0	0	0	504	479	
14	0	0	0	0	504	480	
15	0	0	0	0	504	480	
0	0	0	0	0	505	480	
1	0	0	0	0	505	480	
2	0	0	0	0	505	480	
3	0	0	0	0	506	480	
4	0	0	0	0	506	479	
5	0	0	0	0	506	479	
6	0	0	0	0	507	480	
7	0	0	0	0	507	480	
8	0	0	0	0	507	480	
9	0	0	0	0	507	480	
10	0	0	0	0	505	479	
11	0	0	0	0	505	480	
12	0	0	0	0	505	480	
13	0	0	0	0	505	480	
14	0	0	0	0	505	479	
15	0	0	0	0	507	479	
0	0	0	0	0	507	480	
1	0	0	0	0	507	479	
2	0	0	0	0	507	479	
3	0	0	0	0	507	479	
4	0	0	0	0	507	479	
5	0	0	0	0	507	479	
6	0	0	0	0	508	480	
7	0	0	0	0	508	480	
8	0	0	0	0	508	480	
9	0	0	0	0	507	479	
10	0	0	0	0	508	480	
11	0	0	0	0	508	480	
12	0	0	0	0	507	479	
13	0	0	0	0	507	479	
14	0	0	0	0	508	479	
15	0	0	0	0	508	480	
0	0	0	0	0	509	479	
1	0	0	0	0	510	479	
2	0	0	0	0	510	479	
3	0	0	0	0	510	479	
4	0	0	0	0	510	479	
5	0	0	0	0	510	479	
6	0	0	0	0	509	479	
7	0	0	0	0	508	479	
8	0	0	0	0	508	479	
9	0	0	0	0	507	479	
10	0	0	0	0	506	480	
11	0	0	0	0	507	479	
12	0	0	0	0	507	479	
13	0	0	0	0	508	479	
14	0	0	0	0	508	480	
15	0	0	0	0	509	479	
0	0	0	0	0	509	479	
1	0	0	0	0	510	479	
2	0	0	0	0	510	479	
3	0	0	0	0	510	479	
4	0	0	0	0	510	479	
5	0	0	0	0	509	479	
6	0	0	0	0	509	479	
7	0	0	0	0	508	479	
8	0	0	0	0	508	480	
9	0	0	0	0	507	479	
10	0	0	0	0	507	479	
11	0	0	0	0	506	479	
12	0	0	0	0	505	479	
13	0	0	0	0	506	479	
14	0	0	0	0	506	479	
15	0	0	0	0	507	479	
0	0	0	0	0	508	479	
1	0	0	0	0	509	479	
2	0	0	0	0	510	479	
3	0	0	0	0	510	479	
4	0	0	0	0	510	479	
5	0	0	0	0	511	479	
6	0	0	0	0	510	479	
7	0	0	0	0	509	480	
8	0	0	0	0	508	479	
9	0	0	0	0	507	479	
10	0	0	0	0	507	479	
11	0	0	0	0	507	479	
12	0	0	0	0	507	479	
13	0	0	0	0	507	479	
14	0	0	0	0	508	479	
15	0	0	0	0	508	479	
0	0	0	0	0	509	479	
1	0	0	0	0	510	479	
2	0	0	0	0	511	479	
3	0	0	0	0	511	479	
4	0	0	0	0	512	479	
5	0	0	0	0	513	479	
6	0	0	0	0	512	479	
7	0	0	0	0	512	479	
8	0	0	0	0	512	479	
9	0	0	0	0	512	479	
10	0	0	0	0	512	479	
11	0	0	0	0	512	479	
12	0	0	0	0	511	479	
13	0	0	0	0	512	479	
14	0	0	0	0	512	479	
15	0	0	0	0	512	479	
0	0	0	0	0	512	479	
1	0	0	0	0	512	479	
2	0	0	0	0	513	479	
3	0	0	0	0	514	479	
4	0	0	0	0	515	479	
5	0	0	0	0	515	479	
6	0	0	0	0	515	479	
7	0	0	0	0	514	479	
8	0	0	0	0	514	479	
9	0	0	0	0	513	479	
10	0	0	0	0	513	479	
11	0	0	0	0	512	479	
12	0	0	0	0	512	479	
13	0	0	0	0	511	479	
14	0	0	0	0	512	479	
15	0	0	0	0	512	479	
0	0	0	0	0	512	479	
1	0	0	0	0	512	479	
2	0	0	0	0	512	479	
3	0	0	0	0	513	479	
4	0	0	0	0	513	479	
5	0	0	0	0	514	479	
6	0	0	0	0	514	479	
7	0	0	0	0	514	479	
8	0	0	0	0	514	479	
9	0	0	0	0	514	479	
10	0	0	0	0	513	479	
11	0	0	0	0	511	479	
12	0	0	0	0	512	479	
13	0	0	0	0	511	479	
14	0	0	0	0	512	479	
15	0	0	0	0	511	479	
0	0	0	0	0	510	479	
1	0	0	0	0	511	479	
2	0	0	0	0	511	479	
3	0	0	0	0	512	479	
4	0	0	0	0	512	479	
5	0	0	0	0	512	479	
6	0	0	0	0	512	479	
7	0	0	0	0	512	479	
8	0	0	0	0	512	479	
9	0	0	0	0	511	479	
10	0	0	0	0	511	479	
11	0	0	0	0	510	479	
12	0	0	0	0	510	479	
13	0	0	0	0	510	479	
14	0	0	0	0	510	479	
15	0	0	0	0	510	479	
0	0	0	0	0	510	479	
1	0	0	0	0	510	479	
2	0	0	0	0	511	479	
3	0	0	0	0	512	479	
4	0	0	0	0	512	479	
5	0	0	0	0	512	479	
6	0	0	0	0	513	479	
7	0	0	0	0	514	479	
8	0	0	0	0	513	479	
9	0	0	0	0	513	479	
10	0	0	0	0	513	479	
11	0	0	0	0	512	479	
12	0	0	0	0	512	479	
13	0	0	0	0	512	479	
14	0	0	0	0	512	479	
15	0	0	0	0	511	479	
0	0	0	0	0	511	479	
1	0	0	0	0	512	479	
2	0	0	0	0	513	479	
3	0	0	0	0	513	479	
4	0	0	0	0	514	479	
5	0	0	0	0	515	479	
6	0	0	0	0	516	479	
7	0	0	0	0	517	479	
8	0	0	0	0	517	479	
9	0	0	0	0	517	479	
10	0	0	0	0	517	479	
11	0	0	0	0	518	479	
12	0	0	0	0	518	479	
13	0	0	0	0	518	479	
14	0	0	0	0	518	479	
15	0	0	0	0	518	479	
0	0	0	0	0	519	479	
1	0	0	0	0	519	479	
2	0	0	0	0	519	479	
3	0	0	0	0	519	479	
4	0	0	0	0	520	479	
5	0	0	0	0	521	479	
6	0	0	0	0	522	479	
7	0	0	0	0	523	479	
8	0	0	0	0	524	479	
9	0	0	0	0	524	479	
10	0	0	0	0	524	479	
11	0	0	0	0	524	479	
12	0	0	0	0	523	479	
13	0	0	0	0	523	479	
14	0	0	0	0	521	479	
15	0	0	0	0	520	479	
0	0	0	0	0	519	479	
1	0	0	0	0	519	479	
2	0	0	0	0	520	479	
3	0	0	0	0	520	479	
4	0	0	0	0	521	479	
5	0	0	0	0	521	479	
6	0	0	0	0	521	479	
7	0	0	0	0	521	479	
8	0	0	0	0	521	479	
9	0	0	0	0	523	479	
10	0	0	0	0	523	479	
11	0	0	0	0	523	479	
12	0	0	0	0	522	479	
13	0	0	0	0	521	479	
14	0	0	0	0	521	479	
15	0	0	0	0	521	479	
0	0	0	0	0	519	479	
1	0	0	0	0	519	479	
2	0	0	0	0	519	479	
3	0	0	0	0	520	479	
4	0	0	0	0	521	479	
5	0	0	0	0	522	479	
6	0	0	0	0	524	479	
7	0	0	0	0	524	478	
8	0	0	0	0	525	479	
9	0	0	0	0	525	478	
10	0	0	0	0	525	479	
11	0	0	0	0	524	479	
12	0	0	0	0	524	478	
13	0	0	0	0	524	479	
14	0	0	0	0	524	479	
15	0	0	0	0	524	479	
0	0	0	0	0	523	479	
1	0	0	0	0	521	478	
2	0	0	0	0	521	479	
3	0	0	0	0	522	479	
4	0	0	0	0	521	479	
5	0	0	0	0	521	478	
6	0	0	0	0	522	478	
7	0	0	0	0	523	478	
8	0	0	0	0	523	478	
9	0	0	0	0	523	479	
10	0	0	0	0	522	479	
11	0	0	0	0	523	478	
12	0	0	0	0	524	479	
13	0	0	0	0	523	478	
14	0	0	0	0	522	479	
15	0	0	0	0	521	479	
0	0	0	0	0	520	479	
1	0	0	0	0	519	479	
2	0	0	0	0	519	479	
3	0	0	0	0	519	479	
4	0	0	0	0	519	479	
5	0	0	0	0	519	478	
6	0	0	0	0	519	478	
7	0	0	0	0	518	479	
8	0	0	0	0	519	479	
9	0	0	0	0	518	479	
10	0	0	0	0	518	478	
11	0	0	0	0	518	479	
12	0	0	0	0	516	478	
13	0	0	0	0	516	479	
14	0	0	0	0	515	479	
15	0	0	0	0	515	478	
0	0	0	0	0	515	479	
1	0	0	0	0	515	479	
2	0	0	0	0	514	479	
3	0	0	0	0	514	478	
4	0	0	0	0	514	478	
5	0	0	0	0	513	479	
6	0	0	0	0	513	479	
7	0	0	0	0	514	478	
8	0	0	0	0	514	479	
9	0	0	0	0	513	478	
10	0	0	0	0	514	479	
11	0	0	0	0	513	478	
12	0	0	0	0	513	478	
13	0	0	0	0	512	478	
14	0	0	0	0	512	478	
15	0	0	0	0	512	479	
0	0	0	0	0	511	478	
1	0	0	0	0	510	478	
2	0	0	0	0	509	479	
3	0	0	0	0	508	478	
4	0	0	0	0	507	479	
5	0	0	0	0	507	479	
6	0	0	0	0	507	479	
7	0	0	0	0	507	478	
8	0	0	0	0	507	478	
9	0	0	0	0	508	479	
10	0	0	0	0	508	478	
11	0	0	0	0	509	478	
12	0	0	0	0	510	478	
13	0	0	0	0	510	478	
14	0	0	0	0	510	479	
15	0	0	0	0	509	478	
0	0	0	0	0	509	478	
1	0	0	0	0	508	479	
2	0	0	0	0	508	478	
3	0	0	0	0	508	478	
4	0	0	0	0	507	478	
5	0	0	0	0	508	479	
6	0	0	0	0	508	478	
7	0	0	0	0	509	478	
8	0	0	0	0	509	478	
9	0	0	0	0	511	478	
10	0	0	0	0	512	478	
11	0	0	0	0	513	478	
12	0	0	0	0	514	478	
13	0	0	0	0	516	479	
14	0	0	0	0	517	478	
15	0	0	0	0	518	478	
0	0	0	0	0	519	478	
1	0	0	0	0	518	478	
2	0	0	0	0	518	479	
3	0	0	0	0	518	478	
4	0	0	0	0	519	479	
5	0	0	0	0	519	478	
6	0	0	0	0	519	478	
7	0	0	0	0	519	479	
8	0	0	0	0	518	478	
9	0	0	0	0	518	478	
10	0	0	0	0	518	478	
11	0	0	0	0	518	478	
12	0	0	0	0	518	479	
13	0	0	0	0	518	478	
14	0	0	0	0	518	478	
15	0	0	0	0	518	478	
0	0	0	0	0	517	478	
1	0	0	0	0	518	478	
2	0	0	0	0	518	478	
3	0	0	0	0	517	478	
4	0	0	0	0	517	478	
5	0	0	0	0	517	478	
6	0	0	0	0	518	479	
7	0	0	0	0	518	478	
8	0	0	0	0	518	478	
9	0	0	0	0	518	478	
10	0	0	0	0	518	478	
11	0	0	0	0	519	478	
12	0	0	0	0	520	478	
13	0	0	0	0	522	478	
14	0	0	0	0	523	478	
15	0	0	0	0	524	478	
0	0	0	0	0	524	478	
1	0	0	0	0	522	478	
2	0	0	0	0	522	478	
3	0	0	0	0	522	478	
4	0	0	0	0	521	478	
5	0	0	0	0	523	478	
6	0	0	0	0	522	478	
7	0	0	0	0	523	478	
8	0	0	0	0	523	478	
9	0	0	0	0	522	478	
10	0	0	0	0	523	478	
11	0	0	0	0	522	478	
12	0	0	0	0	522	478	
13	0	0	0	0	523	478	
14	0	0	0	0	522	478	
15	0	0	0	0	523	478	
0	0	0	0	0	523	478	
1	0	0	0	0	523	478	
2	0	0	0	0	523	478	
3	0	0	0	0	522	478	
4	0	0	0	0	522	478	
5	0	0	0	0	521	478	
6	0	0	0	0	521	478	
7	0	0	0	0	520	478	
8	0	0	0	0	519	478	
9	0	0	0	0	519	478	
10	0	0	0	0	519	478	
11	0	0	0	0	519	478	
12	0	0	0	0	519	478	
13	0	0	0	0	519	478	
14	0	0	0	0	519	478	
15	0	0	0	0	519	478	
0	0	0	0	0	519	478	
1	0	0	0	0	519	478	
2	0	0	0	0	519	478	
3	0	0	0	0	519	479	
4	0	0	0	0	518	478	
5	0	0	0	0	517	478	
6	0	0	0	0	517	478	
7	0	0	0	0	515	478	
8	0	0	0	0	515	479	
9	0	0	0	0	514	478	
10	0	0	0	0	514	478	
11	0	0	0	0	515	478	
12	0	0	0	0	515	478	
13	0	0	0	0	516	478	
14	0	0	0	0	516	478	
15	0	0	0	0	518	478	
0	0	0	0	0	518	478	
1	0	0	0	0	518	478	
2	0	0	0	0	518	478	
3	0	0	0	0	517	478	
4	0	0	0	0	515	478	
5	0	0	0	0	515	478	
6	0	0	0	0	514	478	
7	0	0	0	0	514	478	
8	0	0	0	0	513	478	
9	0	0	0	0	513	478	
10	0	0	0	0	513	478	
11	0	0	0	0	512	478	
12	0	0	0	0	512	478	
13	0	0	0	0	512	478	
14	0	0	0	0	512	478	
15	0	0	0	0	513	478	
0	0	0	0	0	513	478	
1	0	0	0	0	513	478	
2	0	0	0	0	512	478	
3	0	0	0	0	512	478	
4	0	0	0	0	511	478	
5	0	0	0	0	511	478	
6	0	0	0	0	511	478	
7	0	0	0	0	511	478	
8	0	0	0	0	511	478	
9	0	0	0	0	511	478	
10	0	0	0	0	511	478	
11	0	0	0	0	512	479	
12	0	0	0	0	511	478	
13	0	0	0	0	511	478	
14	0	0	0	0	512	478	
15	0	0	0	0	512	478	
0	0	0	0	0	513	478	
1	0	0	0	0	512	478	
2	0	0	0	0	513	478	
3	0	0	0	0	514	478	
4	0	0	0	0	515	478	
5	0	0	0	0	516	478	
6	0	0	0	0	515	478	
7	0	0	0	0	515	478	
8	0	0	0	0	514	478	
9	0	0	0	0	513	478	
10	0	0	0	0	512	478	
11	0	0	0	0	509	478	
12	0	0	0	0	507	478	
13	0	0	0	0	505	478	
14	0	0	0	0	504	478	
15	0	0	0	0	502	478	
0	0	0	0	0	500	478	
1	0	0	0	0	497	478	
2	0	0	0	0	495	478	
3	0	0	0	0	493	478	
4	0	0	0	0	492	478	
5	0	0	0	0	491	478	
6	0	0	0	0	489	478	
7	0	0	0	0	486	478	
8	0	0	0	0	483	478	
9	0	0	0	0	481	478	
10	0	0	0	0	479	478	
11	0	0	0	0	478	478	
12	0	0	0	0	478	478	
13	0	0	0	0	479	478	
14	0	0	0	0	480	478	
15	0	0	0	0	482	478	
0	0	0	0	0	483	478	
1	0	0	0	0	485	478	
2	0	0	0	0	486	478	
3	0	0	0	0	488	478	
4	0	0	0	0	489	478	
5	0	0	0	0	490	478	
6	0	0	0	0	489	478	
7	0	0	0	0	489	478	
8	0	0	0	0	487	478	
9	0	0	0	0	487	478	
10	0	0	0	0	487	478	
11	0	0	0	0	487	478	
12	0	0	0	0	488	478	
13	0	0	0	0	491	479	
14	0	0	0	0	493	478	
15	0	0	0	0	495	478	
0	0	0	0	0	498	478	
1	0	0	0	0	502	478	
2	0	0	0	0	504	478	
3	0	0	0	0	507	478	
4	0	0	0	0	510	478	
5	0	0	0	0	513	478	
6	0	0	0	0	514	478	
7	0	0	0	0	515	478	
8	0	0	0	0	516	478	
9	0	0	0	0	517	478	
10	0	0	0	0	518	478	
11	0	0	0	0	518	478	
12	0	0	0	0	519	479	
13	0	0	0	0	520	478	
14	0	0	0	0	522	478	
15	0	0	0	0	523	478	
0	0	0	0	0	523	478	
1	0	0	0	0	523	478	
2	0	0	0	0	523	478	
3	0	0	0	0	523	478	
4	0	0	0	0	522	478	
5	0	0	0	0	521	478	
6	0	0	0	0	520	478	
7	0	0	0	0	519	478	
8	0	0	0	0	517	478	
9	0	0	0	0	515	478	
10	0	0	0	0	514	478	
11	0	0	0	0	512	479	
12	0	0	0	0	510	478	
13	0	0	0	0	508	478	
14	0	0	0	0	507	478	
15	0	0	0	0	506	478	
0	0	0	0	0	506	478	
1	0	0	0	0	505	478	
2	0	0	0	0	505	478	
3	0	0	0	0	505	478	
4	0	0	0	0	505	478	
5	0	0	0	0	506	478	
6	0	0	0	0	505	478	
7	0	0	0	0	504	478	
8	0	0	0	0	503	478	
9	0	0	0	0	502	478	
10	0	0	0	0	502	478	
11	0	0	0	0	501	478	
12	0	0	0	0	500	478	
13	0	0	0	0	500	478	
14	0	0	0	0	499	478	
15	0	0	0	0	499	478	
0	0	0	0	0	500	478	
1	0	0	0	0	501	478	
2	0	0	0	0	503	478	
3	0	0	0	0	504	478	
4	0	0	0	0	504	478	
5	0	0	0	0	503	478	
6	0	0	0	0	503	478	
7	0	0	0	0	503	478	
8	0	0	0	0	503	478	
9	0	0	0	0	504	478	
10	0	0	0	0	504	478	
11	0	0	0	0	503	479	
12	0	0	0	0	502	478	
13	0	0	0	0	502	478	
14	0	0	0	0	501	478	
15	0	0	0	0	501	478	
0	0	0	0	0	502	478	
1	0	0	0	0	503	478	
2	0	0	0	0	503	478	
3	0	0	0	0	504	478	
4	0	0	0	0	505	478	
5	0	0	0	0	506	478	
6	0	0	0	0	507	478	
7	0	0	0	0	507	478	
8	0	0	0	0	508	478	
9	0	0	0	0	508	478	
10	0	0	0	0	507	478	
11	0	0	0	0	507	478	
12	0	0	0	0	506	478	
13	0	0	0	0	506	478	
14	0	0	0	0	506	478	
15	0	0	0	0	506	478	
0	0	0	0	0	506	478	
1	0	0	0	0	506	478	
2	0	0	0	0	507	478	
3	0	0	0	0	507	478	
4	0	0	0	0	508	478	
5	0	0	0	0	508	478	
6	0	0	0	0	508	478	
7	0	0	0	0	508	478	
8	0	0	0	0	507	478	
9	0	0	0	0	507	478	
10	0	0	0	0	507	478	
11	0	0	0	0	507	478	
12	0	0	0	0	507	478	
13	0	0	0	0	505	478	
14	0	0	0	0	504	478	
15	0	0	0	0	504	478	
0	0	0	0	0	503	478	
1	0	0	0	0	503	478	
2	0	0	0	0	502	478	
3	0	0	0	0	503	478	
4	0	0	0	0	504	478	
5	0	0	0	0	504	478	
6	0	0	0	0	504	478	
7	0	0	0	0	505	478	
8	0	0	0	0	507	478	
9	0	0	0	0	506	478	
10	0	0	0	0	507	478	
11	0	0	0	0	507	478	
12	0	0	0	0	506	478	
13	0	0	0	0	504	478	
14	0	0	0	0	503	478	
15	0	0	0	0	502	478	
0	0	0	0	0	501	479	
1	0	0	0	0	501	478	
2	0	0	0	0	500	478	
3	0	0	0	0	499	478	
4	0	0	0	0	499	478	
5	0	0	0	0	500	478	
6	0	0	0	0	501	478	
7	0	0	0	0	502	478	
8	0	0	0	0	502	478	
9	0	0	0	0	503	478	
10	0	0	0	0	503	478	
11	0	0	0	0	502	478	
12	0	0	0	0	502	478	
13	0	0	0	0	500	478	
14	0	0	0	0	499	478	
15	0	0	0	0	499	478	
0	0	0	0	0	499	478	
1	0	0	0	0	498	478	
2	0	0	0	0	499	478	
3	0	0	0	0	499	478	
4	0	0	0	0	500	479	
5	0	0	0	0	500	478	
6	0	0	0	0	501	478	
7	0	0	0	0	502	478	
8	0	0	0	0	502	478	
9	0	0	0	0	502	478	
10	0	0	0	0	502	478	
11	0	0	0	0	502	478	
12	0	0	0	0	502	478	
13	0	0	0	0	501	478	
14	0	0	0	0	500	478	
15	0	0	0	0	500	478	
0	0	0	0	0	499	478	
1	0	0	0	0	498	478	
2	0	0	0	0	498	478	
3	0	0	0	0	498	478	
4	0	0	0	0	498	478	
5	0	0	0	0	497	478	
6	0	0	0	0	497	478	
7	0	0	0	0	497	478	
8	0	0	0	0	498	478	
9	0	0	0	0	498	478	
10	0	0	0	0	499	478	
11	0	0	0	0	498	478	
12	0	0	0	0	499	478	
13	0	0	0	0	499	478	
14	0	0	0	0	499	478	
15	0	0	0	0	499	478	
0	0	0	0	0	499	478	
1	0	0	0	0	498	478	
2	0	0	0	0	498	478	
3	0	0	0	0	498	478	
4	0	0	0	0	498	478	
5	0	0	0	0	499	478	
6	0	0	0	0	500	478	
7	0	0	0	0	501	478	
8	0	0	0	0	502	478	
9	0	0	0	0	502	478	
10	0	0	0	0	502	478	
11	0	0	0	0	502	478	
12	0	0	0	0	502	478	
13	0	0	0	0	502	478	
14	0	0	0	0	501	478	
15	0	0	0	0	499	478	
0	0	0	0	0	499	478	
1	0	0	0	0	499	479	
2	0	0	0	0	499	478	
3	0	0	0	0	498	478	
4	0	0	0	0	498	478	
5	0	0	0	0	498	478	
6	0	0	0	0	499	478	
7	0	0	0	0	500	478	
8	0	0	0	0	502	478	
9	0	0	0	0	502	478	
10	0	0	0	0	503	478	
11	0	0	0	0	503	479	
12	0	0	0	0	502	478	
13	0	0	0	0	501	478	
14	0	0	0	0	500	478	
15	0	0	0	0	500	478	
0	0	0	0	0	499	479	
1	0	0	0	0	499	479	
2	0	0	0	0	498	479	
3	0	0	0	0	497	479	
4	0	0	0	0	497	478	
5	0	0	0	0	497	479	
6	0	0	0	0	498	478	
7	0	0	0	0	499	478	
8	0	0	0	0	499	478	
9	0	0	0	0	500	478	
10	0	0	0	0	500	479	
11	0	0	0	0	500	478	
12	0	0	0	0	501	478	
13	0	0	0	0	501	479	
14	0	0	0	0	500	478	
15	0	0	0	0	502	479	
0	0	0	0	0	502	479	
1	0	0	0	0	503	479	
2	0	0	0	0	502	479	
3	0	0	0	0	502	478	
4	0	0	0	0	502	479	
5	0	0	0	0	503	479	
6	0	0	0	0	502	479	
7	0	0	0	0	503	479	
8	0	0	0	0	504	479	
9	0	0	0	0	504	479	
10	0	0	0	0	505	479	
11	0	0	0	0	506	478	
12	0	0	0	0	507	479	
13	0	0	0	0	507	478	
14	0	0	0	0	508	479	
15	0	0	0	0	508	479	
0	0	0	0	0	507	479	
1	0	0	0	0	508	479	
2	0	0	0	0	508	479	
3	0	0	0	0	508	479	
4	0	0	0	0	508	479	
5	0	0	0	0	508	479	
6	0	0	0	0	508	479	
7	0	0	0	0	508	479	
8	0	0	0	0	509	479	
9	0	0	0	0	511	479	
10	0	0	0	0	513	479	
11	0	0	0	0	514	479	
12	0	0	0	0	515	479	
13	0	0	0	0	518	479	
14	0	0	0	0	518	479	
15	0	0	0	0	519	479	
0	0	0	0	0	520	479	
1	0	0	0	0	520	479	
2	0	0	0	0	521	479	
3	0	0	0	0	521	479	
4	0	0	0	0	521	479	
5	0	0	0	0	521	479	
6	0	0	0	0	521	479	
7	0	0	0	0	521	479	
8	0	0	0	0	521	479	
9	0	0	0	0	523	479	
10	0	0	0	0	523	479	
11	0	0	0	0	525	479	
12	0	0	0	0	527	479	
13	0	0	0	0	528	479	
14	0	0	0	0	529	479	
15	0	0	0	0	530	479	
0	0	0	0	0	531	479	
1	0	0	0	0	532	479	
2	0	0	0	0	533	479	
3	0	0	0	0	534	479	
4	0	0	0	0	533	479	
5	0	0	0	0	533	479	
6	0	0	0	0	534	479	
7	0	0	0	0	536	479	
8	0	0	0	0	537	479	
9	0	0	0	0	537	479	
10	0	0	0	0	538	479	
11	0	0	0	0	539	479	
12	0	0	0	0	540	479	
13	0	0	0	0	539	479	
14	0	0	0	0	540	479	
15	0	0	0	0	540	479	
0	0	0	0	0	540	479	
1	0	0	0	0	540	479	
2	0	0	0	0	539	479	
3	0	0	0	0	539	479	
4	0	0	0	0	537	479	
5	0	0	0	0	537	479	
6	0	0	0	0	536	479	
7	0	0	0	0	536	479	
8	0	0	0	0	536	479	
9	0	0	0	0	536	479	
10	0	0	0	0	537	479	
11	0	0	0	0	539	479	
12	0	0	0	0	540	479	
13	0	0	0	0	540	479	
14	0	0	0	0	540	479	
15	0	0	0	0	540	479	
0	0	0	0	0	540	479	
1	0	0	0	0	539	479	
2	0	0	0	0	537	479	
3	0	0	0	0	537	479	
4	0	0	0	0	537	479	
5	0	0	0	0	537	479	
6	0	0	0	0	537	479	
7	0	0	0	0	538	479	
8	0	0	0	0	538	479	
9	0	0	0	0	538	479	
10	0	0	0	0	538	479	
11	0	0	0	0	539	479	
12	0	0	0	0	539	479	
13	0	0	0	0	539	479	
14	0	0	0	0	539	479	
15	0	0	0	0	539	479	
0	0	0	0	0	540	479	
1	0	0	0	0	539	479	
2	0	0	0	0	539	479	
3	0	0	0	0	538	480	
4	0	0	0	0	537	479	
5	0	0	0	0	537	479	
6	0	0	0	0	536	479	
7	0	0	0	0	536	479	
8	0	0	0	0	536	480	
9	0	0	0	0	536	479	
10	0	0	0	0	536	479	
11	0	0	0	0	535	479	
12	0	0	0	0	535	479	
13	0	0	0	0	536	480	
14	0	0	0	0	536	479	
15	0	0	0	0	536	479	
0	0	0	0	0	536	479	
1	0	0	0	0	535	479	
2	0	0	0	0	536	480	
3	0	0	0	0	535	479	
4	0	0	0	0	534	480	
5	0	0	0	0	533	480	
6	0	0	0	0	532	479	
7	0	0	0	0	531	480	
8	0	0	0	0	530	479	
9	0	0	0	0	530	480	
10	0	0	0	0	529	479	
11	0	0	0	0	529	479	
12	0	0	0	0	529	480	
13	0	0	0	0	529	479	
14	0	0	0	0	529	479	
15	0	0	0	0	530	479	
0	0	0	0	0	529	479	
1	0	0	0	0	530	480	
2	0	0	0	0	529	480	
3	0	0	0	0	528	480	
4	0	0	0	0	527	480	
5	0	0	0	0	525	479	
6	0	0	0	0	525	480	
7	0	0	0	0	524	480	
8	0	0	0	0	522	480	
9	0	0	0	0	521	480	
10	0	0	0	0	521	480	
11	0	0	0	0	520	480	
12	0	0	0	0	521	480	
13	0	0	0	0	521	480	
14	0	0	0	0	521	480	
15	0	0	0	0	521	479	
0	0	0	0	0	521	480	
1	0	0	0	0	521	480	
2	0	0	0	0	523	480	
3	0	0	0	0	523	480	
4	0	0	0	0	523	480	
5	0	0	0	0	521	480	
6	0	0	0	0	520	480	
7	0	0	0	0	519	480	
8	0	0	0	0	519	480	
9	0	0	0	0	519	480	
10	0	0	0	0	519	480	
11	0	0	0	0	519	480	
12	0	0	0	0	518	480	
13	0	0	0	0	519	480	
14	0	0	0	0	519	480	
15	0	0	0	0	520	480	
0	0	0	0	0	521	480	
1	0	0	0	0	521	480	
2	0	0	0	0	521	480	
3	0	0	0	0	520	479	
4	0	0	0	0	520	480	
5	0	0	0	0	519	480	
6	0	0	0	0	519	480	
7	0	0	0	0	518	480	
8	0	0	0	0	516	480	
9	0	0	0	0	515	480	
10	0	0	0	0	513	480	
11	0	0	0	0	512	480	
12	0	0	0	0	512	480	
13	0	0	0	0	512	480	
14	0	0	0	0	512	480	
15	0	0	0	0	512	480	
0	0	0	0	0	512	480	
1	0	0	0	0	513	480	
2	0	0	0	0	513	480	
3	0	0	0	0	515	480	
4	0	0	0	0	514	480	
5	0	0	0	0	513	480	
6	0	0	0	0	513	480	
7	0	0	0	0	513	480	
8	0	0	0	0	513	480	
9	0	0	0	0	512	480	
10	0	0	0	0	511	480	
11	0	0	0	0	510	480	
12	0	0	0	0	510	480	
13	0	0	0	0	510	480	
14	0	0	0	0	511	480	
15	0	0	0	0	512	480	
0	0	0	0	0	512	480	
1	0	0	0	0	512	480	
2	0	0	0	0	513	480	
3	0	0	0	0	513	480	
4	0	0	0	0	513	480	
5	0	0	0	0	513	480	
6	0	0	0	0	513	480	
7	0	0	0	0	513	480	
8	0	0	0	0	512	480	
9	0	0	0	0	512	480	
10	0	0	0	0	511	480	
11	0	0	0	0	511	480	
12	0	0	0	0	510	480	
13	0	0	0	0	509	480	
14	0	0	0	0	509	480	
15	0	0	0	0	509	480	
0	0	0	0	0	510	480	
1	0	0	0	0	511	480	
2	0	0	0	0	511	480	
3	0	0	0	0	512	480	
4	0	0	0	0	512	480	
5	0	0	0	0	512	480	
6	0	0	0	0	512	480	
7	0	0	0	0	511	480	
8	0	0	0	0	511	480	
9	0	0	0	0	511	480	
10	0	0	0	0	510	480	
11	0	0	0	0	508	480	
12	0	0	0	0	507	480	
13	0	0	0	0	508	480	
14	0	0	0	0	507	480	
15	0	0	0	0	507	480	
0	0	0	0	0	508	480	
1	0	0	0	0	508	480	
2	0	0	0	0	508	480	
3	0	0	0	0	508	480	
4	0	0	0	0	508	480	
5	0	0	0	0	509	480	
6	0	0	0	0	509	480	
7	0	0	0	0	509	480	
8	0	0	0	0	509	480	
9	0	0	0	0	508	480	
10	0	0	0	0	508	480	
11	0	0	0	0	507	480	
12	0	0	0	0	507	480	
13	0	0	0	0	506	480	
14	0	0	0	0	505	480	
15	0	0	0	0	507	480	
0	0	0	0	0	507	480	
1	0	0	0	0	507	480	
2	0	0	0	0	508	480	
3	0	0	0	0	508	480	
4	0	0	0	0	509	480	
5	0	0	0	0	509	480	
6	0	0	0	0	509	480	
7	0	0	0	0	510	480	
8	0	0	0	0	509	480	
9	0	0	0	0	508	480	
10	0	0	0	0	508	480	
11	0	0	0	0	507	480	
12	0	0	0	0	506	480	
13	0	0	0	0	506	480	
14	0	0	0	0	506	480	
15	0	0	0	0	507	480	
0	0	0	0	0	507	480	
1	0	0	0	0	507	480	
2	0	0	0	0	507	480	
3	0	0	0	0	508	480	
4	0	0	0	0	508	480	
5	0	0	0	0	508	480	
6	0	0	0	0	508	480	
7	0	0	0	0	508	480	
8	0	0	0	0	508	480	
9	0	0	0	0	508	480	
10	0	0	0	0	509	480	
11	0	0	0	0	508	480	
12	0	0	0	0	508	480	
13	0	0	0	0	507	480	
14	0	0	0	0	506	480	
15	0	0	0	0	506	480	
0	0	0	0	0	506	480	
1	0	0	0	0	506	480	
2	0	0	0	0	507	480	
3	0	0	0	0	507	480	
4	0	0	0	0	507	480	
5	0	0	0	0	508	480	
6	0	0	0	0	507	480	
7	0	0	0	0	507	480	
8	0	0	0	0	507	480	
9	0	0	0	0	506	480	
10	0	0	0	0	505	480	
11	0	0	0	0	505	480	
12	0	0	0	0	505	480	
13	0	0	0	0	504	480	
14	0	0	0	0	504	480	
15	0	0	0	0	504	480	
0	0	0	0	0	503	480	
1	0	0	0	0	503	480	
2	0	0	0	0	503	480	
3	0	0	0	0	503	480	
4	0	0	0	0	504	480	
5	0	0	0	0	504	480	
6	0	0	0	0	505	480	
7	0	0	0	0	504	480	
8	0	0	0	0	505	480	
9	0	0	0	0	505	480	
10	0	0	0	0	505	480	
11	0	0	0	0	505	480	
12	0	0	0	0	505	480	
13	0	0	0	0	504	480	
14	0	0	0	0	503	480	
15	0	0	0	0	502	480	
0	0	0	0	0	502	480	
1	0	0	0	0	502	480	
2	0	0	0	0	502	480	
3	0	0	0	0	502	480	
4	0	0	0	0	502	480	
5	0	0	0	0	503	480	
6	0	0	0	0	504	480	
7	0	0	0	0	504	480	
8	0	0	0	0	504	480	
9	0	0	0	0	504	480	
10	0	0	0	0	504	480	
11	0	0	0	0	503	480	
12	0	0	0	0	502	480	
13	0	0	0	0	501	480	
14	0	0	0	0	500	480	
15	0	0	0	0	500	480	
0	0	0	0	0	499	480	
1	0	0	0	0	499	480	
2	0	0	0	0	499	480	
3	0	0	0	0	499	480	
4	0	0	0	0	500	480	
5	0	0	0	0	500	480	
6	0	0	0	0	501	480	
7	0	0	0	0	500	480	
8	0	0	0	0	500	480	
9	0	0	0	0	500	480	
10	0	0	0	0	499	480	
11	0	0	0	0	499	480	
12	0	0	0	0	498	480	
13	0	0	0	0	497	480	
14	0	0	0	0	496	480	
15	0	0	0	0	496	480	
0	0	0	0	0	496	480	
1	0	0	0	0	496	480	
2	0	0	0	0	496	480	
3	0	0	0	0	496	480	
4	0	0	0	0	496	480	
5	0	0	0	0	496	480	
6	0	0	0	0	497	480	
7	0	0	0	0	497	480	
8	0	0	0	0	498	480	
9	0	0	0	0	499	480	
10	0	0	0	0	499	480	
11	0	0	0	0	499	480	
12	0	0	0	0	499	480	
13	0	0	0	0	499	480	
14	0	0	0	0	497	480	
15	0	0	0	0	497	480	
0	0	0	0	0	496	480	
1	0	0	0	0	496	480	
2	0	0	0	0	497	480	
3	0	0	0	0	496	480	
4	0	0	0	0	497	480	
5	0	0	0	0	497	480	
6	0	0	0	0	497	480	
7	0	0	0	0	498	480	
8	0	0	0	0	499	480	
9	0	0	0	0	499	480	
10	0	0	0	0	499	480	
11	0	0	0	0	499	480	
12	0	0	0	0	499	480	
13	0	0	0	0	499	480	
14	0	0	0	0	499	480	
15	0	0	0	0	499	480	
0	0	0	0	0	498	480	
1	0	0	0	0	499	480	
2	0	0	0	0	498	480	
3	0	0	0	0	498	480	
4	0	0	0	0	497	480	
5	0	0	0	0	497	480	
6	0	0	0	0	497	480	
7	0	0	0	0	497	480	
8	0	0	0	0	499	480	
9	0	0	0	0	499	480	
10	0	0	0	0	500	480	
11	0	0	0	0	500	480	
12	0	0	0	0	500	480	
13	0	0	0	0	500	480	
14	0	0	0	0	501	480	
15	0	0	0	0	501	480	
0	0	0	0	0	502	480	
1	0	0	0	0	502	480	
2	0	0	0	0	501	480	
3	0	0	0	0	501	480	
4	0	0	0	0	501	480	
5	0	0	0	0	500	480	
6	0	0	0	0	501	480	
7	0	0	0	0	502	480	
8	0	0	0	0	504	480	
9	0	0	0	0	504	480	
10	0	0	0	0	506	480	
11	0	0	0	0	506	480	
12	0	0	0	0	506	480	
13	0	0	0	0	506	480	
14	0	0	0	0	506	480	
15	0	0	0	0	506	480	
0	0	0	0	0	505	480	
1	0	0	0	0	504	480	
2	0	0	0	0	504	480	
3	0	0	0	0	504	480	
4	0	0	0	0	504	480	
5	0	0	0	0	504	480	
6	0	0	0	0	504	480	
7	0	0	0	0	503	480	
8	0	0	0	0	503	480	
9	0	0	0	0	503	480	
10	0	0	0	0	503	480	
11	0	0	0	0	503	480	
12	0	0	0	0	503	480	
13	0	0	0	0	504	480	
14	0	0	0	0	504	480	
15	0	0	0	0	504	480	
0	0	0	0	0	504	480	
1	0	0	0	0	503	480	
2	0	0	0	0	503	480	
3	0	0	0	0	502	480	
4	0	0	0	0	501	480	
5	0	0	0	0	501	480	
6	0	0	0	0	500	480	
7	0	0	0	0	500	480	
8	0	0	0	0	501	480	
9	0	0	0	0	500	480	
10	0	0	0	0	502	480	
11	0	0	0	0	503	480	
12	0	0	0	0	503	480	
13	0	0	0	0	503	480	
14	0	0	0	0	503	480	
15	0	0	0	0	503	480	
0	0	0	0	0	503	480	
1	0	0	0	0	503	480	
2	0	0	0	0	503	480	
3	0	0	0	0	504	480	
4	0	0	0	0	503	480	
5	0	0	0	0	503	480	
6	0	0	0	0	504	480	
7	0	0	0	0	504	480	
8	0	0	0	0	504	480	
9	0	0	0	0	505	480	
10	0	0	0	0	507	480	
11	0	0	0	0	507	480	
12	0	0	0	0	508	480	
13	0	0	0	0	510	480	
14	0	0	0	0	510	480	
15	0	0	0	0	510	480	
0	0	0	0	0	510	480	
1	0	0	0	0	510	480	
2	0	0	0	0	510	480	
3	0	0	0	0	511	480	
4	0	0	0	0	511	480	
5	0	0	0	0	511	480	
6	0	0	0	0	511	480	
7	0	0	0	0	511	480	
8	0	0	0	0	511	480	
9	0	0	0	0	512	480	
10	0	0	0	0	511	480	
11	0	0	0	0	511	480	
12	0	0	0	0	511	480	
13	0	0	0	0	511	480	
14	0	0	0	0	510	480	
15	0	0	0	0	510	480	
0	0	0	0	0	510	480	
1	0	0	0	0	510	480	
2	0	0	0	0	509	480	
3	0	0	0	0	508	480	
4	0	0	0	0	507	480	
5	0	0	0	0	506	480	
6	0	0	0	0	505	480	
7	0	0	0	0	504	480	
8	0	0	0	0	504	480	
9	0	0	0	0	504	480	
10	0	0	0	0	504	480	
11	0	0	0	0	504	480	
12	0	0	0	0	505	480	
13	0	0	0	0	506	480	
14	0	0	0	0	506	480	
15	0	0	0	0	506	480	
0	0	0	0	0	506	480	
1	0	0	0	0	506	480	
2	0	0	0	0	506	480	
3	0	0	0	0	506	480	
4	0	0	0	0	506	480	
5	0	0	0	0	505	480	
6	0	0	0	0	505	480	
7	0	0	0	0	505	480	
8	0	0	0	0	504	480	
9	0	0	0	0	505	480	
10	0	0	0	0	505	480	
11	0	0	0	0	507	480	
12	0	0	0	0	507	480	
13	0	0	0	0	508	480	
14	0	0	0	0	508	480	
15	0	0	0	0	508	480	
0	0	0	0	0	508	480	
1	0	0	0	0	508	480	
2	0	0	0	0	508	480	
3	0	0	0	0	508	480	
4	0	0	0	0	507	480	
5	0	0	0	0	507	480	
6	0	0	0	0	506	480	
7	0	0	0	0	505	480	
8	0	0	0	0	504	480	
9	0	0	0	0	504	480	
10	0	0	0	0	505	480	
11	0	0	0	0	505	480	
12	0	0	0	0	506	480	
13	0	0	0	0	507	480	
14	0	0	0	0	508	480	
15	0	0	0	0	509	480	
0	0	0	0	0	510	480	
1	0	0	0	0	511	480	
2	0	0	0	0	511	480	
3	0	0	0	0	511	480	
4	0	0	0	0	511	480	
5	0	0	0	0	511	480	
6	0	0	0	0	511	480	
7	0	0	0	0	511	480	
8	0	0	0	0	510	480	
9	0	0	0	0	510	480	
10	0	0	0	0	509	480	
11	0	0	0	0	509	480	
12	0	0	0	0	509	480	
13	0	0	0	0	509	480	
14	0	0	0	0	509	480	
15	0	0	0	0	508	480	
0	0	0	0	0	508	480	
1	0	0	0	0	508	480	
2	0	0	0	0	508	480	
3	0	0	0	0	508	480	
4	0	0	0	0	507	480	
5	0	0	0	0	507	480	
6	0	0	0	0	507	480	
7	0	0	0	0	506	480	
8	0	0	0	0	506	480	
9	0	0	0	0	505	480	
10	0	0	0	0	505	480	
11	0	0	0	0	505	480	
12	0	0	0	0	505	480	
13	0	0	0	0	505	480	
14	0	0	0	0	506	480	
15	0	0	0	0	507	480	
0	0	0	0	0	508	480	
1	0	0	0	0	508	480	
2	0	0	0	0	508	480	
3	0	0	0	0	508	480	
4	0	0	0	0	507	480	
5	0	0	0	0	506	480	
6	0	0	0	0	505	480	
7	0	0	0	0	504	480	
8	0	0	0	0	504	480	
9	0	0	0	0	504	480	
10	0	0	0	0	504	480	
11	0	0	0	0	504	480	
12	0	0	0	0	504	480	
13	0	0	0	0	504	480	
14	0	0	0	0	504	480	
15	0	0	0	0	504	480	
0	0	0	0	0	504	480	
1	0	0	0	0	504	480	
2	0	0	0	0	504	480	
3	0	0	0	0	504	480	
4	0	0	0	0	504	480	
5	0	0	0	0	503	480	
6	0	0	0	0	501	480	
7	0	0	0	0	500	480	
8	0	0	0	0	500	480	
9	0	0	0	0	500	480	
10	0	0	0	0	500	480	
11	0	0	0	0	500	480	
12	0	0	0	0	499	480	
13	0	0	0	0	500	480	
14	0	0	0	0	500	480	
15	0	0	0	0	502	480	
0	0	0	0	0	502	480	
1	0	0	0	0	503	480	
2	0	0	0	0	504	480	
3	0	0	0	0	505	480	
4	0	0	0	0	505	480	
5	0	0	0	0	506	480	
6	0	0	0	0	506	480	
7	0	0	0	0	507	480	
8	0	0	0	0	508	480	
9	0	0	0	0	508	480	
10	0	0	0	0	507	480	
11	0	0	0	0	507	480	
12	0	0	0	0	508	480	
13	0	0	0	0	508	480	
14	0	0	0	0	508	480	
15	0	0	0	0	510	480	
0	0	0	0	0	511	480	
1	0	0	0	0	512	480	
2	0	0	0	0	513	480	
3	0	0	0	0	513	480	
4	0	0	0	0	513	480	
5	0	0	0	0	513	480	
6	0	0	0	0	512	480	
7	0	0	0	0	512	480	
8	0	0	0	0	511	480	
9	0	0	0	0	511	480	
10	0	0	0	0	511	480	
11	0	0	0	0	511	480	
12	0	0	0	0	511	480	
13	0	0	0	0	511	480	
14	0	0	0	0	510	480	
15	0	0	0	0	511	480	
0	0	0	0	0	511	480	
1	0	0	0	0	512	480	
2	0	0	0	0	513	480	
3	0	0	0	0	513	480	
4	0	0	0	0	513	480	
5	0	0	0	0	513	480	
6	0	0	0	0	514	480	
7	0	0	0	0	514	480	
8	0	0	0	0	515	480	
9	0	0	0	0	515	480	
10	0	0	0	0	515	480	
11	0	0	0	0	515	480	
12	0	0	0	0	516	480	
13	0	0	0	0	516	480	
14	0	0	0	0	516	480	
15	0	0	0	0	516	480	
0	0	0	0	0	515	480	
1	0	0	0	0	515	480	
2	0	0	0	0	516	480	
3	0	0	0	0	515	480	
4	0	0	0	0	516	480	
5	0	0	0	0	516	480	
6	0	0	0	0	515	480	
7	0	0	0	0	514	480	
8	0	0	0	0	513	480	
9	0	0	0	0	513	480	
10	0	0	0	0	512	480	
11	0	0	0	0	512	480	
12	0	0	0	0	511	480	
13	0	0	0	0	510	480	
14	0	0	0	0	510	480	
15	0	0	0	0	510	480	
0	0	0	0	0	510	480	
1	0	0	0	0	510	480	
2	0	0	0	0	510	480	
3	0	0	0	0	511	480	
4	0	0	0	0	511	480	
5	0	0	0	0	511	480	
6	0	0	0	0	511	480	
7	0	0	0	0	511	480	
8	0	0	0	0	510	480	
9	0	0	0	0	510	480	
10	0	0	0	0	509	480	
11	0	0	0	0	508	480	
12	0	0	0	0	508	480	
13	0	0	0	0	507	480	
14	0	0	0	0	507	480	
15	0	0	0	0	507	480	
0	0	0	0	0	507	480	
1	0	0	0	0	508	480	
2	0	0	0	0	508	480	
3	0	0	0	0	508	480	
4	0	0	0	0	508	480	
5	0	0	0	0	508	480	
6	0	0	0	0	508	480	
7	0	0	0	0	508	480	
8	0	0	0	0	508	480	
9	0	0	0	0	507	480	
10	0	0	0	0	507	480	
11	0	0	0	0	507	480	
12	0	0	0	0	505	480	
13	0	0	0	0	505	480	
14	0	0	0	0	504	480	
15	0	0	0	0	503	480	
0	0	0	0	0	503	480	
1	0	0	0	0	502	480	
2	0	0	0	0	503	480	
3	0	0	0	0	504	480	
4	0	0	0	0	504	480	
5	0	0	0	0	504	480	
6	0	0	0	0	504	480	
7	0	0	0	0	505	480	
8	0	0	0	0	505	480	
9	0	0	0	0	505	480	
10	0	0	0	0	505	480	
11	0	0	0	0	505	480	
12	0	0	0	0	505	480	
13	0	0	0	0	504	480	
14	0	0	0	0	504	480	
15	0	0	0	0	504	480	
0	0	0	0	0	504	480	
1	0	0	0	0	505	480	
2	0	0	0	0	505	480	
3	0	0	0	0	507	480	
4	0	0	0	0	507	480	
5	0	0	0	0	508	480	
6	0	0	0	0	510	480	
7	0	0	0	0	511	480	
8	0	0	0	0	511	480	
9	0	0	0	0	512	480	
10	0	0	0	0	512	480	
11	0	0	0	0	512	480	
12	0	0	0	0	512	480	
13	0	0	0	0	512	480	
14	0	0	0	0	513	480	
15	0	0	0	0	512	480	
0	0	0	0	0	511	480	
1	0	0	0	0	508	480	
2	0	0	0	0	506	480	
3	0	0	0	0	504	480	
4	0	0	0	0	502	480	
5	0	0	0	0	500	480	
6	0	0	0	0	498	480	
7	0	0	0	0	496	480	
8	0	0	0	0	493	480	
9	0	0	0	0	490	480	
10	0	0	0	0	488	480	
11	0	0	0	0	487	480	
12	0	0	0	0	484	480	
13	0	0	0	0	482	480	
14	0	0	0	0	479	480	
15	0	0	0	0	476	480	
0	0	0	0	0	473	480	
1	0	0	0	0	472	480	
2	0	0	0	0	472	480	
3	0	0	0	0	472	480	
4	0	0	0	0	473	480	
5	0	0	0	0	475	480	
6	0	0	0	0	477	480	
7	0	0	0	0	479	480	
8	0	0	0	0	480	480	
9	0	0	0	0	481	480	
10	0	0	0	0	482	480	
11	0	0	0	0	483	480	
12	0	0	0	0	483	480	
13	0	0	0	0	483	480	
14	0	0	0	0	483	480	
15	0	0	0	0	481	480	
0	0	0	0	0	481	480	
1	0	0	0	0	480	480	
2	0	0	0	0	481	480	
3	0	0	0	0	483	480	
4	0	0	0	0	485	480	
5	0	0	0	0	488	480	
6	0	0	0	0	492	480	
7	0	0	0	0	496	480	
8	0	0	0	0	499	480	
9	0	0	0	0	502	480	
10	0	0	0	0	505	480	
11	0	0	0	0	507	480	
12	0	0	0	0	508	480	
13	0	0	0	0	510	480	
14	0	0	0	0	511	480	
15	0	0	0	0	511	480	
0	0	0	0	0	513	480	
1	0	0	0	0	513	480	
2	0	0	0	0	515	480	
3	0	0	0	0	516	480	
4	0	0	0	0	518	480	
5	0	0	0	0	519	480	
6	0	0	0	0	520	480	
7	0	0	0	0	521	480	
8	0	0	0	0	521	480	
9	0	0	0	0	521	480	
10	0	0	0	0	521	480	
11	0	0	0	0	520	480	
12	0	0	0	0	519	480	
13	0	0	0	0	518	480	
14	0	0	0	0	517	480	
15	0	0	0	0	516	480	
0	0	0	0	0	514	480	
1	0	0	0	0	513	480	
2	0	0	0	0	512	480	
3	0	0	0	0	511	480	
4	0	0	0	0	511	480	
5	0	0	0	0	510	479	
6	0	0	0	0	508	480	
7	0	0	0	0	507	480	
8	0	0	0	0	507	480	
9	0	0	0	0	507	480	
10	0	0	0	0	507	480	
11	0	0	0	0	507	480	
12	0	0	0	0	506	480	
13	0	0	0	0	506	480	
14	0	0	0	0	504	480	
15	0	0	0	0	503	480	
0	0	0	0	0	502	480	
1	0	0	0	0	501	480	
2	0	0	0	0	500	480	
3	0	0	0	0	499	480	
4	0	0	0	0	499	480	
5	0	0	0	0	499	480	
6	0	0	0	0	499	480	
7	0	0	0	0	499	480	
8	0	0	0	0	500	480	
9	0	0	0	0	500	480	
10	0	0	0	0	501	480	
11	0	0	0	0	502	480	
12	0	0	0	0	502	480	
13	0	0	0	0	503	480	
14	0	0	0	0	502	479	
15	0	0	0	0	502	480	
0	0	0	0	0	502	480	
1	0	0	0	0	502	480	
2	0	0	0	0	502	480	
3	0	0	0	0	502	479	
4	0	0	0	0	502	480	
5	0	0	0	0	502	480	
6	0	0	0	0	502	480	
7	0	0	0	0	503	480	
8	0	0	0	0	504	479	
9	0	0	0	0	504	480	
10	0	0	0	0	505	479	
11	0	0	0	0	506	480	
12	0	0	0	0	506	479	
13	0	0	0	0	507	479	
14	0	0	0	0	507	480	
15	0	0	0	0	506	480	
0	0	0	0	0	506	480	
1	0	0	0	0	505	480	
2	0	0	0	0	505	480	
3	0	0	0	0	504	480	
4	0	0	0	0	505	480	
5	0	0	0	0	505	480	
6	0	0	0	0	504	479	
7	0	0	0	0	504	480	
8	0	0	0	0	504	479	
9	0	0	0	0	504	480	
10	0	0	0	0	505	480	
11	0	0	0	0	505	480	
12	0	0	0	0	505	479	
13	0	0	0	0	505	480	
14	0	0	0	0	504	480	
15	0	0	0	0	504	479	
0	0	0	0	0	504	479	
1	0	0	0	0	503	480	
2	0	0	0	0	504	480	
3	0	0	0	0	503	480	
4	0	0	0	0	502	480	
5	0	0	0	0	501	480	
6	0	0	0	0	501	479	
7	0	0	0	0	501	480	
8	0	0	0	0	502	480	
9	0	0	0	0	502	480	
10	0	0	0	0	503	479	
11	0	0	0	0	503	479	
12	0	0	0	0	504	480	
13	0	0	0	0	504	480	
14	0	0	0	0	504	479	
15	0	0	0	0	504	479	
0	0	0	0	0	504	479	
1	0	0	0	0	504	480	
2	0	0	0	0	504	480	
3	0	0	0	0	504	480	
4	0	0	0	0	504	480	
5	0	0	0	0	503	480	
6	0	0	0	0	503	480	
7	0	0	0	0	503	480	
8	0	0	0	0	504	480	
9	0	0	0	0	504	480	
10	0	0	0	0	504	479	
11	0	0	0	0	505	480	
12	0	0	0	0	505	480	
13	0	0	0	0	506	480	
14	0	0	0	0	506	479	
15	0	0	0	0	506	479	
0	0	0	0	0	505	480	
1	0	0	0	0	505	480	
2	0	0	0	0	505	479	
3	0	0	0	0	504	480	
4	0	0	0	0	504	479	
5	0	0	0	0	503	479	
6	0	0	0	0	503	480	
7	0	0	0	0	503	480	
8	0	0	0	0	503	480	
9	0	0	0	0	502	479	
10	0	0	0	0	503	480	
11	0	0	0	0	503	480	
12	0	0	0	0	504	480	
13	0	0	0	0	504	479	
14	0	0	0	0	504	479	
15	0	0	0	0	504	480	
0	0	0	0	0	504	479	
1	0	0	0	0	504	480	
2	0	0	0	0	503	480	
3	0	0	0	0	503	479	
4	0	0	0	0	502	480	
5	0	0	0	0	503	480	
6	0	0	0	0	502	480	
7	0	0	0	0	502	480	
8	0	0	0	0	502	480	
9	0	0	0	0	503	479	
10	0	0	0	0	503	480	
11	0	0	0	0	503	480	
12	0	0	0	0	504	480	
13	0	0	0	0	504	479	
14	0	0	0	0	504	480	
15	0	0	0	0	504	479	
0	0	0	0	0	504	479	
1	0	0	0	0	504	479	
2	0	0	0	0	504	479	
3	0	0	0	0	503	480	
4	0	0	0	0	502	479	
5	0	0	0	0	502	479	
6	0	0	0	0	502	479	
7	0	0	0	0	502	479	
8	0	0	0	0	501	479	
9	0	0	0	0	500	480	
10	0	0	0	0	501	479	
11	0	0	0	0	502	480	
12	0	0	0	0	502	479	
13	0	0	0	0	502	480	
14	0	0	0	0	502	479	
15	0	0	0	0	503	479	
0	0	0	0	0	503	479	
1	0	0	0	0	502	479	
2	0	0	0	0	501	479	
3	0	0	0	0	500	480	
4	0	0	0	0	501	479	
5	0	0	0	0	500	480	
6	0	0	0	0	500	479	
7	0	0	0	0	501	480	
8	0	0	0	0	501	480	
9	0	0	0	0	501	479	
10	0	0	0	0	501	480	
11	0	0	0	0	501	479	
12	0	0	0	0	502	480	
13	0	0	0	0	502	479	
14	0	0	0	0	503	479	
15	0	0	0	0	504	479	
0	0	0	0	0	503	479	
1	0	0	0	0	503	480	
2	0	0	0	0	503	479	
3	0	0	0	0	503	479	
4	0	0	0	0	502	479	
5	0	0	0	0	502	479	
6	0	0	0	0	501	480	
7	0	0	0	0	500	479	
8	0	0	0	0	499	480	
9	0	0	0	0	499	480	
10	0	0	0	0	499	479	
11	0	0	0	0	500	480	
12	0	0	0	0	500	480	
13	0	0	0	0	501	479	
14	0	0	0	0	502	479	
15	0	0	0	0	503	479	
0	0	0	0	0	503	480	
1	0	0	0	0	504	479	
2	0	0	0	0	504	479	
3	0	0	0	0	504	479	
4	0	0	0	0	505	479	
5	0	0	0	0	505	480	
6	0	0	0	0	504	480	
7	0	0	0	0	504	479	
8	0	0	0	0	504	479	
9	0	0	0	0	504	479	
10	0	0	0	0	504	480	
11	0	0	0	0	505	480	
12	0	0	0	0	506	479	
13	0	0	0	0	507	480	
14	0	0	0	0	507	479	
15	0	0	0	0	508	480	
0	0	0	0	0	510	479	
1	0	0	0	0	511	479	
2	0	0	0	0	512	479	
3	0	0	0	0	512	479	
4	0	0	0	0	512	480	
5	0	0	0	0	512	479	
6	0	0	0	0	512	479	
7	0	0	0	0	512	479	
8	0	0	0	0	512	479	
9	0	0	0	0	513	479	
10	0	0	0	0	513	479	
11	0	0	0	0	513	480	
12	0	0	0	0	514	479	
13	0	0	0	0	515	479	
14	0	0	0	0	516	480	
15	0	0	0	0	517	479	
0	0	0	0	0	519	480	
1	0	0	0	0	520	479	
2	0	0	0	0	522	479	
3	0	0	0	0	523	480	
4	0	0	0	0	523	479	
5	0	0	0	0	524	480	
6	0	0	0	0	525	480	
7	0	0	0	0	526	479	
8	0	0	0	0	526	480	
9	0	0	0	0	527	480	
10	0	0	0	0	527	480	
11	0	0	0	0	527	480	
12	0	0	0	0	527	479	
13	0	0	0	0	528	480	
14	0	0	0	0	529	480	
15	0	0	0	0	529	480	
0	0	0	0	0	530	480	
1	0	0	0	0	531	479	
2	0	0	0	0	532	480	
3	0	0	0	0	534	480	
4	0	0	0	0	534	480	
5	0	0	0	0	535	480	
6	0	0	0	0	535	480	
7	0	0	0	0	536	480	
8	0	0	0	0	536	479	
9	0	0	0	0	536	480	
10	0	0	0	0	536	480	
11	0	0	0	0	536	480	
12	0	0	0	0	537	480	
13	0	0	0	0	536	480	
14	0	0	0	0	536	480	
15	0	0	0	0	537	480	
0	0	0	0	0	537	480	
1	0	0	0	0	538	480	
2	0	0	0	0	539	480	
3	0	0	0	0	539	480	
4	0	0	0	0	539	480	
5	0	0	0	0	539	480	
6	0	0	0	0	539	480	
7	0	0	0	0	539	480	
8	0	0	0	0	539	480	
9	0	0	0	0	539	480	
10	0	0	0	0	538	480	
11	0	0	0	0	539	480	
12	0	0	0	0	538	480	
13	0	0	0	0	539	480	
14	0	0	0	0	539	480	
15	0	0	0	0	539	480	
0	0	0	0	0	540	480	
1	0	0	0	0	540	480	
2	0	0	0	0	540	480	
3	0	0	0	0	540	480	
4	0	0	0	0	539	480	
5	0	0	0	0	538	480	
6	0	0	0	0	537	480	
7	0	0	0	0	537	480	
8	0	0	0	0	537	480	
9	0	0	0	0	536	480	
10	0	0	0	0	535	480	
11	0	0	0	0	534	480	
12	0	0	0	0	532	480	
13	0	0	0	0	532	480	
14	0	0	0	0	531	480	
15	0	0	0	0	531	480	
0	0	0	0	0	531	480	
1	0	0	0	0	531	480	
2	0	0	0	0	530	480	
