# OpenSignals Text File Format. Version 1
# {"98:D3:B1:FD:3D:90": {"position": 0, "device": "bitalino_rev", "device name": "98:D3:B1:FD:3D:90", "device connection": "BTH98:D3:B1:FD:3D:90", "sampling rate": 1000, "resolution": [4, 1, 1, 1, 1, 10, 10], "firmware version": 1281, "comments": "", "keywords": "", "mode": 0, "sync interval": 2, "date": "2022-4-13", "time": "18:14:44.978", "channels": [2, 3], "sensor": ["ECGBIT", "EDABITREV"], "label": ["A2", "A3"], "column": ["nSeq", "I1", "I2", "O1", "O2", "A2", "A3"], "special": [{}, {}], "digital IO": [0, 0, 1, 1]}}
# EndOfHeader
0	0	0	0	0	498	614	
1	0	0	0	0	497	614	
2	0	0	0	0	497	614	
3	0	0	0	0	496	614	
4	0	0	0	0	495	614	
5	0	0	0	0	495	614	
6	0	0	0	0	495	614	
7	0	0	0	0	497	614	
8	0	0	0	0	497	614	
9	0	0	0	0	498	614	
10	0	0	0	0	498	614	
11	0	0	0	0	499	614	
12	0	0	0	0	500	614	
13	0	0	0	0	501	614	
14	0	0	0	0	502	614	
15	0	0	0	0	503	614	
0	0	0	0	0	503	614	
1	0	0	0	0	503	614	
2	0	0	0	0	504	614	
3	0	0	0	0	504	614	
4	0	0	0	0	505	614	
5	0	0	0	0	507	614	
6	0	0	0	0	507	614	
7	0	0	0	0	508	614	
8	0	0	0	0	509	615	
9	0	0	0	0	508	614	
10	0	0	0	0	509	614	
11	0	0	0	0	510	614	
12	0	0	0	0	511	614	
13	0	0	0	0	511	614	
14	0	0	0	0	513	614	
15	0	0	0	0	513	614	
0	0	0	0	0	514	614	
1	0	0	0	0	514	614	
2	0	0	0	0	516	614	
3	0	0	0	0	516	614	
4	0	0	0	0	516	614	
5	0	0	0	0	517	614	
6	0	0	0	0	518	614	
7	0	0	0	0	519	615	
8	0	0	0	0	519	614	
9	0	0	0	0	522	614	
10	0	0	0	0	523	614	
11	0	0	0	0	523	614	
12	0	0	0	0	524	614	
13	0	0	0	0	526	614	
14	0	0	0	0	529	614	
15	0	0	0	0	531	614	
0	0	0	0	0	532	614	
1	0	0	0	0	531	614	
2	0	0	0	0	532	614	
3	0	0	0	0	531	614	
4	0	0	0	0	530	614	
5	0	0	0	0	529	614	
6	0	0	0	0	529	615	
7	0	0	0	0	528	614	
8	0	0	0	0	528	614	
9	0	0	0	0	528	614	
10	0	0	0	0	528	614	
11	0	0	0	0	528	615	
12	0	0	0	0	527	614	
13	0	0	0	0	529	614	
14	0	0	0	0	531	614	
15	0	0	0	0	532	614	
0	0	0	0	0	533	614	
1	0	0	0	0	534	614	
2	0	0	0	0	534	614	
3	0	0	0	0	536	614	
4	0	0	0	0	536	614	
5	0	0	0	0	536	614	
6	0	0	0	0	536	614	
7	0	0	0	0	535	614	
8	0	0	0	0	536	614	
9	0	0	0	0	535	614	
10	0	0	0	0	536	614	
11	0	0	0	0	536	614	
12	0	0	0	0	537	614	
13	0	0	0	0	538	614	
14	0	0	0	0	539	614	
15	0	0	0	0	540	614	
0	0	0	0	0	541	614	
1	0	0	0	0	542	614	
2	0	0	0	0	543	614	
3	0	0	0	0	542	614	
4	0	0	0	0	542	614	
5	0	0	0	0	540	614	
6	0	0	0	0	540	614	
7	0	0	0	0	540	614	
8	0	0	0	0	539	614	
9	0	0	0	0	540	615	
10	0	0	0	0	539	614	
11	0	0	0	0	538	614	
12	0	0	0	0	537	614	
13	0	0	0	0	536	614	
14	0	0	0	0	535	614	
15	0	0	0	0	533	614	
0	0	0	0	0	533	614	
1	0	0	0	0	532	614	
2	0	0	0	0	531	614	
3	0	0	0	0	530	614	
4	0	0	0	0	528	614	
5	0	0	0	0	527	614	
6	0	0	0	0	527	614	
7	0	0	0	0	525	614	
8	0	0	0	0	524	614	
9	0	0	0	0	524	614	
10	0	0	0	0	523	614	
11	0	0	0	0	522	614	
12	0	0	0	0	522	614	
13	0	0	0	0	523	614	
14	0	0	0	0	524	614	
15	0	0	0	0	525	614	
0	0	0	0	0	524	614	
1	0	0	0	0	524	614	
2	0	0	0	0	525	614	
3	0	0	0	0	526	614	
4	0	0	0	0	526	614	
5	0	0	0	0	526	614	
6	0	0	0	0	527	614	
7	0	0	0	0	526	614	
8	0	0	0	0	527	614	
9	0	0	0	0	527	614	
10	0	0	0	0	527	614	
11	0	0	0	0	526	614	
12	0	0	0	0	527	614	
13	0	0	0	0	526	614	
14	0	0	0	0	526	614	
15	0	0	0	0	526	614	
0	0	0	0	0	527	614	
1	0	0	0	0	527	614	
2	0	0	0	0	528	614	
3	0	0	0	0	529	614	
4	0	0	0	0	528	614	
5	0	0	0	0	528	614	
6	0	0	0	0	527	614	
7	0	0	0	0	526	614	
8	0	0	0	0	526	614	
9	0	0	0	0	525	614	
10	0	0	0	0	525	614	
11	0	0	0	0	525	614	
12	0	0	0	0	525	614	
13	0	0	0	0	525	614	
14	0	0	0	0	525	614	
15	0	0	0	0	525	614	
0	0	0	0	0	526	614	
1	0	0	0	0	526	614	
2	0	0	0	0	528	614	
3	0	0	0	0	528	614	
4	0	0	0	0	528	614	
5	0	0	0	0	528	614	
6	0	0	0	0	529	614	
7	0	0	0	0	530	614	
8	0	0	0	0	530	614	
9	0	0	0	0	529	614	
10	0	0	0	0	530	614	
11	0	0	0	0	531	614	
12	0	0	0	0	532	614	
13	0	0	0	0	532	614	
14	0	0	0	0	532	614	
15	0	0	0	0	533	614	
0	0	0	0	0	534	614	
1	0	0	0	0	538	614	
2	0	0	0	0	540	614	
3	0	0	0	0	542	614	
4	0	0	0	0	544	614	
5	0	0	0	0	547	614	
6	0	0	0	0	548	614	
7	0	0	0	0	548	614	
8	0	0	0	0	546	614	
9	0	0	0	0	544	614	
10	0	0	0	0	542	614	
11	0	0	0	0	542	614	
12	0	0	0	0	541	614	
13	0	0	0	0	542	614	
14	0	0	0	0	542	614	
15	0	0	0	0	543	614	
0	0	0	0	0	545	614	
1	0	0	0	0	543	614	
2	0	0	0	0	539	614	
3	0	0	0	0	536	614	
4	0	0	0	0	529	614	
5	0	0	0	0	524	614	
6	0	0	0	0	521	614	
7	0	0	0	0	521	614	
8	0	0	0	0	524	614	
9	0	0	0	0	527	614	
10	0	0	0	0	531	614	
11	0	0	0	0	533	614	
12	0	0	0	0	532	614	
13	0	0	0	0	532	614	
14	0	0	0	0	533	614	
15	0	0	0	0	535	614	
0	0	0	0	0	536	614	
1	0	0	0	0	536	614	
2	0	0	0	0	537	614	
3	0	0	0	0	539	614	
4	0	0	0	0	540	614	
5	0	0	0	0	541	614	
6	0	0	0	0	542	614	
7	0	0	0	0	543	614	
8	0	0	0	0	543	614	
9	0	0	0	0	544	614	
10	0	0	0	0	545	614	
11	0	0	0	0	544	614	
12	0	0	0	0	543	614	
13	0	0	0	0	543	614	
14	0	0	0	0	543	614	
15	0	0	0	0	543	614	
0	0	0	0	0	545	614	
1	0	0	0	0	546	614	
2	0	0	0	0	545	614	
3	0	0	0	0	547	614	
4	0	0	0	0	549	614	
5	0	0	0	0	550	614	
6	0	0	0	0	551	614	
7	0	0	0	0	551	614	
8	0	0	0	0	550	614	
9	0	0	0	0	550	614	
10	0	0	0	0	549	614	
11	0	0	0	0	550	614	
12	0	0	0	0	550	614	
13	0	0	0	0	547	614	
14	0	0	0	0	546	614	
15	0	0	0	0	548	614	
0	0	0	0	0	549	614	
1	0	0	0	0	548	614	
2	0	0	0	0	548	614	
3	0	0	0	0	550	614	
4	0	0	0	0	548	614	
5	0	0	0	0	546	614	
6	0	0	0	0	544	614	
7	0	0	0	0	543	614	
8	0	0	0	0	543	614	
9	0	0	0	0	542	614	
10	0	0	0	0	544	614	
11	0	0	0	0	543	614	
12	0	0	0	0	543	614	
13	0	0	0	0	543	614	
14	0	0	0	0	543	614	
15	0	0	0	0	542	614	
0	0	0	0	0	542	614	
1	0	0	0	0	543	614	
2	0	0	0	0	544	614	
3	0	0	0	0	544	614	
4	0	0	0	0	544	614	
5	0	0	0	0	542	614	
6	0	0	0	0	542	614	
7	0	0	0	0	543	614	
8	0	0	0	0	543	614	
9	0	0	0	0	543	614	
10	0	0	0	0	542	614	
11	0	0	0	0	540	614	
12	0	0	0	0	539	614	
13	0	0	0	0	536	614	
14	0	0	0	0	535	614	
15	0	0	0	0	533	614	
0	0	0	0	0	532	614	
1	0	0	0	0	534	614	
2	0	0	0	0	535	614	
3	0	0	0	0	536	614	
4	0	0	0	0	534	614	
5	0	0	0	0	532	614	
6	0	0	0	0	531	614	
7	0	0	0	0	531	614	
8	0	0	0	0	531	614	
9	0	0	0	0	532	614	
10	0	0	0	0	531	614	
11	0	0	0	0	530	614	
12	0	0	0	0	529	614	
13	0	0	0	0	527	614	
14	0	0	0	0	527	614	
15	0	0	0	0	526	614	
0	0	0	0	0	524	614	
1	0	0	0	0	522	614	
2	0	0	0	0	523	614	
3	0	0	0	0	523	614	
4	0	0	0	0	522	614	
5	0	0	0	0	520	614	
6	0	0	0	0	519	614	
7	0	0	0	0	517	614	
8	0	0	0	0	517	614	
9	0	0	0	0	517	614	
10	0	0	0	0	517	614	
11	0	0	0	0	517	614	
12	0	0	0	0	517	614	
13	0	0	0	0	516	614	
14	0	0	0	0	515	614	
15	0	0	0	0	514	614	
0	0	0	0	0	513	614	
1	0	0	0	0	512	615	
2	0	0	0	0	511	614	
3	0	0	0	0	509	614	
4	0	0	0	0	508	614	
5	0	0	0	0	505	614	
6	0	0	0	0	505	614	
7	0	0	0	0	507	614	
8	0	0	0	0	507	614	
9	0	0	0	0	507	614	
10	0	0	0	0	506	614	
11	0	0	0	0	508	615	
12	0	0	0	0	508	614	
13	0	0	0	0	508	614	
14	0	0	0	0	508	614	
15	0	0	0	0	508	614	
0	0	0	0	0	508	614	
1	0	0	0	0	508	614	
2	0	0	0	0	508	614	
3	0	0	0	0	506	614	
4	0	0	0	0	504	614	
5	0	0	0	0	504	615	
6	0	0	0	0	505	614	
7	0	0	0	0	505	614	
8	0	0	0	0	507	614	
9	0	0	0	0	508	614	
10	0	0	0	0	510	615	
11	0	0	0	0	510	614	
12	0	0	0	0	510	614	
13	0	0	0	0	510	614	
14	0	0	0	0	510	614	
15	0	0	0	0	510	615	
0	0	0	0	0	510	614	
1	0	0	0	0	510	615	
2	0	0	0	0	508	614	
3	0	0	0	0	507	614	
4	0	0	0	0	506	615	
5	0	0	0	0	506	614	
6	0	0	0	0	507	614	
7	0	0	0	0	508	614	
8	0	0	0	0	511	614	
9	0	0	0	0	513	615	
10	0	0	0	0	515	614	
11	0	0	0	0	518	615	
12	0	0	0	0	517	614	
13	0	0	0	0	518	614	
14	0	0	0	0	519	615	
15	0	0	0	0	520	614	
0	0	0	0	0	519	615	
1	0	0	0	0	517	615	
2	0	0	0	0	516	614	
3	0	0	0	0	516	615	
4	0	0	0	0	516	615	
5	0	0	0	0	513	615	
6	0	0	0	0	511	614	
7	0	0	0	0	510	615	
8	0	0	0	0	510	615	
9	0	0	0	0	511	615	
10	0	0	0	0	512	615	
11	0	0	0	0	513	615	
12	0	0	0	0	513	614	
13	0	0	0	0	514	615	
14	0	0	0	0	515	615	
15	0	0	0	0	515	615	
0	0	0	0	0	517	615	
1	0	0	0	0	516	615	
2	0	0	0	0	516	615	
3	0	0	0	0	516	615	
4	0	0	0	0	516	615	
5	0	0	0	0	515	615	
6	0	0	0	0	515	615	
7	0	0	0	0	516	615	
8	0	0	0	0	515	615	
9	0	0	0	0	516	615	
10	0	0	0	0	518	615	
11	0	0	0	0	519	615	
12	0	0	0	0	519	615	
13	0	0	0	0	517	615	
14	0	0	0	0	516	615	
15	0	0	0	0	516	615	
0	0	0	0	0	517	615	
1	0	0	0	0	517	615	
2	0	0	0	0	517	615	
3	0	0	0	0	515	615	
4	0	0	0	0	516	615	
5	0	0	0	0	516	614	
6	0	0	0	0	518	615	
7	0	0	0	0	518	615	
8	0	0	0	0	516	615	
9	0	0	0	0	516	615	
10	0	0	0	0	517	615	
11	0	0	0	0	519	615	
12	0	0	0	0	519	615	
13	0	0	0	0	520	615	
14	0	0	0	0	521	615	
15	0	0	0	0	522	615	
0	0	0	0	0	523	615	
1	0	0	0	0	524	615	
2	0	0	0	0	525	615	
3	0	0	0	0	522	615	
4	0	0	0	0	520	615	
5	0	0	0	0	520	615	
6	0	0	0	0	520	615	
7	0	0	0	0	519	615	
8	0	0	0	0	518	615	
9	0	0	0	0	518	615	
10	0	0	0	0	517	615	
11	0	0	0	0	518	615	
12	0	0	0	0	519	615	
13	0	0	0	0	519	615	
14	0	0	0	0	519	615	
15	0	0	0	0	519	615	
0	0	0	0	0	519	615	
1	0	0	0	0	519	615	
2	0	0	0	0	520	615	
3	0	0	0	0	521	615	
4	0	0	0	0	519	615	
5	0	0	0	0	519	615	
6	0	0	0	0	518	615	
7	0	0	0	0	516	615	
8	0	0	0	0	516	615	
9	0	0	0	0	515	615	
10	0	0	0	0	514	615	
11	0	0	0	0	515	615	
12	0	0	0	0	516	615	
13	0	0	0	0	515	615	
14	0	0	0	0	515	615	
15	0	0	0	0	515	615	
0	0	0	0	0	515	615	
1	0	0	0	0	516	615	
2	0	0	0	0	519	615	
3	0	0	0	0	520	615	
4	0	0	0	0	519	615	
5	0	0	0	0	520	615	
6	0	0	0	0	520	615	
7	0	0	0	0	519	615	
8	0	0	0	0	518	615	
9	0	0	0	0	516	615	
10	0	0	0	0	511	615	
11	0	0	0	0	507	615	
12	0	0	0	0	504	615	
13	0	0	0	0	502	615	
14	0	0	0	0	497	615	
15	0	0	0	0	494	615	
0	0	0	0	0	491	615	
1	0	0	0	0	487	615	
2	0	0	0	0	484	615	
3	0	0	0	0	480	615	
4	0	0	0	0	477	615	
5	0	0	0	0	474	615	
6	0	0	0	0	470	615	
7	0	0	0	0	468	615	
8	0	0	0	0	466	615	
9	0	0	0	0	465	615	
10	0	0	0	0	464	615	
11	0	0	0	0	466	615	
12	0	0	0	0	469	615	
13	0	0	0	0	473	615	
14	0	0	0	0	479	615	
15	0	0	0	0	483	615	
0	0	0	0	0	487	615	
1	0	0	0	0	494	615	
2	0	0	0	0	497	615	
3	0	0	0	0	500	615	
4	0	0	0	0	500	615	
5	0	0	0	0	500	615	
6	0	0	0	0	500	615	
7	0	0	0	0	498	615	
8	0	0	0	0	495	615	
9	0	0	0	0	496	615	
10	0	0	0	0	498	615	
11	0	0	0	0	500	616	
12	0	0	0	0	502	615	
13	0	0	0	0	505	615	
14	0	0	0	0	508	615	
15	0	0	0	0	512	615	
0	0	0	0	0	515	615	
1	0	0	0	0	518	615	
2	0	0	0	0	521	615	
3	0	0	0	0	523	615	
4	0	0	0	0	524	615	
5	0	0	0	0	524	615	
6	0	0	0	0	526	615	
7	0	0	0	0	527	616	
8	0	0	0	0	527	615	
9	0	0	0	0	526	615	
10	0	0	0	0	527	616	
11	0	0	0	0	528	615	
12	0	0	0	0	528	615	
13	0	0	0	0	529	615	
14	0	0	0	0	530	615	
15	0	0	0	0	528	616	
0	0	0	0	0	526	615	
1	0	0	0	0	522	615	
2	0	0	0	0	519	616	
3	0	0	0	0	517	615	
4	0	0	0	0	516	616	
5	0	0	0	0	515	615	
6	0	0	0	0	515	616	
7	0	0	0	0	514	616	
8	0	0	0	0	511	615	
9	0	0	0	0	509	616	
10	0	0	0	0	509	615	
11	0	0	0	0	510	615	
12	0	0	0	0	510	615	
13	0	0	0	0	508	615	
14	0	0	0	0	507	616	
15	0	0	0	0	505	615	
0	0	0	0	0	504	615	
1	0	0	0	0	505	615	
2	0	0	0	0	505	615	
3	0	0	0	0	507	616	
4	0	0	0	0	506	615	
5	0	0	0	0	505	616	
6	0	0	0	0	505	615	
7	0	0	0	0	504	615	
8	0	0	0	0	505	615	
9	0	0	0	0	505	615	
10	0	0	0	0	504	615	
11	0	0	0	0	504	615	
12	0	0	0	0	504	615	
13	0	0	0	0	507	616	
14	0	0	0	0	507	615	
15	0	0	0	0	505	615	
0	0	0	0	0	505	615	
1	0	0	0	0	504	615	
2	0	0	0	0	501	615	
3	0	0	0	0	498	615	
4	0	0	0	0	497	615	
5	0	0	0	0	497	616	
6	0	0	0	0	495	615	
7	0	0	0	0	495	616	
8	0	0	0	0	494	615	
9	0	0	0	0	491	615	
10	0	0	0	0	491	615	
11	0	0	0	0	492	615	
12	0	0	0	0	492	616	
13	0	0	0	0	494	615	
14	0	0	0	0	496	616	
15	0	0	0	0	498	615	
0	0	0	0	0	502	615	
1	0	0	0	0	506	616	
2	0	0	0	0	508	616	
3	0	0	0	0	510	615	
4	0	0	0	0	511	616	
5	0	0	0	0	511	615	
6	0	0	0	0	512	616	
7	0	0	0	0	511	616	
8	0	0	0	0	509	616	
9	0	0	0	0	507	616	
10	0	0	0	0	504	615	
11	0	0	0	0	499	616	
12	0	0	0	0	497	616	
13	0	0	0	0	496	616	
14	0	0	0	0	493	616	
15	0	0	0	0	492	615	
0	0	0	0	0	495	616	
1	0	0	0	0	500	616	
2	0	0	0	0	504	615	
3	0	0	0	0	509	616	
4	0	0	0	0	513	615	
5	0	0	0	0	516	616	
6	0	0	0	0	516	616	
7	0	0	0	0	513	615	
8	0	0	0	0	510	616	
9	0	0	0	0	508	616	
10	0	0	0	0	505	616	
11	0	0	0	0	502	616	
12	0	0	0	0	500	616	
13	0	0	0	0	501	616	
14	0	0	0	0	503	615	
15	0	0	0	0	503	616	
0	0	0	0	0	501	616	
1	0	0	0	0	502	616	
2	0	0	0	0	504	616	
3	0	0	0	0	507	615	
4	0	0	0	0	509	616	
5	0	0	0	0	511	616	
6	0	0	0	0	512	616	
7	0	0	0	0	510	616	
8	0	0	0	0	509	616	
9	0	0	0	0	508	616	
10	0	0	0	0	507	616	
11	0	0	0	0	506	616	
12	0	0	0	0	505	616	
13	0	0	0	0	505	615	
14	0	0	0	0	504	616	
15	0	0	0	0	501	615	
0	0	0	0	0	499	616	
1	0	0	0	0	496	616	
2	0	0	0	0	495	615	
3	0	0	0	0	495	616	
4	0	0	0	0	495	616	
5	0	0	0	0	498	616	
6	0	0	0	0	500	616	
7	0	0	0	0	501	616	
8	0	0	0	0	502	616	
9	0	0	0	0	503	616	
10	0	0	0	0	504	616	
11	0	0	0	0	503	615	
12	0	0	0	0	503	616	
13	0	0	0	0	503	616	
14	0	0	0	0	502	616	
15	0	0	0	0	500	616	
0	0	0	0	0	498	616	
1	0	0	0	0	498	616	
2	0	0	0	0	498	616	
3	0	0	0	0	498	616	
4	0	0	0	0	498	616	
5	0	0	0	0	496	616	
6	0	0	0	0	494	616	
7	0	0	0	0	496	616	
8	0	0	0	0	496	616	
9	0	0	0	0	497	616	
10	0	0	0	0	496	616	
11	0	0	0	0	494	616	
12	0	0	0	0	494	616	
13	0	0	0	0	495	616	
14	0	0	0	0	494	616	
15	0	0	0	0	495	616	
0	0	0	0	0	496	616	
1	0	0	0	0	496	616	
2	0	0	0	0	496	616	
3	0	0	0	0	496	616	
4	0	0	0	0	496	616	
5	0	0	0	0	497	616	
6	0	0	0	0	499	616	
7	0	0	0	0	498	616	
8	0	0	0	0	499	616	
9	0	0	0	0	501	616	
10	0	0	0	0	501	616	
11	0	0	0	0	502	616	
12	0	0	0	0	503	616	
13	0	0	0	0	503	616	
14	0	0	0	0	501	616	
15	0	0	0	0	496	616	
0	0	0	0	0	492	616	
1	0	0	0	0	486	616	
2	0	0	0	0	483	616	
3	0	0	0	0	483	616	
4	0	0	0	0	486	616	
5	0	0	0	0	491	616	
6	0	0	0	0	495	616	
7	0	0	0	0	499	616	
8	0	0	0	0	500	616	
9	0	0	0	0	499	616	
10	0	0	0	0	500	616	
11	0	0	0	0	499	616	
12	0	0	0	0	499	616	
13	0	0	0	0	500	616	
14	0	0	0	0	504	616	
15	0	0	0	0	504	616	
0	0	0	0	0	505	616	
1	0	0	0	0	508	616	
2	0	0	0	0	511	616	
3	0	0	0	0	512	616	
4	0	0	0	0	516	616	
5	0	0	0	0	517	616	
6	0	0	0	0	515	616	
7	0	0	0	0	513	616	
8	0	0	0	0	510	616	
9	0	0	0	0	509	616	
10	0	0	0	0	509	616	
11	0	0	0	0	508	616	
12	0	0	0	0	509	616	
13	0	0	0	0	508	616	
14	0	0	0	0	507	616	
15	0	0	0	0	507	616	
0	0	0	0	0	508	616	
1	0	0	0	0	509	616	
2	0	0	0	0	512	616	
3	0	0	0	0	516	616	
4	0	0	0	0	518	616	
5	0	0	0	0	520	616	
6	0	0	0	0	524	616	
7	0	0	0	0	527	616	
8	0	0	0	0	530	616	
9	0	0	0	0	530	616	
10	0	0	0	0	529	616	
11	0	0	0	0	531	616	
12	0	0	0	0	531	616	
13	0	0	0	0	532	616	
14	0	0	0	0	533	616	
15	0	0	0	0	532	616	
0	0	0	0	0	534	616	
1	0	0	0	0	532	616	
2	0	0	0	0	528	617	
3	0	0	0	0	527	616	
4	0	0	0	0	525	616	
5	0	0	0	0	522	616	
6	0	0	0	0	519	616	
7	0	0	0	0	517	617	
8	0	0	0	0	519	616	
9	0	0	0	0	519	616	
10	0	0	0	0	519	616	
11	0	0	0	0	515	616	
12	0	0	0	0	509	617	
13	0	0	0	0	501	616	
14	0	0	0	0	493	616	
15	0	0	0	0	485	616	
0	0	0	0	0	476	616	
1	0	0	0	0	469	617	
2	0	0	0	0	467	617	
3	0	0	0	0	469	616	
4	0	0	0	0	473	617	
5	0	0	0	0	480	616	
6	0	0	0	0	487	617	
7	0	0	0	0	495	616	
8	0	0	0	0	502	616	
9	0	0	0	0	508	616	
10	0	0	0	0	511	616	
11	0	0	0	0	513	617	
12	0	0	0	0	515	616	
13	0	0	0	0	517	617	
14	0	0	0	0	519	616	
15	0	0	0	0	520	616	
0	0	0	0	0	521	617	
1	0	0	0	0	519	617	
2	0	0	0	0	520	617	
3	0	0	0	0	522	617	
4	0	0	0	0	524	616	
5	0	0	0	0	526	617	
6	0	0	0	0	526	617	
7	0	0	0	0	526	617	
8	0	0	0	0	528	617	
9	0	0	0	0	531	616	
10	0	0	0	0	534	617	
11	0	0	0	0	533	617	
12	0	0	0	0	534	617	
13	0	0	0	0	534	617	
14	0	0	0	0	532	616	
15	0	0	0	0	532	617	
0	0	0	0	0	531	617	
1	0	0	0	0	531	617	
2	0	0	0	0	531	617	
3	0	0	0	0	528	617	
4	0	0	0	0	526	617	
5	0	0	0	0	525	617	
6	0	0	0	0	525	617	
7	0	0	0	0	524	617	
8	0	0	0	0	521	617	
9	0	0	0	0	519	617	
10	0	0	0	0	518	617	
11	0	0	0	0	515	617	
12	0	0	0	0	515	617	
13	0	0	0	0	515	617	
14	0	0	0	0	515	617	
15	0	0	0	0	512	617	
0	0	0	0	0	510	617	
1	0	0	0	0	509	617	
2	0	0	0	0	507	617	
3	0	0	0	0	504	617	
4	0	0	0	0	503	617	
5	0	0	0	0	501	617	
6	0	0	0	0	498	617	
7	0	0	0	0	496	617	
8	0	0	0	0	497	617	
9	0	0	0	0	496	617	
10	0	0	0	0	497	617	
11	0	0	0	0	497	617	
12	0	0	0	0	497	617	
13	0	0	0	0	496	617	
14	0	0	0	0	496	617	
15	0	0	0	0	496	617	
0	0	0	0	0	495	617	
1	0	0	0	0	493	617	
2	0	0	0	0	491	617	
3	0	0	0	0	490	617	
4	0	0	0	0	489	617	
5	0	0	0	0	489	617	
6	0	0	0	0	487	617	
7	0	0	0	0	487	617	
8	0	0	0	0	489	617	
9	0	0	0	0	491	617	
10	0	0	0	0	491	617	
11	0	0	0	0	493	617	
12	0	0	0	0	495	617	
13	0	0	0	0	494	617	
14	0	0	0	0	494	617	
15	0	0	0	0	494	617	
0	0	0	0	0	496	617	
1	0	0	0	0	496	617	
2	0	0	0	0	497	617	
3	0	0	0	0	499	617	
4	0	0	0	0	501	617	
5	0	0	0	0	503	617	
6	0	0	0	0	503	617	
7	0	0	0	0	504	617	
8	0	0	0	0	503	617	
9	0	0	0	0	506	617	
10	0	0	0	0	506	617	
11	0	0	0	0	508	617	
12	0	0	0	0	511	617	
13	0	0	0	0	512	617	
14	0	0	0	0	509	617	
15	0	0	0	0	507	617	
0	0	0	0	0	508	618	
1	0	0	0	0	508	617	
2	0	0	0	0	507	617	
3	0	0	0	0	505	617	
4	0	0	0	0	503	617	
5	0	0	0	0	503	618	
6	0	0	0	0	504	617	
7	0	0	0	0	503	617	
8	0	0	0	0	504	617	
9	0	0	0	0	507	617	
10	0	0	0	0	512	617	
11	0	0	0	0	516	617	
12	0	0	0	0	518	617	
13	0	0	0	0	519	617	
14	0	0	0	0	520	617	
15	0	0	0	0	522	618	
0	0	0	0	0	521	617	
1	0	0	0	0	519	617	
2	0	0	0	0	518	617	
3	0	0	0	0	516	617	
4	0	0	0	0	512	617	
5	0	0	0	0	504	617	
6	0	0	0	0	494	617	
7	0	0	0	0	487	617	
8	0	0	0	0	484	617	
9	0	0	0	0	483	618	
10	0	0	0	0	483	618	
11	0	0	0	0	484	617	
12	0	0	0	0	489	617	
13	0	0	0	0	493	617	
14	0	0	0	0	496	618	
15	0	0	0	0	495	617	
0	0	0	0	0	495	617	
1	0	0	0	0	493	617	
2	0	0	0	0	493	617	
3	0	0	0	0	494	618	
4	0	0	0	0	495	617	
5	0	0	0	0	495	617	
6	0	0	0	0	494	617	
7	0	0	0	0	493	617	
8	0	0	0	0	492	618	
9	0	0	0	0	496	617	
10	0	0	0	0	496	617	
11	0	0	0	0	494	617	
12	0	0	0	0	491	617	
13	0	0	0	0	488	618	
14	0	0	0	0	487	617	
15	0	0	0	0	487	618	
0	0	0	0	0	489	617	
1	0	0	0	0	491	617	
2	0	0	0	0	491	618	
3	0	0	0	0	490	618	
4	0	0	0	0	489	617	
5	0	0	0	0	490	617	
6	0	0	0	0	491	617	
7	0	0	0	0	492	618	
8	0	0	0	0	491	617	
9	0	0	0	0	490	618	
10	0	0	0	0	488	618	
11	0	0	0	0	489	617	
12	0	0	0	0	491	618	
13	0	0	0	0	493	617	
14	0	0	0	0	494	617	
15	0	0	0	0	493	618	
0	0	0	0	0	492	617	
1	0	0	0	0	494	618	
2	0	0	0	0	494	618	
3	0	0	0	0	496	618	
4	0	0	0	0	494	617	
5	0	0	0	0	493	618	
6	0	0	0	0	494	618	
7	0	0	0	0	494	618	
8	0	0	0	0	495	618	
9	0	0	0	0	497	618	
10	0	0	0	0	499	617	
11	0	0	0	0	499	618	
12	0	0	0	0	502	618	
13	0	0	0	0	503	618	
14	0	0	0	0	504	618	
15	0	0	0	0	504	617	
0	0	0	0	0	506	618	
1	0	0	0	0	505	618	
2	0	0	0	0	506	618	
3	0	0	0	0	508	618	
4	0	0	0	0	511	617	
5	0	0	0	0	514	618	
6	0	0	0	0	519	618	
7	0	0	0	0	523	618	
8	0	0	0	0	525	618	
9	0	0	0	0	528	617	
10	0	0	0	0	531	618	
11	0	0	0	0	538	618	
12	0	0	0	0	542	618	
13	0	0	0	0	545	618	
14	0	0	0	0	552	618	
15	0	0	0	0	559	618	
0	0	0	0	0	565	618	
1	0	0	0	0	571	618	
2	0	0	0	0	573	618	
3	0	0	0	0	574	617	
4	0	0	0	0	574	618	
5	0	0	0	0	574	618	
6	0	0	0	0	572	618	
7	0	0	0	0	569	618	
8	0	0	0	0	569	618	
9	0	0	0	0	570	619	
10	0	0	0	0	569	618	
11	0	0	0	0	563	618	
12	0	0	0	0	562	618	
13	0	0	0	0	561	618	
14	0	0	0	0	559	618	
15	0	0	0	0	558	618	
0	0	0	0	0	556	618	
1	0	0	0	0	556	618	
2	0	0	0	0	555	618	
3	0	0	0	0	553	618	
4	0	0	0	0	550	618	
5	0	0	0	0	548	618	
6	0	0	0	0	547	618	
7	0	0	0	0	544	618	
8	0	0	0	0	540	618	
9	0	0	0	0	537	618	
10	0	0	0	0	536	619	
11	0	0	0	0	534	618	
12	0	0	0	0	532	618	
13	0	0	0	0	531	618	
14	0	0	0	0	529	618	
15	0	0	0	0	527	618	
0	0	0	0	0	525	618	
1	0	0	0	0	524	618	
2	0	0	0	0	524	618	
3	0	0	0	0	520	618	
4	0	0	0	0	518	618	
5	0	0	0	0	513	618	
6	0	0	0	0	512	618	
7	0	0	0	0	515	619	
8	0	0	0	0	515	618	
9	0	0	0	0	515	619	
10	0	0	0	0	514	618	
11	0	0	0	0	512	618	
12	0	0	0	0	512	619	
13	0	0	0	0	512	618	
14	0	0	0	0	510	618	
15	0	0	0	0	509	619	
0	0	0	0	0	508	618	
1	0	0	0	0	508	619	
2	0	0	0	0	510	619	
3	0	0	0	0	509	618	
4	0	0	0	0	510	618	
5	0	0	0	0	508	618	
6	0	0	0	0	504	619	
7	0	0	0	0	501	619	
8	0	0	0	0	499	619	
9	0	0	0	0	495	619	
10	0	0	0	0	491	618	
11	0	0	0	0	489	619	
12	0	0	0	0	489	619	
13	0	0	0	0	488	619	
14	0	0	0	0	488	619	
15	0	0	0	0	491	619	
0	0	0	0	0	493	619	
1	0	0	0	0	493	619	
2	0	0	0	0	495	619	
3	0	0	0	0	497	619	
4	0	0	0	0	496	618	
5	0	0	0	0	497	619	
6	0	0	0	0	498	619	
7	0	0	0	0	500	619	
8	0	0	0	0	502	619	
9	0	0	0	0	504	619	
10	0	0	0	0	506	619	
11	0	0	0	0	508	619	
12	0	0	0	0	510	619	
13	0	0	0	0	512	619	
14	0	0	0	0	513	619	
15	0	0	0	0	516	619	
0	0	0	0	0	516	619	
1	0	0	0	0	518	619	
2	0	0	0	0	519	619	
3	0	0	0	0	523	619	
4	0	0	0	0	527	619	
5	0	0	0	0	529	619	
6	0	0	0	0	530	619	
7	0	0	0	0	534	619	
8	0	0	0	0	536	619	
9	0	0	0	0	539	619	
10	0	0	0	0	539	619	
11	0	0	0	0	540	619	
12	0	0	0	0	540	619	
13	0	0	0	0	540	619	
14	0	0	0	0	542	619	
15	0	0	0	0	542	619	
0	0	0	0	0	543	619	
1	0	0	0	0	545	619	
2	0	0	0	0	547	619	
3	0	0	0	0	548	620	
4	0	0	0	0	547	619	
5	0	0	0	0	549	619	
6	0	0	0	0	549	619	
7	0	0	0	0	547	619	
8	0	0	0	0	548	619	
9	0	0	0	0	548	619	
10	0	0	0	0	547	619	
11	0	0	0	0	547	619	
12	0	0	0	0	548	619	
13	0	0	0	0	552	620	
14	0	0	0	0	555	619	
15	0	0	0	0	556	619	
0	0	0	0	0	556	619	
1	0	0	0	0	554	619	
2	0	0	0	0	556	619	
3	0	0	0	0	559	619	
4	0	0	0	0	560	620	
5	0	0	0	0	561	619	
6	0	0	0	0	563	619	
7	0	0	0	0	562	620	
8	0	0	0	0	560	619	
9	0	0	0	0	558	619	
10	0	0	0	0	558	620	
11	0	0	0	0	559	619	
12	0	0	0	0	556	620	
13	0	0	0	0	555	620	
14	0	0	0	0	553	620	
15	0	0	0	0	552	620	
0	0	0	0	0	553	619	
1	0	0	0	0	553	620	
2	0	0	0	0	553	620	
3	0	0	0	0	554	620	
4	0	0	0	0	555	620	
5	0	0	0	0	553	620	
6	0	0	0	0	555	620	
7	0	0	0	0	556	620	
8	0	0	0	0	554	620	
9	0	0	0	0	554	620	
10	0	0	0	0	552	620	
11	0	0	0	0	550	620	
12	0	0	0	0	550	620	
13	0	0	0	0	552	620	
14	0	0	0	0	553	620	
15	0	0	0	0	551	620	
0	0	0	0	0	551	620	
1	0	0	0	0	551	620	
2	0	0	0	0	550	620	
3	0	0	0	0	552	620	
4	0	0	0	0	552	620	
5	0	0	0	0	551	620	
6	0	0	0	0	551	620	
7	0	0	0	0	552	620	
8	0	0	0	0	555	620	
9	0	0	0	0	556	620	
10	0	0	0	0	555	620	
11	0	0	0	0	552	620	
12	0	0	0	0	551	620	
13	0	0	0	0	551	620	
14	0	0	0	0	551	620	
15	0	0	0	0	549	620	
0	0	0	0	0	548	620	
1	0	0	0	0	549	620	
2	0	0	0	0	551	620	
3	0	0	0	0	551	620	
4	0	0	0	0	552	620	
5	0	0	0	0	553	620	
6	0	0	0	0	555	620	
7	0	0	0	0	553	620	
8	0	0	0	0	553	620	
9	0	0	0	0	551	620	
10	0	0	0	0	551	620	
11	0	0	0	0	550	620	
12	0	0	0	0	547	620	
13	0	0	0	0	546	620	
14	0	0	0	0	547	621	
15	0	0	0	0	545	620	
0	0	0	0	0	545	620	
1	0	0	0	0	545	621	
2	0	0	0	0	543	620	
3	0	0	0	0	540	621	
4	0	0	0	0	540	620	
5	0	0	0	0	539	621	
6	0	0	0	0	536	620	
7	0	0	0	0	536	620	
8	0	0	0	0	537	621	
9	0	0	0	0	537	621	
10	0	0	0	0	538	621	
11	0	0	0	0	539	621	
12	0	0	0	0	540	620	
13	0	0	0	0	541	621	
14	0	0	0	0	540	621	
15	0	0	0	0	542	621	
0	0	0	0	0	543	621	
1	0	0	0	0	541	621	
2	0	0	0	0	539	621	
3	0	0	0	0	534	621	
4	0	0	0	0	531	621	
5	0	0	0	0	530	621	
6	0	0	0	0	527	621	
7	0	0	0	0	524	622	
8	0	0	0	0	520	621	
9	0	0	0	0	518	621	
10	0	0	0	0	514	621	
11	0	0	0	0	512	621	
12	0	0	0	0	509	622	
13	0	0	0	0	503	621	
14	0	0	0	0	498	622	
15	0	0	0	0	495	622	
0	0	0	0	0	492	622	
1	0	0	0	0	488	622	
2	0	0	0	0	483	622	
3	0	0	0	0	481	622	
4	0	0	0	0	478	622	
5	0	0	0	0	474	622	
6	0	0	0	0	471	622	
7	0	0	0	0	468	622	
8	0	0	0	0	465	622	
9	0	0	0	0	466	622	
10	0	0	0	0	470	622	
11	0	0	0	0	476	622	
12	0	0	0	0	480	622	
13	0	0	0	0	486	622	
14	0	0	0	0	488	622	
15	0	0	0	0	489	622	
0	0	0	0	0	489	623	
1	0	0	0	0	488	622	
2	0	0	0	0	488	622	
3	0	0	0	0	487	622	
4	0	0	0	0	484	622	
5	0	0	0	0	482	623	
6	0	0	0	0	483	622	
7	0	0	0	0	483	623	
8	0	0	0	0	486	622	
9	0	0	0	0	487	622	
10	0	0	0	0	489	623	
11	0	0	0	0	491	623	
12	0	0	0	0	491	623	
13	0	0	0	0	494	623	
14	0	0	0	0	495	623	
15	0	0	0	0	497	623	
0	0	0	0	0	499	623	
1	0	0	0	0	499	623	
2	0	0	0	0	500	623	
3	0	0	0	0	500	623	
4	0	0	0	0	500	623	
5	0	0	0	0	499	623	
6	0	0	0	0	501	623	
7	0	0	0	0	505	623	
8	0	0	0	0	506	623	
9	0	0	0	0	507	623	
10	0	0	0	0	508	623	
11	0	0	0	0	509	623	
12	0	0	0	0	513	623	
13	0	0	0	0	514	623	
14	0	0	0	0	512	623	
15	0	0	0	0	507	623	
0	0	0	0	0	505	623	
1	0	0	0	0	503	623	
2	0	0	0	0	503	623	
3	0	0	0	0	504	623	
4	0	0	0	0	503	623	
5	0	0	0	0	504	623	
6	0	0	0	0	504	624	
7	0	0	0	0	503	623	
8	0	0	0	0	503	624	
9	0	0	0	0	502	623	
10	0	0	0	0	502	624	
11	0	0	0	0	501	624	
12	0	0	0	0	502	623	
13	0	0	0	0	504	624	
14	0	0	0	0	505	624	
15	0	0	0	0	505	624	
0	0	0	0	0	505	624	
1	0	0	0	0	506	623	
2	0	0	0	0	507	624	
3	0	0	0	0	505	624	
4	0	0	0	0	507	624	
5	0	0	0	0	508	624	
6	0	0	0	0	508	624	
7	0	0	0	0	509	624	
8	0	0	0	0	507	624	
9	0	0	0	0	505	624	
10	0	0	0	0	503	624	
11	0	0	0	0	503	624	
12	0	0	0	0	502	624	
13	0	0	0	0	504	624	
14	0	0	0	0	506	624	
15	0	0	0	0	504	624	
0	0	0	0	0	504	624	
1	0	0	0	0	504	625	
2	0	0	0	0	503	624	
3	0	0	0	0	499	624	
4	0	0	0	0	499	624	
5	0	0	0	0	497	624	
6	0	0	0	0	496	624	
7	0	0	0	0	494	624	
8	0	0	0	0	494	624	
9	0	0	0	0	494	624	
10	0	0	0	0	495	624	
11	0	0	0	0	494	625	
12	0	0	0	0	497	625	
13	0	0	0	0	496	624	
14	0	0	0	0	495	624	
15	0	0	0	0	495	624	
0	0	0	0	0	497	625	
1	0	0	0	0	497	625	
2	0	0	0	0	494	625	
3	0	0	0	0	496	625	
4	0	0	0	0	496	625	
5	0	0	0	0	493	625	
6	0	0	0	0	489	625	
7	0	0	0	0	490	625	
8	0	0	0	0	491	625	
9	0	0	0	0	491	625	
10	0	0	0	0	492	625	
11	0	0	0	0	491	625	
12	0	0	0	0	488	625	
13	0	0	0	0	488	625	
14	0	0	0	0	490	625	
15	0	0	0	0	490	625	
0	0	0	0	0	490	625	
1	0	0	0	0	489	625	
2	0	0	0	0	489	625	
3	0	0	0	0	487	625	
4	0	0	0	0	485	625	
5	0	0	0	0	485	625	
6	0	0	0	0	487	626	
7	0	0	0	0	486	625	
8	0	0	0	0	485	625	
9	0	0	0	0	487	626	
10	0	0	0	0	488	625	
11	0	0	0	0	489	625	
12	0	0	0	0	488	625	
13	0	0	0	0	490	625	
14	0	0	0	0	492	626	
15	0	0	0	0	494	626	
0	0	0	0	0	496	625	
1	0	0	0	0	498	626	
2	0	0	0	0	500	625	
3	0	0	0	0	501	626	
4	0	0	0	0	499	626	
5	0	0	0	0	498	626	
6	0	0	0	0	500	626	
7	0	0	0	0	501	626	
8	0	0	0	0	504	626	
9	0	0	0	0	507	626	
10	0	0	0	0	507	626	
11	0	0	0	0	505	626	
12	0	0	0	0	504	626	
13	0	0	0	0	505	626	
14	0	0	0	0	505	626	
15	0	0	0	0	505	626	
0	0	0	0	0	507	626	
1	0	0	0	0	510	626	
2	0	0	0	0	510	626	
3	0	0	0	0	506	626	
4	0	0	0	0	506	626	
5	0	0	0	0	505	626	
6	0	0	0	0	503	626	
7	0	0	0	0	499	627	
8	0	0	0	0	501	626	
9	0	0	0	0	504	627	
10	0	0	0	0	503	626	
11	0	0	0	0	503	626	
12	0	0	0	0	502	627	
13	0	0	0	0	498	627	
14	0	0	0	0	496	626	
15	0	0	0	0	496	627	
0	0	0	0	0	495	626	
1	0	0	0	0	496	627	
2	0	0	0	0	498	627	
3	0	0	0	0	496	627	
4	0	0	0	0	495	627	
5	0	0	0	0	494	627	
6	0	0	0	0	495	627	
7	0	0	0	0	496	627	
8	0	0	0	0	496	627	
9	0	0	0	0	495	627	
10	0	0	0	0	493	627	
11	0	0	0	0	492	627	
12	0	0	0	0	488	627	
13	0	0	0	0	487	627	
14	0	0	0	0	486	627	
15	0	0	0	0	481	627	
0	0	0	0	0	480	627	
1	0	0	0	0	479	627	
2	0	0	0	0	479	627	
3	0	0	0	0	477	627	
4	0	0	0	0	478	627	
5	0	0	0	0	479	627	
6	0	0	0	0	479	627	
7	0	0	0	0	479	627	
8	0	0	0	0	477	627	
9	0	0	0	0	477	627	
10	0	0	0	0	481	627	
11	0	0	0	0	483	627	
12	0	0	0	0	480	627	
13	0	0	0	0	477	627	
14	0	0	0	0	477	627	
15	0	0	0	0	479	627	
0	0	0	0	0	481	627	
1	0	0	0	0	481	627	
2	0	0	0	0	481	627	
3	0	0	0	0	483	627	
4	0	0	0	0	483	627	
5	0	0	0	0	482	627	
6	0	0	0	0	483	627	
7	0	0	0	0	482	627	
8	0	0	0	0	484	627	
9	0	0	0	0	483	628	
10	0	0	0	0	482	627	
11	0	0	0	0	481	627	
12	0	0	0	0	481	627	
13	0	0	0	0	482	627	
14	0	0	0	0	484	628	
15	0	0	0	0	486	627	
0	0	0	0	0	487	627	
1	0	0	0	0	486	627	
2	0	0	0	0	484	627	
3	0	0	0	0	487	628	
4	0	0	0	0	489	627	
5	0	0	0	0	491	628	
6	0	0	0	0	494	628	
7	0	0	0	0	496	628	
8	0	0	0	0	496	628	
9	0	0	0	0	496	628	
10	0	0	0	0	496	628	
11	0	0	0	0	493	628	
12	0	0	0	0	493	627	
13	0	0	0	0	496	628	
14	0	0	0	0	500	628	
15	0	0	0	0	503	628	
0	0	0	0	0	502	628	
1	0	0	0	0	502	627	
2	0	0	0	0	502	628	
3	0	0	0	0	503	628	
4	0	0	0	0	504	628	
5	0	0	0	0	504	628	
6	0	0	0	0	502	628	
7	0	0	0	0	504	628	
8	0	0	0	0	508	628	
9	0	0	0	0	509	628	
10	0	0	0	0	509	628	
11	0	0	0	0	509	628	
12	0	0	0	0	510	628	
13	0	0	0	0	512	628	
14	0	0	0	0	514	628	
15	0	0	0	0	516	628	
0	0	0	0	0	518	628	
1	0	0	0	0	519	628	
2	0	0	0	0	521	628	
3	0	0	0	0	524	628	
4	0	0	0	0	525	628	
5	0	0	0	0	524	628	
6	0	0	0	0	526	628	
7	0	0	0	0	528	628	
8	0	0	0	0	529	628	
9	0	0	0	0	530	628	
10	0	0	0	0	529	628	
11	0	0	0	0	530	628	
12	0	0	0	0	530	628	
13	0	0	0	0	528	628	
14	0	0	0	0	526	628	
15	0	0	0	0	526	628	
0	0	0	0	0	525	628	
1	0	0	0	0	524	628	
2	0	0	0	0	525	628	
3	0	0	0	0	524	628	
4	0	0	0	0	524	628	
5	0	0	0	0	526	629	
6	0	0	0	0	523	628	
7	0	0	0	0	524	628	
8	0	0	0	0	526	628	
9	0	0	0	0	524	628	
10	0	0	0	0	521	629	
11	0	0	0	0	520	628	
12	0	0	0	0	520	628	
13	0	0	0	0	522	628	
14	0	0	0	0	526	628	
15	0	0	0	0	525	629	
0	0	0	0	0	523	628	
1	0	0	0	0	523	628	
2	0	0	0	0	522	628	
3	0	0	0	0	523	628	
4	0	0	0	0	524	629	
5	0	0	0	0	523	629	
6	0	0	0	0	523	629	
7	0	0	0	0	521	628	
8	0	0	0	0	523	628	
9	0	0	0	0	524	629	
10	0	0	0	0	523	628	
11	0	0	0	0	519	629	
12	0	0	0	0	517	628	
13	0	0	0	0	516	628	
14	0	0	0	0	516	629	
15	0	0	0	0	514	629	
0	0	0	0	0	514	628	
1	0	0	0	0	515	629	
2	0	0	0	0	517	628	
3	0	0	0	0	516	629	
4	0	0	0	0	516	629	
5	0	0	0	0	516	629	
6	0	0	0	0	519	629	
7	0	0	0	0	516	629	
8	0	0	0	0	517	629	
9	0	0	0	0	519	629	
10	0	0	0	0	523	629	
11	0	0	0	0	520	629	
12	0	0	0	0	521	629	
13	0	0	0	0	523	629	
14	0	0	0	0	526	629	
15	0	0	0	0	526	629	
0	0	0	0	0	527	629	
1	0	0	0	0	529	628	
2	0	0	0	0	531	629	
3	0	0	0	0	529	629	
4	0	0	0	0	531	629	
5	0	0	0	0	532	629	
6	0	0	0	0	532	629	
7	0	0	0	0	534	629	
8	0	0	0	0	535	629	
9	0	0	0	0	534	629	
10	0	0	0	0	534	629	
11	0	0	0	0	533	629	
12	0	0	0	0	532	629	
13	0	0	0	0	534	629	
14	0	0	0	0	533	629	
15	0	0	0	0	530	629	
0	0	0	0	0	528	629	
1	0	0	0	0	526	629	
2	0	0	0	0	527	629	
3	0	0	0	0	526	629	
4	0	0	0	0	525	629	
5	0	0	0	0	524	629	
6	0	0	0	0	520	630	
7	0	0	0	0	522	629	
8	0	0	0	0	525	629	
9	0	0	0	0	526	630	
10	0	0	0	0	526	629	
11	0	0	0	0	526	629	
12	0	0	0	0	523	629	
13	0	0	0	0	521	629	
14	0	0	0	0	521	629	
15	0	0	0	0	522	629	
0	0	0	0	0	519	630	
1	0	0	0	0	515	630	
2	0	0	0	0	513	630	
3	0	0	0	0	509	630	
4	0	0	0	0	507	629	
5	0	0	0	0	508	630	
6	0	0	0	0	508	629	
7	0	0	0	0	510	630	
8	0	0	0	0	509	630	
9	0	0	0	0	510	629	
10	0	0	0	0	509	630	
11	0	0	0	0	511	630	
12	0	0	0	0	512	630	
13	0	0	0	0	512	630	
14	0	0	0	0	511	630	
15	0	0	0	0	512	630	
0	0	0	0	0	511	630	
1	0	0	0	0	510	630	
2	0	0	0	0	510	630	
3	0	0	0	0	508	630	
4	0	0	0	0	509	630	
5	0	0	0	0	508	630	
6	0	0	0	0	509	630	
7	0	0	0	0	509	630	
8	0	0	0	0	508	629	
9	0	0	0	0	513	630	
10	0	0	0	0	513	630	
11	0	0	0	0	511	630	
12	0	0	0	0	510	630	
13	0	0	0	0	509	630	
14	0	0	0	0	510	630	
15	0	0	0	0	509	630	
0	0	0	0	0	510	630	
1	0	0	0	0	509	630	
2	0	0	0	0	506	630	
3	0	0	0	0	507	630	
4	0	0	0	0	508	630	
5	0	0	0	0	507	630	
6	0	0	0	0	506	630	
7	0	0	0	0	502	630	
8	0	0	0	0	505	631	
9	0	0	0	0	505	630	
10	0	0	0	0	503	630	
11	0	0	0	0	500	630	
12	0	0	0	0	499	630	
13	0	0	0	0	499	630	
14	0	0	0	0	501	630	
15	0	0	0	0	500	630	
0	0	0	0	0	497	630	
1	0	0	0	0	497	630	
2	0	0	0	0	498	630	
3	0	0	0	0	499	630	
4	0	0	0	0	499	630	
5	0	0	0	0	498	630	
6	0	0	0	0	499	630	
7	0	0	0	0	496	631	
8	0	0	0	0	494	630	
9	0	0	0	0	495	630	
10	0	0	0	0	497	630	
11	0	0	0	0	499	630	
12	0	0	0	0	499	631	
13	0	0	0	0	497	631	
14	0	0	0	0	496	631	
15	0	0	0	0	497	630	
0	0	0	0	0	496	630	
1	0	0	0	0	498	631	
2	0	0	0	0	501	631	
3	0	0	0	0	497	631	
4	0	0	0	0	498	631	
5	0	0	0	0	498	630	
6	0	0	0	0	499	630	
7	0	0	0	0	499	631	
8	0	0	0	0	498	631	
9	0	0	0	0	499	631	
10	0	0	0	0	503	630	
11	0	0	0	0	504	631	
12	0	0	0	0	502	631	
13	0	0	0	0	504	631	
14	0	0	0	0	504	630	
15	0	0	0	0	500	631	
0	0	0	0	0	502	631	
1	0	0	0	0	506	631	
2	0	0	0	0	505	631	
3	0	0	0	0	502	631	
4	0	0	0	0	502	631	
5	0	0	0	0	499	631	
6	0	0	0	0	498	631	
7	0	0	0	0	498	631	
8	0	0	0	0	499	631	
9	0	0	0	0	499	631	
10	0	0	0	0	498	631	
11	0	0	0	0	500	631	
12	0	0	0	0	502	631	
13	0	0	0	0	503	631	
14	0	0	0	0	502	631	
15	0	0	0	0	501	631	
0	0	0	0	0	499	631	
1	0	0	0	0	499	631	
2	0	0	0	0	502	631	
3	0	0	0	0	502	631	
4	0	0	0	0	501	631	
5	0	0	0	0	499	631	
6	0	0	0	0	500	631	
7	0	0	0	0	503	631	
8	0	0	0	0	505	631	
9	0	0	0	0	505	631	
10	0	0	0	0	504	631	
11	0	0	0	0	505	631	
12	0	0	0	0	505	631	
13	0	0	0	0	508	631	
14	0	0	0	0	509	632	
15	0	0	0	0	509	631	
0	0	0	0	0	513	631	
1	0	0	0	0	514	631	
2	0	0	0	0	518	631	
3	0	0	0	0	520	632	
4	0	0	0	0	521	631	
5	0	0	0	0	524	632	
6	0	0	0	0	523	631	
7	0	0	0	0	520	631	
8	0	0	0	0	519	631	
9	0	0	0	0	518	631	
10	0	0	0	0	515	632	
11	0	0	0	0	514	631	
12	0	0	0	0	515	631	
13	0	0	0	0	511	631	
14	0	0	0	0	504	632	
15	0	0	0	0	499	632	
0	0	0	0	0	497	632	
1	0	0	0	0	492	631	
2	0	0	0	0	488	632	
3	0	0	0	0	488	632	
4	0	0	0	0	486	632	
5	0	0	0	0	479	632	
6	0	0	0	0	473	631	
7	0	0	0	0	466	632	
8	0	0	0	0	460	631	
9	0	0	0	0	457	631	
10	0	0	0	0	457	632	
11	0	0	0	0	457	632	
12	0	0	0	0	455	632	
13	0	0	0	0	455	632	
14	0	0	0	0	455	632	
15	0	0	0	0	454	632	
0	0	0	0	0	455	632	
1	0	0	0	0	459	632	
2	0	0	0	0	463	632	
3	0	0	0	0	466	632	
4	0	0	0	0	466	632	
5	0	0	0	0	466	632	
6	0	0	0	0	467	632	
7	0	0	0	0	467	632	
8	0	0	0	0	465	632	
9	0	0	0	0	461	632	
10	0	0	0	0	465	632	
11	0	0	0	0	465	632	
12	0	0	0	0	463	632	
13	0	0	0	0	461	632	
14	0	0	0	0	461	632	
15	0	0	0	0	460	632	
0	0	0	0	0	458	632	
1	0	0	0	0	456	632	
2	0	0	0	0	457	632	
3	0	0	0	0	454	632	
4	0	0	0	0	454	632	
5	0	0	0	0	457	632	
6	0	0	0	0	455	632	
7	0	0	0	0	452	632	
8	0	0	0	0	451	632	
9	0	0	0	0	451	632	
10	0	0	0	0	451	632	
11	0	0	0	0	449	632	
12	0	0	0	0	448	632	
13	0	0	0	0	451	632	
14	0	0	0	0	455	632	
15	0	0	0	0	455	632	
0	0	0	0	0	458	632	
1	0	0	0	0	460	632	
2	0	0	0	0	463	632	
3	0	0	0	0	467	632	
4	0	0	0	0	470	632	
5	0	0	0	0	471	632	
6	0	0	0	0	471	632	
7	0	0	0	0	473	632	
8	0	0	0	0	473	632	
9	0	0	0	0	474	632	
10	0	0	0	0	476	632	
11	0	0	0	0	478	632	
12	0	0	0	0	480	632	
13	0	0	0	0	483	632	
14	0	0	0	0	486	632	
15	0	0	0	0	489	632	
0	0	0	0	0	489	632	
1	0	0	0	0	490	632	
2	0	0	0	0	491	632	
3	0	0	0	0	491	632	
4	0	0	0	0	487	632	
5	0	0	0	0	490	632	
6	0	0	0	0	490	632	
7	0	0	0	0	489	632	
8	0	0	0	0	494	632	
9	0	0	0	0	493	632	
10	0	0	0	0	494	632	
11	0	0	0	0	495	632	
12	0	0	0	0	496	632	
13	0	0	0	0	496	632	
14	0	0	0	0	497	632	
15	0	0	0	0	500	632	
0	0	0	0	0	504	632	
1	0	0	0	0	502	632	
2	0	0	0	0	503	632	
3	0	0	0	0	504	632	
4	0	0	0	0	506	632	
5	0	0	0	0	508	632	
6	0	0	0	0	508	632	
7	0	0	0	0	508	633	
8	0	0	0	0	508	632	
9	0	0	0	0	509	632	
10	0	0	0	0	507	632	
11	0	0	0	0	506	632	
12	0	0	0	0	504	632	
13	0	0	0	0	504	632	
14	0	0	0	0	505	632	
15	0	0	0	0	507	632	
0	0	0	0	0	503	632	
1	0	0	0	0	502	632	
2	0	0	0	0	501	632	
3	0	0	0	0	501	632	
4	0	0	0	0	502	632	
5	0	0	0	0	500	632	
6	0	0	0	0	498	632	
7	0	0	0	0	499	632	
8	0	0	0	0	499	632	
9	0	0	0	0	499	632	
10	0	0	0	0	496	632	
11	0	0	0	0	497	632	
12	0	0	0	0	497	632	
13	0	0	0	0	496	632	
14	0	0	0	0	497	632	
15	0	0	0	0	498	632	
0	0	0	0	0	500	633	
1	0	0	0	0	500	632	
2	0	0	0	0	498	632	
3	0	0	0	0	499	632	
4	0	0	0	0	502	632	
5	0	0	0	0	505	633	
6	0	0	0	0	503	632	
7	0	0	0	0	504	632	
8	0	0	0	0	507	632	
9	0	0	0	0	508	632	
10	0	0	0	0	510	633	
11	0	0	0	0	510	632	
12	0	0	0	0	511	632	
13	0	0	0	0	512	632	
14	0	0	0	0	512	632	
15	0	0	0	0	513	633	
0	0	0	0	0	514	632	
1	0	0	0	0	513	632	
2	0	0	0	0	513	632	
3	0	0	0	0	514	632	
4	0	0	0	0	512	633	
5	0	0	0	0	511	633	
6	0	0	0	0	509	633	
7	0	0	0	0	507	633	
8	0	0	0	0	506	632	
9	0	0	0	0	505	633	
10	0	0	0	0	502	632	
11	0	0	0	0	502	633	
12	0	0	0	0	502	632	
13	0	0	0	0	500	632	
14	0	0	0	0	500	633	
15	0	0	0	0	501	633	
0	0	0	0	0	504	633	
1	0	0	0	0	508	633	
2	0	0	0	0	511	632	
3	0	0	0	0	511	633	
4	0	0	0	0	512	633	
5	0	0	0	0	515	633	
6	0	0	0	0	518	633	
7	0	0	0	0	520	633	
8	0	0	0	0	521	633	
9	0	0	0	0	520	633	
10	0	0	0	0	524	633	
11	0	0	0	0	528	633	
12	0	0	0	0	529	633	
13	0	0	0	0	530	633	
14	0	0	0	0	531	633	
15	0	0	0	0	531	633	
0	0	0	0	0	529	633	
1	0	0	0	0	527	633	
2	0	0	0	0	527	633	
3	0	0	0	0	526	633	
4	0	0	0	0	526	633	
5	0	0	0	0	523	633	
6	0	0	0	0	518	633	
7	0	0	0	0	513	633	
8	0	0	0	0	512	633	
9	0	0	0	0	507	633	
10	0	0	0	0	503	633	
11	0	0	0	0	498	633	
12	0	0	0	0	494	633	
13	0	0	0	0	488	633	
14	0	0	0	0	480	633	
15	0	0	0	0	476	633	
0	0	0	0	0	470	633	
1	0	0	0	0	468	633	
2	0	0	0	0	469	633	
3	0	0	0	0	472	633	
4	0	0	0	0	473	633	
5	0	0	0	0	474	633	
6	0	0	0	0	479	633	
7	0	0	0	0	480	633	
8	0	0	0	0	481	633	
9	0	0	0	0	482	633	
10	0	0	0	0	483	633	
11	0	0	0	0	482	633	
12	0	0	0	0	480	633	
13	0	0	0	0	481	633	
14	0	0	0	0	482	633	
15	0	0	0	0	482	633	
0	0	0	0	0	487	633	
1	0	0	0	0	489	633	
2	0	0	0	0	492	633	
3	0	0	0	0	495	633	
4	0	0	0	0	499	633	
5	0	0	0	0	502	633	
6	0	0	0	0	505	633	
7	0	0	0	0	509	633	
8	0	0	0	0	513	633	
9	0	0	0	0	515	633	
10	0	0	0	0	517	633	
11	0	0	0	0	518	633	
12	0	0	0	0	515	633	
13	0	0	0	0	516	633	
14	0	0	0	0	517	633	
15	0	0	0	0	518	633	
0	0	0	0	0	516	633	
1	0	0	0	0	515	633	
2	0	0	0	0	516	633	
3	0	0	0	0	516	633	
4	0	0	0	0	519	633	
5	0	0	0	0	519	633	
6	0	0	0	0	520	633	
7	0	0	0	0	521	633	
8	0	0	0	0	520	633	
9	0	0	0	0	521	633	
10	0	0	0	0	520	633	
11	0	0	0	0	521	633	
12	0	0	0	0	522	633	
13	0	0	0	0	520	633	
14	0	0	0	0	520	633	
15	0	0	0	0	521	633	
0	0	0	0	0	524	633	
1	0	0	0	0	525	633	
2	0	0	0	0	524	633	
3	0	0	0	0	525	633	
4	0	0	0	0	525	633	
5	0	0	0	0	527	633	
6	0	0	0	0	527	633	
7	0	0	0	0	529	633	
8	0	0	0	0	529	634	
9	0	0	0	0	529	633	
10	0	0	0	0	529	633	
11	0	0	0	0	527	633	
12	0	0	0	0	524	633	
13	0	0	0	0	521	633	
14	0	0	0	0	519	633	
15	0	0	0	0	516	633	
0	0	0	0	0	511	633	
1	0	0	0	0	508	633	
2	0	0	0	0	507	633	
3	0	0	0	0	504	633	
4	0	0	0	0	502	633	
5	0	0	0	0	499	633	
6	0	0	0	0	500	633	
7	0	0	0	0	498	634	
8	0	0	0	0	496	633	
9	0	0	0	0	493	633	
10	0	0	0	0	490	633	
11	0	0	0	0	488	633	
12	0	0	0	0	487	634	
13	0	0	0	0	484	633	
14	0	0	0	0	482	633	
15	0	0	0	0	481	633	
0	0	0	0	0	484	633	
1	0	0	0	0	486	633	
2	0	0	0	0	488	634	
3	0	0	0	0	488	633	
4	0	0	0	0	490	634	
5	0	0	0	0	491	633	
6	0	0	0	0	491	634	
7	0	0	0	0	492	633	
8	0	0	0	0	495	633	
9	0	0	0	0	494	634	
10	0	0	0	0	493	633	
11	0	0	0	0	494	634	
12	0	0	0	0	495	633	
13	0	0	0	0	494	633	
14	0	0	0	0	495	633	
15	0	0	0	0	494	633	
0	0	0	0	0	492	634	
1	0	0	0	0	492	633	
2	0	0	0	0	490	633	
3	0	0	0	0	489	633	
4	0	0	0	0	489	633	
5	0	0	0	0	489	634	
6	0	0	0	0	490	633	
7	0	0	0	0	490	633	
8	0	0	0	0	489	634	
9	0	0	0	0	488	633	
10	0	0	0	0	489	633	
11	0	0	0	0	490	634	
12	0	0	0	0	490	633	
13	0	0	0	0	492	634	
14	0	0	0	0	490	633	
15	0	0	0	0	491	634	
0	0	0	0	0	490	633	
1	0	0	0	0	491	633	
2	0	0	0	0	492	634	
3	0	0	0	0	493	633	
4	0	0	0	0	493	633	
5	0	0	0	0	493	634	
6	0	0	0	0	495	633	
7	0	0	0	0	497	634	
8	0	0	0	0	498	634	
9	0	0	0	0	498	633	
10	0	0	0	0	499	634	
11	0	0	0	0	499	634	
12	0	0	0	0	500	633	
13	0	0	0	0	501	634	
14	0	0	0	0	504	633	
15	0	0	0	0	504	634	
0	0	0	0	0	505	634	
1	0	0	0	0	504	634	
2	0	0	0	0	503	633	
3	0	0	0	0	504	634	
4	0	0	0	0	504	633	
5	0	0	0	0	507	634	
6	0	0	0	0	509	634	
7	0	0	0	0	510	633	
8	0	0	0	0	511	634	
9	0	0	0	0	510	633	
10	0	0	0	0	510	634	
11	0	0	0	0	510	634	
12	0	0	0	0	507	633	
13	0	0	0	0	509	634	
14	0	0	0	0	511	634	
15	0	0	0	0	511	634	
0	0	0	0	0	512	634	
1	0	0	0	0	511	634	
2	0	0	0	0	507	634	
3	0	0	0	0	505	634	
4	0	0	0	0	504	634	
5	0	0	0	0	502	634	
6	0	0	0	0	502	633	
7	0	0	0	0	502	634	
8	0	0	0	0	502	634	
9	0	0	0	0	500	633	
10	0	0	0	0	499	633	
11	0	0	0	0	497	633	
12	0	0	0	0	496	634	
13	0	0	0	0	495	634	
14	0	0	0	0	494	634	
15	0	0	0	0	492	634	
0	0	0	0	0	491	634	
1	0	0	0	0	492	634	
2	0	0	0	0	491	634	
3	0	0	0	0	489	634	
4	0	0	0	0	487	634	
5	0	0	0	0	487	634	
6	0	0	0	0	488	634	
7	0	0	0	0	489	634	
8	0	0	0	0	488	634	
9	0	0	0	0	489	634	
10	0	0	0	0	489	634	
11	0	0	0	0	490	634	
12	0	0	0	0	489	634	
13	0	0	0	0	489	634	
14	0	0	0	0	488	634	
15	0	0	0	0	489	634	
0	0	0	0	0	489	634	
1	0	0	0	0	489	634	
2	0	0	0	0	489	633	
3	0	0	0	0	488	633	
4	0	0	0	0	489	633	
5	0	0	0	0	490	634	
6	0	0	0	0	491	634	
7	0	0	0	0	492	633	
8	0	0	0	0	495	633	
9	0	0	0	0	496	633	
10	0	0	0	0	497	634	
11	0	0	0	0	499	634	
12	0	0	0	0	501	633	
13	0	0	0	0	502	634	
14	0	0	0	0	504	633	
15	0	0	0	0	505	634	
0	0	0	0	0	506	634	
1	0	0	0	0	507	634	
2	0	0	0	0	507	633	
3	0	0	0	0	507	633	
4	0	0	0	0	509	634	
5	0	0	0	0	510	634	
6	0	0	0	0	511	633	
7	0	0	0	0	512	634	
8	0	0	0	0	512	634	
9	0	0	0	0	513	634	
10	0	0	0	0	515	634	
11	0	0	0	0	516	633	
12	0	0	0	0	517	633	
13	0	0	0	0	517	634	
14	0	0	0	0	518	634	
15	0	0	0	0	519	634	
0	0	0	0	0	518	633	
1	0	0	0	0	520	633	
2	0	0	0	0	519	633	
3	0	0	0	0	520	634	
4	0	0	0	0	522	633	
5	0	0	0	0	523	634	
6	0	0	0	0	522	634	
7	0	0	0	0	520	634	
8	0	0	0	0	520	634	
9	0	0	0	0	520	633	
10	0	0	0	0	520	634	
11	0	0	0	0	520	633	
12	0	0	0	0	521	633	
13	0	0	0	0	523	634	
14	0	0	0	0	524	634	
15	0	0	0	0	524	633	
0	0	0	0	0	526	633	
1	0	0	0	0	527	633	
2	0	0	0	0	528	634	
3	0	0	0	0	528	634	
4	0	0	0	0	529	634	
5	0	0	0	0	527	633	
6	0	0	0	0	529	633	
7	0	0	0	0	530	634	
8	0	0	0	0	532	634	
9	0	0	0	0	534	634	
10	0	0	0	0	535	633	
11	0	0	0	0	536	633	
12	0	0	0	0	537	634	
13	0	0	0	0	537	634	
14	0	0	0	0	541	634	
15	0	0	0	0	543	633	
0	0	0	0	0	545	633	
1	0	0	0	0	547	634	
2	0	0	0	0	548	633	
3	0	0	0	0	547	633	
4	0	0	0	0	548	633	
5	0	0	0	0	550	634	
6	0	0	0	0	549	633	
7	0	0	0	0	548	634	
8	0	0	0	0	546	634	
9	0	0	0	0	545	634	
10	0	0	0	0	546	633	
11	0	0	0	0	547	634	
12	0	0	0	0	547	633	
13	0	0	0	0	547	633	
14	0	0	0	0	548	633	
15	0	0	0	0	547	633	
0	0	0	0	0	547	634	
1	0	0	0	0	547	634	
2	0	0	0	0	546	633	
3	0	0	0	0	545	634	
4	0	0	0	0	544	633	
5	0	0	0	0	542	634	
6	0	0	0	0	542	634	
7	0	0	0	0	540	634	
8	0	0	0	0	539	633	
9	0	0	0	0	539	633	
10	0	0	0	0	538	634	
11	0	0	0	0	538	633	
12	0	0	0	0	539	634	
13	0	0	0	0	539	633	
14	0	0	0	0	540	633	
15	0	0	0	0	540	634	
0	0	0	0	0	540	634	
1	0	0	0	0	539	633	
2	0	0	0	0	540	634	
3	0	0	0	0	539	633	
4	0	0	0	0	539	633	
5	0	0	0	0	537	634	
6	0	0	0	0	536	634	
7	0	0	0	0	535	634	
8	0	0	0	0	531	633	
9	0	0	0	0	530	634	
10	0	0	0	0	529	633	
11	0	0	0	0	529	633	
12	0	0	0	0	528	633	
13	0	0	0	0	528	633	
14	0	0	0	0	527	634	
15	0	0	0	0	525	633	
0	0	0	0	0	523	633	
1	0	0	0	0	521	634	
2	0	0	0	0	519	633	
3	0	0	0	0	518	634	
4	0	0	0	0	518	634	
5	0	0	0	0	517	633	
6	0	0	0	0	515	634	
7	0	0	0	0	514	633	
8	0	0	0	0	512	633	
9	0	0	0	0	511	633	
10	0	0	0	0	511	634	
11	0	0	0	0	510	633	
12	0	0	0	0	509	633	
13	0	0	0	0	508	634	
14	0	0	0	0	509	633	
15	0	0	0	0	509	633	
0	0	0	0	0	510	634	
1	0	0	0	0	510	633	
2	0	0	0	0	511	634	
3	0	0	0	0	510	633	
4	0	0	0	0	508	633	
5	0	0	0	0	508	633	
6	0	0	0	0	509	633	
7	0	0	0	0	509	634	
8	0	0	0	0	507	633	
9	0	0	0	0	505	633	
10	0	0	0	0	504	633	
11	0	0	0	0	503	633	
12	0	0	0	0	503	634	
13	0	0	0	0	500	633	
14	0	0	0	0	500	633	
15	0	0	0	0	499	633	
0	0	0	0	0	497	633	
1	0	0	0	0	496	633	
2	0	0	0	0	494	633	
3	0	0	0	0	492	633	
4	0	0	0	0	489	633	
5	0	0	0	0	487	633	
6	0	0	0	0	487	634	
7	0	0	0	0	485	633	
8	0	0	0	0	483	634	
9	0	0	0	0	483	633	
10	0	0	0	0	481	633	
11	0	0	0	0	482	634	
12	0	0	0	0	483	633	
13	0	0	0	0	483	633	
14	0	0	0	0	486	633	
15	0	0	0	0	486	633	
0	0	0	0	0	487	633	
1	0	0	0	0	489	633	
2	0	0	0	0	489	633	
3	0	0	0	0	490	633	
4	0	0	0	0	491	633	
5	0	0	0	0	492	633	
6	0	0	0	0	493	633	
7	0	0	0	0	493	633	
8	0	0	0	0	493	633	
9	0	0	0	0	493	633	
10	0	0	0	0	494	633	
11	0	0	0	0	493	633	
12	0	0	0	0	492	633	
13	0	0	0	0	492	633	
14	0	0	0	0	492	633	
15	0	0	0	0	492	634	
0	0	0	0	0	492	633	
1	0	0	0	0	491	633	
2	0	0	0	0	490	633	
3	0	0	0	0	490	633	
4	0	0	0	0	489	633	
5	0	0	0	0	486	633	
6	0	0	0	0	483	633	
7	0	0	0	0	481	633	
8	0	0	0	0	480	633	
9	0	0	0	0	478	634	
10	0	0	0	0	475	633	
11	0	0	0	0	473	633	
12	0	0	0	0	472	633	
13	0	0	0	0	472	633	
14	0	0	0	0	473	634	
15	0	0	0	0	473	633	
0	0	0	0	0	472	633	
1	0	0	0	0	472	633	
2	0	0	0	0	471	633	
3	0	0	0	0	471	633	
4	0	0	0	0	472	633	
5	0	0	0	0	472	633	
6	0	0	0	0	473	633	
7	0	0	0	0	472	633	
8	0	0	0	0	473	634	
9	0	0	0	0	473	633	
10	0	0	0	0	474	633	
11	0	0	0	0	475	633	
12	0	0	0	0	476	633	
13	0	0	0	0	476	633	
14	0	0	0	0	476	633	
15	0	0	0	0	476	633	
0	0	0	0	0	476	633	
1	0	0	0	0	479	633	
2	0	0	0	0	481	633	
3	0	0	0	0	483	633	
4	0	0	0	0	484	633	
5	0	0	0	0	486	633	
6	0	0	0	0	486	633	
7	0	0	0	0	486	633	
8	0	0	0	0	487	633	
9	0	0	0	0	487	633	
10	0	0	0	0	489	633	
11	0	0	0	0	490	633	
12	0	0	0	0	491	633	
13	0	0	0	0	493	633	
14	0	0	0	0	494	633	
15	0	0	0	0	496	633	
0	0	0	0	0	497	633	
1	0	0	0	0	498	633	
2	0	0	0	0	498	633	
3	0	0	0	0	500	633	
4	0	0	0	0	502	633	
5	0	0	0	0	503	633	
6	0	0	0	0	503	633	
7	0	0	0	0	504	633	
8	0	0	0	0	505	633	
9	0	0	0	0	505	633	
10	0	0	0	0	505	633	
11	0	0	0	0	506	633	
12	0	0	0	0	506	633	
13	0	0	0	0	506	633	
14	0	0	0	0	506	633	
15	0	0	0	0	506	633	
0	0	0	0	0	507	633	
1	0	0	0	0	509	633	
2	0	0	0	0	511	633	
3	0	0	0	0	513	633	
4	0	0	0	0	514	633	
5	0	0	0	0	516	633	
6	0	0	0	0	518	633	
7	0	0	0	0	519	633	
8	0	0	0	0	521	633	
9	0	0	0	0	522	633	
10	0	0	0	0	524	633	
11	0	0	0	0	524	633	
12	0	0	0	0	526	633	
13	0	0	0	0	527	633	
14	0	0	0	0	529	633	
15	0	0	0	0	531	633	
0	0	0	0	0	532	633	
1	0	0	0	0	534	633	
2	0	0	0	0	534	633	
3	0	0	0	0	536	633	
4	0	0	0	0	537	633	
5	0	0	0	0	537	633	
6	0	0	0	0	540	633	
7	0	0	0	0	540	633	
8	0	0	0	0	541	633	
9	0	0	0	0	542	633	
10	0	0	0	0	543	633	
11	0	0	0	0	543	633	
12	0	0	0	0	543	633	
13	0	0	0	0	544	633	
14	0	0	0	0	543	633	
15	0	0	0	0	543	633	
0	0	0	0	0	543	633	
1	0	0	0	0	543	633	
2	0	0	0	0	542	633	
3	0	0	0	0	542	633	
4	0	0	0	0	540	633	
5	0	0	0	0	538	633	
6	0	0	0	0	536	633	
7	0	0	0	0	534	633	
8	0	0	0	0	531	633	
9	0	0	0	0	531	633	
10	0	0	0	0	531	633	
11	0	0	0	0	530	633	
12	0	0	0	0	529	633	
13	0	0	0	0	527	633	
14	0	0	0	0	526	633	
15	0	0	0	0	524	633	
0	0	0	0	0	522	633	
1	0	0	0	0	520	633	
2	0	0	0	0	519	633	
3	0	0	0	0	518	633	
4	0	0	0	0	517	633	
5	0	0	0	0	516	633	
6	0	0	0	0	515	633	
7	0	0	0	0	513	633	
8	0	0	0	0	511	633	
9	0	0	0	0	510	633	
10	0	0	0	0	508	633	
11	0	0	0	0	506	633	
12	0	0	0	0	504	633	
13	0	0	0	0	502	633	
14	0	0	0	0	500	633	
15	0	0	0	0	498	633	
0	0	0	0	0	496	633	
1	0	0	0	0	495	633	
2	0	0	0	0	493	633	
3	0	0	0	0	493	633	
4	0	0	0	0	492	633	
5	0	0	0	0	492	633	
6	0	0	0	0	492	633	
7	0	0	0	0	491	633	
8	0	0	0	0	492	633	
9	0	0	0	0	493	633	
10	0	0	0	0	493	633	
11	0	0	0	0	494	633	
12	0	0	0	0	494	633	
13	0	0	0	0	495	633	
14	0	0	0	0	497	633	
15	0	0	0	0	499	633	
0	0	0	0	0	502	633	
1	0	0	0	0	504	633	
2	0	0	0	0	506	633	
3	0	0	0	0	507	633	
4	0	0	0	0	509	633	
5	0	0	0	0	512	633	
6	0	0	0	0	515	633	
7	0	0	0	0	517	633	
8	0	0	0	0	518	633	
9	0	0	0	0	518	633	
10	0	0	0	0	520	633	
11	0	0	0	0	520	633	
12	0	0	0	0	521	633	
13	0	0	0	0	521	633	
14	0	0	0	0	522	633	
15	0	0	0	0	522	633	
0	0	0	0	0	522	633	
1	0	0	0	0	522	633	
2	0	0	0	0	523	633	
3	0	0	0	0	523	633	
4	0	0	0	0	524	633	
5	0	0	0	0	525	633	
6	0	0	0	0	527	633	
7	0	0	0	0	528	633	
8	0	0	0	0	530	633	
9	0	0	0	0	531	633	
10	0	0	0	0	533	633	
11	0	0	0	0	536	633	
12	0	0	0	0	536	633	
13	0	0	0	0	536	632	
14	0	0	0	0	538	633	
15	0	0	0	0	540	633	
0	0	0	0	0	540	633	
1	0	0	0	0	541	632	
2	0	0	0	0	542	632	
3	0	0	0	0	542	633	
4	0	0	0	0	542	633	
5	0	0	0	0	543	633	
6	0	0	0	0	545	633	
7	0	0	0	0	546	632	
8	0	0	0	0	549	633	
9	0	0	0	0	550	633	
10	0	0	0	0	551	632	
11	0	0	0	0	551	633	
12	0	0	0	0	552	632	
13	0	0	0	0	552	633	
14	0	0	0	0	553	632	
15	0	0	0	0	552	633	
0	0	0	0	0	552	633	
1	0	0	0	0	551	632	
2	0	0	0	0	550	633	
3	0	0	0	0	549	633	
4	0	0	0	0	549	633	
5	0	0	0	0	549	632	
6	0	0	0	0	549	632	
7	0	0	0	0	551	633	
8	0	0	0	0	551	632	
9	0	0	0	0	551	632	
10	0	0	0	0	551	633	
11	0	0	0	0	550	632	
12	0	0	0	0	549	633	
13	0	0	0	0	547	632	
14	0	0	0	0	546	632	
15	0	0	0	0	544	632	
0	0	0	0	0	544	632	
1	0	0	0	0	543	632	
2	0	0	0	0	540	632	
3	0	0	0	0	540	633	
4	0	0	0	0	537	632	
5	0	0	0	0	536	632	
6	0	0	0	0	536	633	
7	0	0	0	0	535	632	
8	0	0	0	0	535	632	
9	0	0	0	0	535	632	
10	0	0	0	0	535	632	
11	0	0	0	0	534	633	
12	0	0	0	0	532	632	
13	0	0	0	0	531	632	
14	0	0	0	0	532	632	
15	0	0	0	0	531	632	
0	0	0	0	0	530	633	
1	0	0	0	0	529	632	
2	0	0	0	0	530	632	
3	0	0	0	0	529	632	
4	0	0	0	0	528	632	
5	0	0	0	0	527	633	
6	0	0	0	0	525	632	
7	0	0	0	0	524	632	
8	0	0	0	0	523	632	
9	0	0	0	0	522	632	
10	0	0	0	0	521	632	
11	0	0	0	0	522	632	
12	0	0	0	0	521	632	
13	0	0	0	0	519	632	
14	0	0	0	0	519	632	
15	0	0	0	0	518	632	
0	0	0	0	0	517	632	
1	0	0	0	0	518	632	
2	0	0	0	0	518	632	
3	0	0	0	0	517	632	
4	0	0	0	0	515	632	
5	0	0	0	0	515	632	
6	0	0	0	0	515	632	
7	0	0	0	0	516	632	
8	0	0	0	0	518	632	
9	0	0	0	0	518	632	
10	0	0	0	0	518	632	
11	0	0	0	0	519	632	
12	0	0	0	0	520	632	
13	0	0	0	0	521	632	
14	0	0	0	0	523	632	
15	0	0	0	0	522	632	
0	0	0	0	0	523	632	
1	0	0	0	0	524	632	
2	0	0	0	0	524	632	
3	0	0	0	0	525	632	
4	0	0	0	0	526	632	
5	0	0	0	0	526	632	
6	0	0	0	0	526	632	
7	0	0	0	0	526	632	
8	0	0	0	0	527	632	
9	0	0	0	0	528	632	
10	0	0	0	0	530	632	
11	0	0	0	0	532	632	
12	0	0	0	0	534	632	
13	0	0	0	0	534	632	
14	0	0	0	0	533	632	
15	0	0	0	0	532	632	
0	0	0	0	0	530	632	
1	0	0	0	0	529	632	
2	0	0	0	0	527	632	
3	0	0	0	0	524	632	
4	0	0	0	0	521	632	
5	0	0	0	0	519	632	
6	0	0	0	0	518	632	
7	0	0	0	0	516	632	
8	0	0	0	0	515	632	
9	0	0	0	0	514	632	
10	0	0	0	0	514	632	
11	0	0	0	0	515	632	
12	0	0	0	0	516	632	
13	0	0	0	0	515	632	
14	0	0	0	0	515	632	
15	0	0	0	0	515	632	
0	0	0	0	0	516	632	
1	0	0	0	0	517	632	
2	0	0	0	0	519	632	
3	0	0	0	0	521	632	
4	0	0	0	0	524	632	
5	0	0	0	0	526	632	
6	0	0	0	0	528	632	
7	0	0	0	0	529	632	
8	0	0	0	0	529	632	
9	0	0	0	0	532	632	
10	0	0	0	0	534	632	
11	0	0	0	0	535	632	
12	0	0	0	0	535	632	
13	0	0	0	0	535	632	
14	0	0	0	0	536	632	
15	0	0	0	0	536	632	
0	0	0	0	0	534	632	
1	0	0	0	0	533	632	
2	0	0	0	0	533	632	
3	0	0	0	0	534	632	
4	0	0	0	0	535	632	
5	0	0	0	0	537	632	
6	0	0	0	0	539	632	
7	0	0	0	0	540	632	
8	0	0	0	0	542	632	
9	0	0	0	0	544	632	
10	0	0	0	0	546	632	
11	0	0	0	0	546	631	
12	0	0	0	0	548	632	
13	0	0	0	0	550	631	
14	0	0	0	0	551	631	
15	0	0	0	0	551	632	
0	0	0	0	0	552	632	
1	0	0	0	0	553	631	
2	0	0	0	0	554	632	
3	0	0	0	0	555	632	
4	0	0	0	0	555	632	
5	0	0	0	0	555	632	
6	0	0	0	0	554	631	
7	0	0	0	0	554	632	
8	0	0	0	0	554	631	
9	0	0	0	0	553	632	
10	0	0	0	0	551	631	
11	0	0	0	0	551	632	
12	0	0	0	0	551	631	
13	0	0	0	0	550	631	
14	0	0	0	0	550	632	
15	0	0	0	0	548	631	
0	0	0	0	0	546	631	
1	0	0	0	0	544	631	
2	0	0	0	0	543	631	
3	0	0	0	0	541	632	
4	0	0	0	0	539	631	
5	0	0	0	0	537	631	
6	0	0	0	0	536	631	
7	0	0	0	0	535	631	
8	0	0	0	0	534	631	
9	0	0	0	0	533	631	
10	0	0	0	0	533	631	
11	0	0	0	0	531	631	
12	0	0	0	0	530	631	
13	0	0	0	0	530	631	
14	0	0	0	0	530	631	
15	0	0	0	0	529	631	
0	0	0	0	0	528	631	
1	0	0	0	0	528	631	
2	0	0	0	0	528	631	
3	0	0	0	0	529	631	
4	0	0	0	0	530	631	
5	0	0	0	0	530	631	
6	0	0	0	0	530	631	
7	0	0	0	0	530	631	
8	0	0	0	0	530	631	
9	0	0	0	0	530	631	
10	0	0	0	0	531	631	
11	0	0	0	0	532	631	
12	0	0	0	0	533	631	
13	0	0	0	0	534	631	
14	0	0	0	0	535	631	
15	0	0	0	0	536	631	
0	0	0	0	0	537	631	
1	0	0	0	0	539	631	
2	0	0	0	0	540	631	
3	0	0	0	0	542	631	
4	0	0	0	0	543	631	
5	0	0	0	0	543	631	
6	0	0	0	0	543	631	
7	0	0	0	0	543	631	
8	0	0	0	0	543	631	
9	0	0	0	0	543	631	
10	0	0	0	0	543	631	
11	0	0	0	0	542	631	
12	0	0	0	0	543	631	
13	0	0	0	0	543	631	
14	0	0	0	0	543	631	
15	0	0	0	0	544	630	
0	0	0	0	0	545	631	
1	0	0	0	0	547	631	
2	0	0	0	0	548	631	
3	0	0	0	0	549	631	
4	0	0	0	0	549	630	
5	0	0	0	0	549	631	
6	0	0	0	0	548	631	
7	0	0	0	0	548	631	
8	0	0	0	0	548	630	
9	0	0	0	0	549	630	
10	0	0	0	0	550	631	
11	0	0	0	0	550	631	
12	0	0	0	0	551	631	
13	0	0	0	0	551	630	
14	0	0	0	0	552	630	
15	0	0	0	0	554	631	
0	0	0	0	0	556	630	
1	0	0	0	0	558	630	
2	0	0	0	0	559	631	
3	0	0	0	0	560	630	
4	0	0	0	0	560	630	
5	0	0	0	0	561	630	
6	0	0	0	0	563	631	
7	0	0	0	0	561	630	
8	0	0	0	0	560	630	
9	0	0	0	0	562	630	
10	0	0	0	0	562	630	
11	0	0	0	0	562	630	
12	0	0	0	0	561	630	
13	0	0	0	0	561	630	
14	0	0	0	0	563	630	
15	0	0	0	0	562	630	
0	0	0	0	0	563	630	
1	0	0	0	0	565	630	
2	0	0	0	0	565	630	
3	0	0	0	0	565	630	
4	0	0	0	0	566	630	
5	0	0	0	0	566	630	
6	0	0	0	0	567	630	
7	0	0	0	0	567	630	
8	0	0	0	0	567	630	
9	0	0	0	0	566	630	
10	0	0	0	0	564	630	
11	0	0	0	0	564	630	
12	0	0	0	0	563	630	
13	0	0	0	0	563	630	
14	0	0	0	0	561	630	
15	0	0	0	0	560	630	
0	0	0	0	0	559	630	
1	0	0	0	0	560	630	
2	0	0	0	0	559	630	
3	0	0	0	0	558	630	
4	0	0	0	0	557	630	
5	0	0	0	0	556	630	
6	0	0	0	0	554	630	
7	0	0	0	0	552	630	
8	0	0	0	0	551	630	
9	0	0	0	0	550	630	
10	0	0	0	0	549	630	
11	0	0	0	0	548	630	
12	0	0	0	0	548	630	
13	0	0	0	0	546	630	
14	0	0	0	0	545	630	
15	0	0	0	0	543	630	
0	0	0	0	0	542	630	
1	0	0	0	0	540	630	
2	0	0	0	0	540	630	
3	0	0	0	0	542	630	
4	0	0	0	0	542	630	
5	0	0	0	0	542	630	
6	0	0	0	0	543	630	
7	0	0	0	0	543	630	
8	0	0	0	0	542	630	
9	0	0	0	0	542	630	
10	0	0	0	0	542	630	
11	0	0	0	0	542	630	
12	0	0	0	0	539	630	
13	0	0	0	0	537	630	
14	0	0	0	0	535	630	
15	0	0	0	0	533	629	
0	0	0	0	0	533	630	
1	0	0	0	0	532	630	
2	0	0	0	0	532	630	
3	0	0	0	0	533	630	
4	0	0	0	0	533	629	
5	0	0	0	0	535	630	
6	0	0	0	0	536	629	
7	0	0	0	0	537	630	
8	0	0	0	0	538	629	
9	0	0	0	0	538	629	
10	0	0	0	0	538	630	
11	0	0	0	0	537	629	
12	0	0	0	0	536	629	
13	0	0	0	0	534	629	
14	0	0	0	0	532	629	
15	0	0	0	0	532	629	
0	0	0	0	0	533	629	
1	0	0	0	0	533	629	
2	0	0	0	0	532	629	
3	0	0	0	0	531	629	
4	0	0	0	0	530	629	
5	0	0	0	0	531	629	
6	0	0	0	0	531	629	
7	0	0	0	0	530	629	
8	0	0	0	0	530	629	
9	0	0	0	0	530	630	
10	0	0	0	0	531	629	
11	0	0	0	0	531	629	
12	0	0	0	0	532	629	
13	0	0	0	0	533	629	
14	0	0	0	0	534	629	
15	0	0	0	0	535	629	
0	0	0	0	0	536	629	
1	0	0	0	0	536	629	
2	0	0	0	0	536	629	
3	0	0	0	0	535	629	
4	0	0	0	0	534	629	
5	0	0	0	0	534	629	
6	0	0	0	0	534	629	
7	0	0	0	0	534	629	
8	0	0	0	0	533	629	
9	0	0	0	0	533	629	
10	0	0	0	0	533	629	
11	0	0	0	0	533	629	
12	0	0	0	0	534	629	
13	0	0	0	0	535	629	
14	0	0	0	0	534	629	
15	0	0	0	0	532	629	
0	0	0	0	0	530	629	
1	0	0	0	0	529	629	
2	0	0	0	0	529	629	
3	0	0	0	0	530	629	
4	0	0	0	0	531	629	
5	0	0	0	0	530	628	
6	0	0	0	0	529	629	
7	0	0	0	0	528	629	
8	0	0	0	0	527	629	
9	0	0	0	0	528	629	
10	0	0	0	0	529	629	
11	0	0	0	0	530	629	
12	0	0	0	0	529	629	
13	0	0	0	0	529	629	
14	0	0	0	0	529	629	
15	0	0	0	0	529	629	
0	0	0	0	0	529	628	
1	0	0	0	0	529	629	
2	0	0	0	0	529	628	
3	0	0	0	0	529	629	
4	0	0	0	0	529	628	
5	0	0	0	0	530	628	
6	0	0	0	0	530	628	
7	0	0	0	0	530	629	
8	0	0	0	0	529	629	
9	0	0	0	0	528	628	
10	0	0	0	0	527	629	
11	0	0	0	0	527	629	
12	0	0	0	0	526	628	
13	0	0	0	0	526	628	
14	0	0	0	0	526	628	
15	0	0	0	0	526	628	
0	0	0	0	0	526	629	
1	0	0	0	0	526	628	
2	0	0	0	0	526	629	
3	0	0	0	0	525	628	
4	0	0	0	0	524	628	
5	0	0	0	0	525	628	
6	0	0	0	0	526	628	
7	0	0	0	0	526	628	
8	0	0	0	0	527	628	
9	0	0	0	0	527	628	
10	0	0	0	0	527	629	
11	0	0	0	0	527	628	
12	0	0	0	0	528	628	
13	0	0	0	0	529	628	
14	0	0	0	0	528	628	
15	0	0	0	0	528	629	
0	0	0	0	0	529	628	
1	0	0	0	0	529	628	
2	0	0	0	0	530	628	
3	0	0	0	0	531	628	
4	0	0	0	0	531	628	
5	0	0	0	0	532	628	
6	0	0	0	0	534	628	
7	0	0	0	0	535	628	
8	0	0	0	0	536	628	
9	0	0	0	0	536	628	
10	0	0	0	0	536	628	
11	0	0	0	0	536	628	
12	0	0	0	0	537	628	
13	0	0	0	0	537	628	
14	0	0	0	0	536	628	
15	0	0	0	0	535	628	
0	0	0	0	0	535	628	
1	0	0	0	0	534	628	
2	0	0	0	0	532	628	
3	0	0	0	0	532	628	
4	0	0	0	0	531	628	
5	0	0	0	0	532	628	
6	0	0	0	0	534	628	
7	0	0	0	0	534	628	
8	0	0	0	0	535	628	
9	0	0	0	0	536	628	
10	0	0	0	0	536	628	
11	0	0	0	0	536	628	
12	0	0	0	0	536	628	
13	0	0	0	0	536	628	
14	0	0	0	0	536	628	
15	0	0	0	0	536	628	
0	0	0	0	0	535	628	
1	0	0	0	0	536	628	
2	0	0	0	0	535	628	
3	0	0	0	0	534	628	
4	0	0	0	0	534	628	
5	0	0	0	0	533	628	
6	0	0	0	0	534	628	
7	0	0	0	0	534	628	
8	0	0	0	0	536	628	
9	0	0	0	0	536	628	
10	0	0	0	0	536	628	
11	0	0	0	0	535	628	
12	0	0	0	0	534	628	
13	0	0	0	0	534	628	
14	0	0	0	0	534	628	
15	0	0	0	0	533	628	
0	0	0	0	0	531	628	
1	0	0	0	0	530	628	
2	0	0	0	0	529	628	
3	0	0	0	0	528	628	
4	0	0	0	0	527	628	
5	0	0	0	0	527	628	
6	0	0	0	0	527	628	
7	0	0	0	0	525	628	
8	0	0	0	0	525	628	
9	0	0	0	0	525	627	
10	0	0	0	0	525	628	
11	0	0	0	0	525	628	
12	0	0	0	0	524	628	
13	0	0	0	0	524	628	
14	0	0	0	0	523	628	
15	0	0	0	0	522	628	
0	0	0	0	0	521	628	
1	0	0	0	0	521	628	
2	0	0	0	0	521	628	
3	0	0	0	0	519	627	
4	0	0	0	0	519	628	
5	0	0	0	0	519	628	
6	0	0	0	0	519	628	
7	0	0	0	0	519	627	
8	0	0	0	0	518	627	
9	0	0	0	0	520	627	
10	0	0	0	0	522	628	
11	0	0	0	0	523	627	
12	0	0	0	0	524	627	
13	0	0	0	0	523	627	
14	0	0	0	0	524	628	
15	0	0	0	0	524	628	
0	0	0	0	0	524	628	
1	0	0	0	0	524	628	
2	0	0	0	0	521	627	
3	0	0	0	0	520	627	
4	0	0	0	0	520	628	
5	0	0	0	0	520	628	
6	0	0	0	0	520	628	
7	0	0	0	0	521	627	
8	0	0	0	0	522	627	
9	0	0	0	0	523	628	
10	0	0	0	0	523	627	
11	0	0	0	0	521	627	
12	0	0	0	0	521	627	
13	0	0	0	0	521	627	
14	0	0	0	0	521	628	
15	0	0	0	0	522	627	
0	0	0	0	0	522	627	
1	0	0	0	0	522	627	
2	0	0	0	0	523	627	
3	0	0	0	0	524	628	
4	0	0	0	0	524	627	
5	0	0	0	0	525	627	
6	0	0	0	0	526	627	
7	0	0	0	0	526	627	
8	0	0	0	0	527	628	
9	0	0	0	0	527	627	
10	0	0	0	0	528	627	
11	0	0	0	0	530	627	
12	0	0	0	0	531	627	
13	0	0	0	0	532	628	
14	0	0	0	0	533	627	
15	0	0	0	0	534	627	
0	0	0	0	0	535	627	
1	0	0	0	0	535	627	
2	0	0	0	0	535	627	
3	0	0	0	0	534	627	
4	0	0	0	0	534	627	
5	0	0	0	0	533	627	
6	0	0	0	0	532	627	
7	0	0	0	0	531	627	
8	0	0	0	0	531	627	
9	0	0	0	0	532	627	
10	0	0	0	0	532	627	
11	0	0	0	0	532	627	
12	0	0	0	0	531	627	
13	0	0	0	0	530	627	
14	0	0	0	0	529	627	
15	0	0	0	0	527	627	
0	0	0	0	0	526	627	
1	0	0	0	0	525	628	
2	0	0	0	0	523	627	
3	0	0	0	0	522	627	
4	0	0	0	0	519	627	
5	0	0	0	0	518	627	
6	0	0	0	0	516	627	
7	0	0	0	0	515	627	
8	0	0	0	0	516	627	
9	0	0	0	0	516	627	
10	0	0	0	0	517	627	
11	0	0	0	0	517	627	
12	0	0	0	0	518	627	
13	0	0	0	0	519	627	
14	0	0	0	0	520	627	
15	0	0	0	0	522	627	
0	0	0	0	0	524	627	
1	0	0	0	0	525	627	
2	0	0	0	0	526	627	
3	0	0	0	0	527	627	
4	0	0	0	0	527	627	
5	0	0	0	0	527	627	
6	0	0	0	0	527	627	
7	0	0	0	0	527	627	
8	0	0	0	0	525	627	
9	0	0	0	0	524	627	
10	0	0	0	0	524	627	
11	0	0	0	0	525	627	
12	0	0	0	0	526	627	
13	0	0	0	0	527	627	
14	0	0	0	0	529	627	
15	0	0	0	0	530	627	
0	0	0	0	0	531	627	
1	0	0	0	0	532	627	
2	0	0	0	0	533	627	
3	0	0	0	0	534	627	
4	0	0	0	0	532	627	
5	0	0	0	0	532	627	
6	0	0	0	0	531	627	
7	0	0	0	0	529	627	
8	0	0	0	0	528	627	
9	0	0	0	0	528	627	
10	0	0	0	0	529	627	
11	0	0	0	0	530	627	
12	0	0	0	0	530	627	
13	0	0	0	0	529	627	
14	0	0	0	0	528	627	
15	0	0	0	0	527	627	
0	0	0	0	0	527	627	
1	0	0	0	0	527	627	
2	0	0	0	0	526	627	
3	0	0	0	0	527	627	
4	0	0	0	0	526	627	
5	0	0	0	0	525	627	
6	0	0	0	0	524	627	
7	0	0	0	0	524	627	
8	0	0	0	0	523	627	
9	0	0	0	0	523	627	
10	0	0	0	0	521	627	
11	0	0	0	0	520	627	
12	0	0	0	0	521	627	
13	0	0	0	0	522	627	
14	0	0	0	0	523	627	
15	0	0	0	0	524	627	
0	0	0	0	0	524	627	
1	0	0	0	0	523	627	
2	0	0	0	0	523	627	
3	0	0	0	0	524	627	
4	0	0	0	0	525	627	
5	0	0	0	0	526	627	
6	0	0	0	0	527	627	
7	0	0	0	0	528	627	
8	0	0	0	0	528	627	
9	0	0	0	0	528	627	
10	0	0	0	0	527	627	
11	0	0	0	0	526	627	
12	0	0	0	0	526	627	
13	0	0	0	0	526	627	
14	0	0	0	0	527	627	
15	0	0	0	0	526	627	
0	0	0	0	0	526	627	
1	0	0	0	0	526	627	
2	0	0	0	0	525	627	
3	0	0	0	0	526	627	
4	0	0	0	0	526	627	
5	0	0	0	0	527	627	
6	0	0	0	0	527	627	
7	0	0	0	0	526	627	
8	0	0	0	0	525	627	
9	0	0	0	0	524	627	
10	0	0	0	0	524	627	
11	0	0	0	0	523	627	
12	0	0	0	0	523	627	
13	0	0	0	0	523	627	
14	0	0	0	0	524	627	
15	0	0	0	0	525	627	
0	0	0	0	0	526	627	
1	0	0	0	0	528	627	
2	0	0	0	0	529	627	
3	0	0	0	0	531	627	
4	0	0	0	0	531	627	
5	0	0	0	0	532	627	
6	0	0	0	0	534	627	
7	0	0	0	0	534	627	
8	0	0	0	0	535	627	
9	0	0	0	0	535	627	
10	0	0	0	0	536	627	
11	0	0	0	0	536	627	
12	0	0	0	0	537	627	
13	0	0	0	0	538	627	
14	0	0	0	0	540	627	
15	0	0	0	0	541	627	
0	0	0	0	0	542	627	
1	0	0	0	0	543	627	
2	0	0	0	0	545	627	
3	0	0	0	0	546	626	
4	0	0	0	0	547	627	
5	0	0	0	0	548	627	
6	0	0	0	0	550	627	
7	0	0	0	0	551	627	
8	0	0	0	0	553	627	
9	0	0	0	0	554	627	
10	0	0	0	0	555	627	
11	0	0	0	0	556	627	
12	0	0	0	0	556	627	
13	0	0	0	0	557	627	
14	0	0	0	0	558	627	
15	0	0	0	0	558	627	
0	0	0	0	0	560	627	
1	0	0	0	0	561	627	
2	0	0	0	0	562	627	
3	0	0	0	0	563	627	
4	0	0	0	0	564	627	
5	0	0	0	0	564	627	
6	0	0	0	0	565	627	
7	0	0	0	0	566	627	
8	0	0	0	0	568	627	
9	0	0	0	0	569	627	
10	0	0	0	0	568	627	
11	0	0	0	0	569	627	
12	0	0	0	0	570	626	
13	0	0	0	0	572	627	
14	0	0	0	0	574	627	
15	0	0	0	0	575	627	
0	0	0	0	0	576	627	
1	0	0	0	0	577	626	
2	0	0	0	0	578	627	
3	0	0	0	0	579	627	
4	0	0	0	0	579	627	
5	0	0	0	0	579	627	
6	0	0	0	0	580	627	
7	0	0	0	0	580	627	
8	0	0	0	0	579	627	
9	0	0	0	0	578	627	
10	0	0	0	0	576	627	
11	0	0	0	0	575	627	
12	0	0	0	0	575	627	
13	0	0	0	0	573	627	
14	0	0	0	0	572	626	
15	0	0	0	0	571	627	
0	0	0	0	0	570	626	
1	0	0	0	0	569	627	
2	0	0	0	0	568	627	
3	0	0	0	0	568	627	
4	0	0	0	0	568	627	
5	0	0	0	0	567	626	
6	0	0	0	0	565	627	
7	0	0	0	0	563	627	
8	0	0	0	0	560	627	
9	0	0	0	0	557	627	
10	0	0	0	0	554	626	
11	0	0	0	0	551	627	
12	0	0	0	0	549	626	
13	0	0	0	0	547	627	
14	0	0	0	0	545	627	
15	0	0	0	0	542	626	
0	0	0	0	0	540	627	
1	0	0	0	0	539	626	
2	0	0	0	0	537	627	
3	0	0	0	0	536	626	
4	0	0	0	0	534	626	
5	0	0	0	0	533	627	
6	0	0	0	0	532	627	
7	0	0	0	0	531	626	
8	0	0	0	0	532	627	
9	0	0	0	0	531	626	
10	0	0	0	0	531	627	
11	0	0	0	0	529	626	
12	0	0	0	0	527	626	
13	0	0	0	0	525	627	
14	0	0	0	0	522	626	
15	0	0	0	0	521	627	
0	0	0	0	0	520	626	
1	0	0	0	0	519	626	
2	0	0	0	0	519	627	
3	0	0	0	0	518	626	
4	0	0	0	0	518	627	
5	0	0	0	0	518	626	
6	0	0	0	0	517	627	
7	0	0	0	0	516	626	
8	0	0	0	0	515	626	
9	0	0	0	0	514	627	
10	0	0	0	0	512	626	
11	0	0	0	0	511	626	
12	0	0	0	0	508	626	
13	0	0	0	0	505	626	
14	0	0	0	0	505	627	
15	0	0	0	0	505	626	
0	0	0	0	0	505	626	
1	0	0	0	0	504	626	
2	0	0	0	0	505	626	
3	0	0	0	0	505	627	
4	0	0	0	0	505	626	
5	0	0	0	0	506	626	
6	0	0	0	0	506	626	
7	0	0	0	0	505	626	
8	0	0	0	0	506	626	
9	0	0	0	0	507	626	
10	0	0	0	0	508	626	
11	0	0	0	0	508	626	
12	0	0	0	0	508	626	
13	0	0	0	0	509	626	
14	0	0	0	0	510	626	
15	0	0	0	0	510	626	
0	0	0	0	0	509	626	
1	0	0	0	0	509	626	
2	0	0	0	0	510	626	
3	0	0	0	0	510	626	
4	0	0	0	0	511	626	
5	0	0	0	0	512	626	
6	0	0	0	0	513	626	
7	0	0	0	0	512	626	
8	0	0	0	0	512	626	
9	0	0	0	0	511	626	
10	0	0	0	0	510	626	
11	0	0	0	0	508	626	
12	0	0	0	0	505	626	
13	0	0	0	0	502	626	
14	0	0	0	0	499	626	
15	0	0	0	0	497	626	
0	0	0	0	0	496	626	
1	0	0	0	0	494	626	
2	0	0	0	0	493	626	
3	0	0	0	0	493	626	
4	0	0	0	0	492	626	
5	0	0	0	0	491	626	
6	0	0	0	0	492	626	
7	0	0	0	0	493	626	
8	0	0	0	0	495	626	
9	0	0	0	0	497	626	
10	0	0	0	0	499	626	
11	0	0	0	0	501	626	
12	0	0	0	0	504	626	
13	0	0	0	0	507	626	
14	0	0	0	0	509	626	
15	0	0	0	0	510	626	
0	0	0	0	0	512	626	
1	0	0	0	0	512	626	
2	0	0	0	0	513	626	
3	0	0	0	0	513	626	
4	0	0	0	0	514	626	
5	0	0	0	0	514	626	
6	0	0	0	0	514	626	
7	0	0	0	0	512	626	
8	0	0	0	0	512	626	
9	0	0	0	0	511	626	
10	0	0	0	0	512	626	
11	0	0	0	0	514	626	
12	0	0	0	0	515	626	
13	0	0	0	0	516	626	
14	0	0	0	0	518	626	
15	0	0	0	0	520	626	
0	0	0	0	0	520	626	
1	0	0	0	0	521	626	
2	0	0	0	0	522	626	
3	0	0	0	0	522	625	
4	0	0	0	0	524	626	
5	0	0	0	0	524	625	
6	0	0	0	0	524	626	
7	0	0	0	0	524	626	
8	0	0	0	0	524	626	
9	0	0	0	0	523	626	
10	0	0	0	0	521	625	
11	0	0	0	0	519	625	
12	0	0	0	0	518	626	
13	0	0	0	0	516	626	
14	0	0	0	0	516	626	
15	0	0	0	0	515	625	
0	0	0	0	0	515	626	
1	0	0	0	0	514	625	
2	0	0	0	0	513	626	
3	0	0	0	0	512	626	
4	0	0	0	0	511	625	
5	0	0	0	0	510	626	
6	0	0	0	0	509	625	
7	0	0	0	0	508	625	
8	0	0	0	0	507	626	
9	0	0	0	0	505	625	
10	0	0	0	0	503	626	
11	0	0	0	0	501	625	
12	0	0	0	0	499	625	
13	0	0	0	0	497	626	
14	0	0	0	0	496	625	
15	0	0	0	0	495	626	
0	0	0	0	0	493	625	
1	0	0	0	0	492	625	
2	0	0	0	0	491	626	
3	0	0	0	0	491	625	
4	0	0	0	0	492	625	
5	0	0	0	0	492	625	
6	0	0	0	0	493	625	
7	0	0	0	0	492	625	
8	0	0	0	0	491	625	
9	0	0	0	0	491	625	
10	0	0	0	0	490	625	
11	0	0	0	0	489	625	
12	0	0	0	0	490	626	
13	0	0	0	0	491	625	
14	0	0	0	0	492	625	
15	0	0	0	0	492	625	
0	0	0	0	0	492	625	
1	0	0	0	0	492	625	
2	0	0	0	0	492	625	
3	0	0	0	0	491	625	
4	0	0	0	0	491	625	
5	0	0	0	0	492	625	
6	0	0	0	0	493	625	
7	0	0	0	0	495	625	
8	0	0	0	0	496	625	
9	0	0	0	0	498	625	
10	0	0	0	0	501	625	
11	0	0	0	0	504	625	
12	0	0	0	0	505	625	
13	0	0	0	0	508	625	
14	0	0	0	0	510	625	
15	0	0	0	0	510	625	
0	0	0	0	0	510	625	
1	0	0	0	0	510	625	
2	0	0	0	0	511	625	
3	0	0	0	0	510	625	
4	0	0	0	0	510	625	
5	0	0	0	0	509	625	
6	0	0	0	0	509	625	
7	0	0	0	0	510	625	
8	0	0	0	0	511	625	
9	0	0	0	0	512	625	
10	0	0	0	0	514	625	
11	0	0	0	0	517	625	
12	0	0	0	0	520	625	
13	0	0	0	0	521	625	
14	0	0	0	0	524	625	
15	0	0	0	0	526	625	
0	0	0	0	0	528	625	
1	0	0	0	0	530	625	
2	0	0	0	0	532	625	
3	0	0	0	0	536	625	
4	0	0	0	0	537	625	
5	0	0	0	0	539	625	
6	0	0	0	0	541	625	
7	0	0	0	0	543	625	
8	0	0	0	0	545	625	
9	0	0	0	0	547	625	
10	0	0	0	0	550	625	
11	0	0	0	0	553	625	
12	0	0	0	0	556	625	
13	0	0	0	0	559	625	
14	0	0	0	0	561	625	
15	0	0	0	0	563	625	
0	0	0	0	0	563	625	
1	0	0	0	0	565	625	
2	0	0	0	0	566	625	
3	0	0	0	0	567	625	
4	0	0	0	0	568	625	
5	0	0	0	0	568	625	
6	0	0	0	0	570	625	
7	0	0	0	0	571	625	
8	0	0	0	0	572	625	
9	0	0	0	0	573	625	
10	0	0	0	0	575	625	
11	0	0	0	0	576	625	
12	0	0	0	0	578	625	
13	0	0	0	0	579	625	
14	0	0	0	0	580	625	
15	0	0	0	0	580	625	
0	0	0	0	0	578	625	
1	0	0	0	0	577	625	
2	0	0	0	0	574	625	
3	0	0	0	0	571	625	
4	0	0	0	0	568	625	
5	0	0	0	0	564	625	
6	0	0	0	0	560	625	
7	0	0	0	0	557	625	
8	0	0	0	0	553	625	
9	0	0	0	0	549	625	
10	0	0	0	0	545	625	
11	0	0	0	0	542	625	
12	0	0	0	0	538	625	
13	0	0	0	0	535	625	
14	0	0	0	0	532	625	
15	0	0	0	0	529	625	
0	0	0	0	0	524	625	
1	0	0	0	0	519	625	
2	0	0	0	0	514	625	
3	0	0	0	0	510	625	
4	0	0	0	0	504	625	
5	0	0	0	0	499	625	
6	0	0	0	0	495	625	
7	0	0	0	0	492	625	
8	0	0	0	0	488	625	
9	0	0	0	0	484	625	
10	0	0	0	0	481	625	
11	0	0	0	0	480	625	
12	0	0	0	0	479	625	
13	0	0	0	0	477	625	
14	0	0	0	0	477	625	
15	0	0	0	0	476	625	
0	0	0	0	0	474	625	
1	0	0	0	0	472	625	
2	0	0	0	0	471	625	
3	0	0	0	0	469	625	
4	0	0	0	0	468	625	
5	0	0	0	0	466	625	
6	0	0	0	0	463	625	
7	0	0	0	0	462	625	
8	0	0	0	0	461	625	
9	0	0	0	0	459	625	
10	0	0	0	0	458	625	
11	0	0	0	0	458	625	
12	0	0	0	0	458	625	
13	0	0	0	0	458	625	
14	0	0	0	0	459	625	
15	0	0	0	0	460	625	
0	0	0	0	0	460	625	
1	0	0	0	0	460	625	
2	0	0	0	0	459	624	
3	0	0	0	0	459	625	
4	0	0	0	0	458	625	
5	0	0	0	0	456	625	
6	0	0	0	0	456	625	
7	0	0	0	0	456	625	
8	0	0	0	0	457	625	
9	0	0	0	0	457	625	
10	0	0	0	0	457	625	
11	0	0	0	0	458	625	
12	0	0	0	0	459	625	
13	0	0	0	0	461	624	
14	0	0	0	0	463	625	
15	0	0	0	0	465	625	
0	0	0	0	0	467	625	
1	0	0	0	0	470	625	
2	0	0	0	0	473	624	
3	0	0	0	0	476	625	
4	0	0	0	0	478	625	
5	0	0	0	0	480	625	
6	0	0	0	0	482	625	
7	0	0	0	0	484	625	
8	0	0	0	0	487	625	
9	0	0	0	0	489	624	
10	0	0	0	0	492	624	
11	0	0	0	0	495	624	
12	0	0	0	0	498	625	
13	0	0	0	0	502	625	
14	0	0	0	0	505	624	
15	0	0	0	0	509	624	
0	0	0	0	0	514	625	
1	0	0	0	0	517	624	
2	0	0	0	0	520	625	
3	0	0	0	0	524	624	
4	0	0	0	0	527	625	
5	0	0	0	0	529	625	
6	0	0	0	0	530	624	
7	0	0	0	0	533	625	
8	0	0	0	0	535	624	
9	0	0	0	0	536	624	
10	0	0	0	0	536	625	
11	0	0	0	0	537	624	
12	0	0	0	0	537	625	
13	0	0	0	0	538	624	
14	0	0	0	0	539	624	
15	0	0	0	0	541	624	
0	0	0	0	0	542	624	
1	0	0	0	0	543	625	
2	0	0	0	0	543	624	
3	0	0	0	0	544	625	
4	0	0	0	0	545	625	
5	0	0	0	0	543	624	
6	0	0	0	0	542	625	
7	0	0	0	0	541	624	
8	0	0	0	0	539	625	
9	0	0	0	0	537	624	
10	0	0	0	0	536	624	
11	0	0	0	0	534	625	
12	0	0	0	0	532	624	
13	0	0	0	0	531	624	
14	0	0	0	0	529	625	
15	0	0	0	0	529	624	
0	0	0	0	0	527	625	
1	0	0	0	0	526	624	
2	0	0	0	0	524	624	
3	0	0	0	0	523	624	
4	0	0	0	0	520	624	
5	0	0	0	0	519	625	
6	0	0	0	0	517	624	
7	0	0	0	0	515	624	
8	0	0	0	0	512	625	
9	0	0	0	0	509	624	
10	0	0	0	0	504	625	
11	0	0	0	0	502	624	
12	0	0	0	0	500	624	
13	0	0	0	0	497	625	
14	0	0	0	0	496	624	
15	0	0	0	0	494	625	
0	0	0	0	0	493	624	
1	0	0	0	0	492	624	
2	0	0	0	0	492	624	
3	0	0	0	0	492	624	
4	0	0	0	0	492	624	
5	0	0	0	0	491	624	
6	0	0	0	0	488	624	
7	0	0	0	0	485	624	
8	0	0	0	0	482	624	
9	0	0	0	0	480	625	
10	0	0	0	0	478	624	
11	0	0	0	0	476	624	
12	0	0	0	0	475	624	
13	0	0	0	0	475	624	
14	0	0	0	0	473	624	
15	0	0	0	0	472	624	
0	0	0	0	0	472	624	
1	0	0	0	0	472	624	
2	0	0	0	0	471	624	
3	0	0	0	0	472	625	
4	0	0	0	0	472	624	
5	0	0	0	0	472	624	
6	0	0	0	0	472	624	
7	0	0	0	0	472	624	
8	0	0	0	0	472	624	
9	0	0	0	0	473	624	
10	0	0	0	0	475	624	
11	0	0	0	0	475	624	
12	0	0	0	0	476	624	
13	0	0	0	0	477	624	
14	0	0	0	0	481	624	
15	0	0	0	0	484	624	
0	0	0	0	0	486	624	
1	0	0	0	0	489	624	
2	0	0	0	0	492	624	
3	0	0	0	0	496	624	
4	0	0	0	0	502	624	
5	0	0	0	0	505	624	
6	0	0	0	0	510	624	
7	0	0	0	0	513	624	
8	0	0	0	0	516	624	
9	0	0	0	0	520	624	
10	0	0	0	0	523	624	
11	0	0	0	0	525	624	
12	0	0	0	0	528	624	
13	0	0	0	0	530	624	
14	0	0	0	0	533	624	
15	0	0	0	0	536	624	
0	0	0	0	0	537	624	
1	0	0	0	0	539	624	
2	0	0	0	0	542	624	
3	0	0	0	0	546	624	
4	0	0	0	0	549	624	
5	0	0	0	0	550	624	
6	0	0	0	0	551	624	
7	0	0	0	0	554	624	
8	0	0	0	0	556	624	
9	0	0	0	0	556	624	
10	0	0	0	0	555	624	
11	0	0	0	0	556	624	
12	0	0	0	0	556	624	
13	0	0	0	0	556	624	
14	0	0	0	0	558	624	
15	0	0	0	0	559	624	
0	0	0	0	0	561	624	
1	0	0	0	0	561	624	
2	0	0	0	0	562	624	
3	0	0	0	0	563	624	
4	0	0	0	0	564	624	
5	0	0	0	0	565	624	
6	0	0	0	0	567	624	
7	0	0	0	0	568	624	
8	0	0	0	0	568	624	
9	0	0	0	0	568	624	
10	0	0	0	0	567	624	
11	0	0	0	0	566	624	
12	0	0	0	0	564	624	
13	0	0	0	0	562	624	
14	0	0	0	0	560	624	
15	0	0	0	0	559	624	
0	0	0	0	0	557	624	
1	0	0	0	0	556	624	
2	0	0	0	0	554	624	
3	0	0	0	0	552	624	
4	0	0	0	0	550	624	
5	0	0	0	0	547	624	
6	0	0	0	0	545	624	
7	0	0	0	0	542	624	
8	0	0	0	0	541	624	
9	0	0	0	0	540	624	
10	0	0	0	0	538	624	
11	0	0	0	0	538	624	
12	0	0	0	0	536	624	
13	0	0	0	0	534	624	
14	0	0	0	0	532	624	
15	0	0	0	0	530	624	
0	0	0	0	0	529	624	
1	0	0	0	0	526	624	
2	0	0	0	0	524	624	
3	0	0	0	0	523	624	
4	0	0	0	0	523	624	
5	0	0	0	0	523	624	
6	0	0	0	0	522	624	
7	0	0	0	0	521	624	
8	0	0	0	0	521	624	
9	0	0	0	0	521	624	
10	0	0	0	0	520	624	
11	0	0	0	0	519	624	
12	0	0	0	0	518	624	
13	0	0	0	0	517	624	
14	0	0	0	0	515	624	
15	0	0	0	0	515	624	
0	0	0	0	0	514	624	
1	0	0	0	0	515	624	
2	0	0	0	0	515	624	
3	0	0	0	0	514	624	
4	0	0	0	0	516	624	
5	0	0	0	0	518	624	
6	0	0	0	0	519	624	
7	0	0	0	0	522	624	
8	0	0	0	0	524	624	
9	0	0	0	0	525	624	
10	0	0	0	0	526	624	
11	0	0	0	0	527	624	
12	0	0	0	0	527	624	
13	0	0	0	0	526	624	
14	0	0	0	0	526	624	
15	0	0	0	0	524	624	
0	0	0	0	0	525	624	
1	0	0	0	0	524	624	
2	0	0	0	0	524	624	
3	0	0	0	0	524	624	
4	0	0	0	0	525	624	
5	0	0	0	0	526	624	
6	0	0	0	0	528	624	
7	0	0	0	0	531	624	
8	0	0	0	0	532	624	
9	0	0	0	0	533	624	
10	0	0	0	0	534	624	
11	0	0	0	0	536	624	
12	0	0	0	0	537	624	
13	0	0	0	0	539	624	
14	0	0	0	0	540	624	
15	0	0	0	0	542	624	
0	0	0	0	0	542	624	
1	0	0	0	0	543	624	
2	0	0	0	0	544	624	
3	0	0	0	0	547	624	
4	0	0	0	0	551	624	
5	0	0	0	0	554	624	
6	0	0	0	0	557	624	
7	0	0	0	0	560	624	
8	0	0	0	0	561	624	
9	0	0	0	0	564	624	
10	0	0	0	0	566	624	
11	0	0	0	0	568	624	
12	0	0	0	0	569	624	
13	0	0	0	0	572	624	
14	0	0	0	0	574	624	
15	0	0	0	0	577	624	
0	0	0	0	0	579	624	
1	0	0	0	0	582	624	
2	0	0	0	0	583	624	
3	0	0	0	0	584	624	
4	0	0	0	0	585	624	
5	0	0	0	0	587	624	
6	0	0	0	0	588	624	
7	0	0	0	0	590	624	
8	0	0	0	0	590	624	
9	0	0	0	0	590	624	
10	0	0	0	0	590	624	
11	0	0	0	0	589	624	
12	0	0	0	0	588	624	
13	0	0	0	0	588	624	
14	0	0	0	0	587	624	
15	0	0	0	0	585	624	
0	0	0	0	0	583	624	
1	0	0	0	0	579	624	
2	0	0	0	0	576	624	
3	0	0	0	0	573	624	
4	0	0	0	0	569	624	
5	0	0	0	0	567	624	
6	0	0	0	0	564	624	
7	0	0	0	0	560	624	
8	0	0	0	0	557	624	
9	0	0	0	0	552	624	
10	0	0	0	0	548	624	
11	0	0	0	0	544	624	
12	0	0	0	0	538	624	
13	0	0	0	0	531	624	
14	0	0	0	0	526	624	
15	0	0	0	0	519	624	
0	0	0	0	0	514	624	
1	0	0	0	0	507	624	
2	0	0	0	0	500	624	
3	0	0	0	0	496	624	
4	0	0	0	0	490	623	
5	0	0	0	0	485	623	
6	0	0	0	0	482	624	
7	0	0	0	0	479	624	
8	0	0	0	0	476	624	
9	0	0	0	0	474	624	
10	0	0	0	0	473	623	
11	0	0	0	0	472	624	
12	0	0	0	0	472	624	
13	0	0	0	0	472	624	
14	0	0	0	0	472	624	
15	0	0	0	0	471	623	
0	0	0	0	0	472	624	
1	0	0	0	0	472	624	
2	0	0	0	0	474	624	
3	0	0	0	0	475	624	
4	0	0	0	0	478	624	
5	0	0	0	0	480	624	
6	0	0	0	0	483	624	
7	0	0	0	0	487	624	
8	0	0	0	0	489	624	
9	0	0	0	0	492	624	
10	0	0	0	0	495	623	
11	0	0	0	0	499	624	
12	0	0	0	0	502	623	
13	0	0	0	0	505	624	
14	0	0	0	0	508	623	
15	0	0	0	0	509	624	
0	0	0	0	0	511	624	
1	0	0	0	0	511	624	
2	0	0	0	0	511	624	
3	0	0	0	0	511	623	
4	0	0	0	0	511	624	
5	0	0	0	0	511	624	
6	0	0	0	0	514	623	
7	0	0	0	0	517	623	
8	0	0	0	0	521	624	
9	0	0	0	0	524	623	
10	0	0	0	0	527	624	
11	0	0	0	0	529	623	
12	0	0	0	0	532	624	
13	0	0	0	0	533	623	
14	0	0	0	0	534	623	
15	0	0	0	0	535	624	
0	0	0	0	0	535	624	
1	0	0	0	0	536	624	
2	0	0	0	0	536	624	
3	0	0	0	0	537	624	
4	0	0	0	0	538	624	
5	0	0	0	0	539	624	
6	0	0	0	0	541	624	
7	0	0	0	0	543	624	
8	0	0	0	0	543	623	
9	0	0	0	0	545	623	
10	0	0	0	0	548	623	
11	0	0	0	0	551	624	
12	0	0	0	0	553	623	
13	0	0	0	0	556	624	
14	0	0	0	0	557	624	
15	0	0	0	0	558	624	
0	0	0	0	0	558	623	
1	0	0	0	0	557	623	
2	0	0	0	0	556	623	
3	0	0	0	0	556	624	
4	0	0	0	0	555	623	
5	0	0	0	0	554	624	
6	0	0	0	0	553	624	
7	0	0	0	0	553	623	
8	0	0	0	0	552	624	
9	0	0	0	0	552	623	
10	0	0	0	0	551	623	
11	0	0	0	0	549	623	
12	0	0	0	0	547	623	
13	0	0	0	0	546	624	
14	0	0	0	0	545	624	
15	0	0	0	0	543	624	
0	0	0	0	0	541	624	
1	0	0	0	0	539	624	
2	0	0	0	0	536	624	
3	0	0	0	0	531	624	
4	0	0	0	0	527	623	
5	0	0	0	0	523	624	
6	0	0	0	0	518	623	
7	0	0	0	0	513	623	
8	0	0	0	0	507	623	
9	0	0	0	0	501	624	
10	0	0	0	0	495	623	
11	0	0	0	0	489	624	
12	0	0	0	0	485	624	
13	0	0	0	0	481	623	
14	0	0	0	0	479	624	
15	0	0	0	0	478	623	
0	0	0	0	0	480	624	
1	0	0	0	0	481	624	
2	0	0	0	0	481	624	
3	0	0	0	0	480	624	
4	0	0	0	0	478	623	
5	0	0	0	0	476	624	
6	0	0	0	0	474	623	
7	0	0	0	0	472	624	
8	0	0	0	0	473	623	
9	0	0	0	0	473	624	
10	0	0	0	0	474	624	
11	0	0	0	0	475	624	
12	0	0	0	0	476	623	
13	0	0	0	0	478	623	
14	0	0	0	0	478	623	
15	0	0	0	0	480	624	
0	0	0	0	0	481	624	
1	0	0	0	0	484	624	
2	0	0	0	0	487	624	
3	0	0	0	0	491	624	
4	0	0	0	0	494	623	
5	0	0	0	0	497	624	
6	0	0	0	0	502	624	
7	0	0	0	0	505	624	
8	0	0	0	0	510	623	
9	0	0	0	0	513	624	
10	0	0	0	0	518	624	
11	0	0	0	0	523	623	
12	0	0	0	0	529	624	
13	0	0	0	0	533	624	
14	0	0	0	0	537	623	
15	0	0	0	0	540	624	
0	0	0	0	0	542	624	
1	0	0	0	0	543	624	
2	0	0	0	0	545	624	
3	0	0	0	0	548	623	
4	0	0	0	0	550	624	
5	0	0	0	0	551	624	
6	0	0	0	0	551	624	
7	0	0	0	0	551	624	
8	0	0	0	0	551	624	
9	0	0	0	0	550	624	
10	0	0	0	0	550	624	
11	0	0	0	0	548	624	
12	0	0	0	0	548	624	
13	0	0	0	0	548	624	
14	0	0	0	0	549	624	
15	0	0	0	0	550	624	
0	0	0	0	0	549	624	
1	0	0	0	0	549	624	
2	0	0	0	0	548	624	
3	0	0	0	0	548	624	
4	0	0	0	0	548	624	
5	0	0	0	0	547	624	
6	0	0	0	0	546	624	
7	0	0	0	0	544	623	
8	0	0	0	0	543	624	
9	0	0	0	0	542	624	
10	0	0	0	0	540	624	
11	0	0	0	0	538	624	
12	0	0	0	0	537	624	
13	0	0	0	0	536	624	
14	0	0	0	0	536	623	
15	0	0	0	0	535	624	
0	0	0	0	0	534	624	
1	0	0	0	0	532	624	
2	0	0	0	0	529	624	
3	0	0	0	0	526	624	
4	0	0	0	0	524	624	
5	0	0	0	0	522	624	
6	0	0	0	0	519	624	
7	0	0	0	0	515	624	
8	0	0	0	0	512	624	
9	0	0	0	0	507	624	
10	0	0	0	0	503	624	
11	0	0	0	0	498	624	
12	0	0	0	0	494	624	
13	0	0	0	0	490	624	
14	0	0	0	0	489	624	
15	0	0	0	0	486	624	
0	0	0	0	0	483	624	
1	0	0	0	0	480	624	
2	0	0	0	0	479	624	
3	0	0	0	0	478	624	
4	0	0	0	0	477	624	
5	0	0	0	0	475	624	
6	0	0	0	0	474	624	
7	0	0	0	0	472	624	
8	0	0	0	0	471	624	
9	0	0	0	0	470	624	
10	0	0	0	0	468	624	
11	0	0	0	0	466	624	
12	0	0	0	0	466	624	
13	0	0	0	0	465	624	
14	0	0	0	0	464	624	
15	0	0	0	0	462	624	
0	0	0	0	0	461	624	
1	0	0	0	0	461	624	
2	0	0	0	0	460	624	
3	0	0	0	0	458	624	
4	0	0	0	0	456	624	
5	0	0	0	0	454	624	
6	0	0	0	0	451	624	
7	0	0	0	0	448	624	
8	0	0	0	0	446	624	
9	0	0	0	0	444	624	
10	0	0	0	0	440	624	
11	0	0	0	0	439	624	
12	0	0	0	0	438	624	
13	0	0	0	0	437	624	
14	0	0	0	0	437	624	
15	0	0	0	0	437	624	
0	0	0	0	0	438	624	
1	0	0	0	0	440	624	
2	0	0	0	0	441	624	
3	0	0	0	0	443	624	
4	0	0	0	0	442	624	
5	0	0	0	0	440	624	
6	0	0	0	0	438	624	
7	0	0	0	0	436	624	
8	0	0	0	0	434	624	
9	0	0	0	0	432	624	
10	0	0	0	0	430	624	
11	0	0	0	0	427	624	
12	0	0	0	0	425	624	
13	0	0	0	0	425	624	
14	0	0	0	0	425	624	
15	0	0	0	0	424	624	
0	0	0	0	0	423	624	
1	0	0	0	0	419	624	
2	0	0	0	0	417	624	
3	0	0	0	0	413	624	
4	0	0	0	0	410	624	
5	0	0	0	0	410	624	
6	0	0	0	0	412	624	
7	0	0	0	0	412	624	
8	0	0	0	0	413	624	
9	0	0	0	0	415	624	
10	0	0	0	0	418	624	
11	0	0	0	0	421	624	
12	0	0	0	0	423	624	
13	0	0	0	0	427	624	
14	0	0	0	0	430	624	
15	0	0	0	0	433	624	
0	0	0	0	0	435	624	
1	0	0	0	0	438	624	
2	0	0	0	0	440	624	
3	0	0	0	0	443	624	
4	0	0	0	0	447	624	
5	0	0	0	0	451	624	
6	0	0	0	0	455	624	
7	0	0	0	0	457	624	
8	0	0	0	0	460	624	
9	0	0	0	0	461	624	
10	0	0	0	0	463	624	
11	0	0	0	0	464	624	
12	0	0	0	0	465	624	
13	0	0	0	0	467	624	
14	0	0	0	0	471	624	
15	0	0	0	0	476	624	
0	0	0	0	0	479	624	
1	0	0	0	0	481	624	
2	0	0	0	0	480	624	
3	0	0	0	0	480	624	
4	0	0	0	0	481	624	
5	0	0	0	0	481	624	
6	0	0	0	0	481	624	
7	0	0	0	0	482	624	
8	0	0	0	0	483	624	
9	0	0	0	0	484	624	
10	0	0	0	0	486	624	
11	0	0	0	0	486	624	
12	0	0	0	0	484	624	
13	0	0	0	0	483	624	
14	0	0	0	0	481	624	
15	0	0	0	0	482	624	
0	0	0	0	0	481	624	
1	0	0	0	0	482	624	
2	0	0	0	0	483	624	
3	0	0	0	0	485	624	
4	0	0	0	0	487	624	
5	0	0	0	0	488	624	
6	0	0	0	0	488	624	
7	0	0	0	0	486	624	
8	0	0	0	0	484	624	
9	0	0	0	0	481	624	
10	0	0	0	0	477	624	
11	0	0	0	0	472	624	
12	0	0	0	0	471	624	
13	0	0	0	0	468	624	
14	0	0	0	0	467	624	
15	0	0	0	0	467	624	
0	0	0	0	0	467	624	
1	0	0	0	0	465	624	
2	0	0	0	0	465	624	
3	0	0	0	0	466	624	
4	0	0	0	0	468	624	
5	0	0	0	0	471	625	
6	0	0	0	0	473	624	
7	0	0	0	0	473	624	
8	0	0	0	0	473	624	
9	0	0	0	0	472	625	
10	0	0	0	0	472	624	
11	0	0	0	0	473	624	
12	0	0	0	0	473	624	
13	0	0	0	0	474	625	
14	0	0	0	0	475	625	
15	0	0	0	0	475	625	
0	0	0	0	0	475	624	
1	0	0	0	0	473	624	
2	0	0	0	0	473	624	
3	0	0	0	0	473	625	
4	0	0	0	0	472	624	
5	0	0	0	0	471	625	
6	0	0	0	0	470	625	
7	0	0	0	0	467	624	
8	0	0	0	0	464	625	
9	0	0	0	0	462	625	
10	0	0	0	0	460	625	
11	0	0	0	0	457	625	
12	0	0	0	0	455	625	
13	0	0	0	0	453	625	
14	0	0	0	0	452	625	
15	0	0	0	0	452	625	
0	0	0	0	0	450	624	
1	0	0	0	0	448	625	
2	0	0	0	0	446	625	
3	0	0	0	0	445	625	
4	0	0	0	0	445	625	
5	0	0	0	0	444	625	
6	0	0	0	0	443	624	
7	0	0	0	0	443	625	
8	0	0	0	0	443	625	
9	0	0	0	0	444	625	
10	0	0	0	0	444	625	
11	0	0	0	0	446	625	
12	0	0	0	0	448	625	
13	0	0	0	0	451	625	
14	0	0	0	0	451	625	
15	0	0	0	0	450	625	
0	0	0	0	0	449	625	
1	0	0	0	0	447	625	
2	0	0	0	0	444	625	
3	0	0	0	0	439	625	
4	0	0	0	0	435	625	
5	0	0	0	0	431	625	
6	0	0	0	0	429	625	
7	0	0	0	0	428	625	
8	0	0	0	0	426	625	
9	0	0	0	0	423	625	
10	0	0	0	0	422	625	
11	0	0	0	0	421	625	
12	0	0	0	0	421	625	
13	0	0	0	0	420	625	
14	0	0	0	0	420	625	
15	0	0	0	0	422	625	
0	0	0	0	0	425	625	
1	0	0	0	0	426	625	
2	0	0	0	0	428	625	
3	0	0	0	0	428	625	
4	0	0	0	0	431	625	
5	0	0	0	0	435	625	
6	0	0	0	0	440	625	
7	0	0	0	0	444	625	
8	0	0	0	0	448	625	
9	0	0	0	0	451	625	
10	0	0	0	0	455	625	
11	0	0	0	0	456	625	
12	0	0	0	0	457	625	
13	0	0	0	0	457	625	
14	0	0	0	0	457	625	
15	0	0	0	0	456	625	
0	0	0	0	0	455	625	
1	0	0	0	0	456	625	
2	0	0	0	0	458	625	
3	0	0	0	0	460	625	
4	0	0	0	0	466	625	
5	0	0	0	0	471	625	
6	0	0	0	0	474	625	
7	0	0	0	0	475	625	
8	0	0	0	0	478	625	
9	0	0	0	0	481	626	
10	0	0	0	0	485	625	
11	0	0	0	0	489	625	
12	0	0	0	0	493	625	
13	0	0	0	0	495	625	
14	0	0	0	0	498	625	
15	0	0	0	0	499	625	
0	0	0	0	0	501	625	
1	0	0	0	0	502	625	
2	0	0	0	0	503	625	
3	0	0	0	0	503	625	
4	0	0	0	0	504	625	
5	0	0	0	0	503	625	
6	0	0	0	0	503	625	
7	0	0	0	0	503	625	
8	0	0	0	0	503	626	
9	0	0	0	0	503	625	
10	0	0	0	0	503	626	
11	0	0	0	0	501	625	
12	0	0	0	0	501	625	
13	0	0	0	0	502	626	
14	0	0	0	0	503	625	
15	0	0	0	0	505	625	
0	0	0	0	0	506	625	
1	0	0	0	0	509	625	
2	0	0	0	0	512	625	
3	0	0	0	0	519	625	
4	0	0	0	0	526	625	
5	0	0	0	0	532	625	
6	0	0	0	0	538	625	
7	0	0	0	0	543	626	
8	0	0	0	0	549	626	
9	0	0	0	0	552	625	
10	0	0	0	0	555	626	
11	0	0	0	0	555	625	
12	0	0	0	0	555	626	
13	0	0	0	0	555	626	
14	0	0	0	0	554	626	
15	0	0	0	0	553	626	
0	0	0	0	0	552	626	
1	0	0	0	0	549	626	
2	0	0	0	0	547	626	
3	0	0	0	0	545	626	
4	0	0	0	0	541	626	
5	0	0	0	0	538	625	
6	0	0	0	0	536	626	
7	0	0	0	0	532	626	
8	0	0	0	0	528	626	
9	0	0	0	0	524	626	
10	0	0	0	0	519	626	
11	0	0	0	0	515	626	
12	0	0	0	0	511	626	
13	0	0	0	0	507	626	
14	0	0	0	0	503	626	
15	0	0	0	0	499	626	
0	0	0	0	0	495	626	
1	0	0	0	0	491	626	
2	0	0	0	0	488	626	
3	0	0	0	0	485	626	
4	0	0	0	0	480	626	
5	0	0	0	0	476	626	
6	0	0	0	0	473	626	
7	0	0	0	0	470	626	
8	0	0	0	0	467	626	
9	0	0	0	0	465	626	
10	0	0	0	0	462	626	
11	0	0	0	0	460	626	
12	0	0	0	0	456	626	
13	0	0	0	0	453	626	
14	0	0	0	0	450	626	
15	0	0	0	0	447	626	
0	0	0	0	0	445	626	
1	0	0	0	0	442	626	
2	0	0	0	0	441	626	
3	0	0	0	0	440	626	
4	0	0	0	0	439	626	
5	0	0	0	0	438	626	
6	0	0	0	0	436	626	
7	0	0	0	0	435	626	
8	0	0	0	0	435	626	
9	0	0	0	0	435	626	
10	0	0	0	0	436	626	
11	0	0	0	0	439	626	
12	0	0	0	0	442	626	
13	0	0	0	0	445	626	
14	0	0	0	0	446	626	
15	0	0	0	0	447	626	
0	0	0	0	0	448	626	
1	0	0	0	0	448	626	
2	0	0	0	0	449	626	
3	0	0	0	0	451	627	
4	0	0	0	0	452	626	
5	0	0	0	0	454	626	
6	0	0	0	0	456	626	
7	0	0	0	0	457	626	
8	0	0	0	0	459	626	
9	0	0	0	0	460	626	
10	0	0	0	0	462	627	
11	0	0	0	0	465	627	
12	0	0	0	0	467	626	
13	0	0	0	0	469	627	
14	0	0	0	0	472	626	
15	0	0	0	0	474	627	
0	0	0	0	0	475	626	
1	0	0	0	0	478	627	
2	0	0	0	0	481	627	
3	0	0	0	0	483	627	
4	0	0	0	0	485	627	
5	0	0	0	0	487	627	
6	0	0	0	0	489	626	
7	0	0	0	0	491	627	
8	0	0	0	0	494	626	
9	0	0	0	0	496	627	
10	0	0	0	0	498	626	
11	0	0	0	0	504	627	
12	0	0	0	0	509	627	
13	0	0	0	0	513	627	
14	0	0	0	0	516	627	
15	0	0	0	0	520	627	
0	0	0	0	0	524	627	
1	0	0	0	0	525	627	
2	0	0	0	0	527	627	
3	0	0	0	0	527	627	
4	0	0	0	0	527	627	
5	0	0	0	0	527	627	
6	0	0	0	0	527	627	
7	0	0	0	0	525	627	
8	0	0	0	0	524	627	
9	0	0	0	0	525	627	
10	0	0	0	0	527	627	
11	0	0	0	0	528	627	
12	0	0	0	0	528	627	
13	0	0	0	0	529	627	
14	0	0	0	0	530	627	
15	0	0	0	0	529	627	
0	0	0	0	0	528	627	
1	0	0	0	0	530	627	
2	0	0	0	0	531	627	
3	0	0	0	0	535	627	
4	0	0	0	0	540	627	
5	0	0	0	0	546	627	
6	0	0	0	0	549	627	
7	0	0	0	0	552	627	
8	0	0	0	0	556	627	
9	0	0	0	0	559	627	
10	0	0	0	0	558	627	
11	0	0	0	0	558	627	
12	0	0	0	0	559	627	
13	0	0	0	0	558	627	
14	0	0	0	0	558	627	
15	0	0	0	0	557	627	
0	0	0	0	0	555	627	
1	0	0	0	0	551	627	
2	0	0	0	0	547	627	
3	0	0	0	0	542	627	
4	0	0	0	0	536	627	
5	0	0	0	0	532	627	
6	0	0	0	0	529	627	
7	0	0	0	0	524	627	
8	0	0	0	0	517	627	
9	0	0	0	0	508	627	
10	0	0	0	0	499	627	
11	0	0	0	0	490	627	
12	0	0	0	0	481	627	
13	0	0	0	0	473	627	
14	0	0	0	0	464	627	
15	0	0	0	0	455	627	
0	0	0	0	0	448	627	
1	0	0	0	0	441	627	
2	0	0	0	0	435	627	
3	0	0	0	0	430	627	
4	0	0	0	0	427	627	
5	0	0	0	0	425	627	
6	0	0	0	0	423	627	
7	0	0	0	0	422	627	
8	0	0	0	0	422	627	
9	0	0	0	0	423	627	
10	0	0	0	0	425	627	
11	0	0	0	0	428	627	
12	0	0	0	0	429	627	
13	0	0	0	0	431	627	
14	0	0	0	0	433	627	
15	0	0	0	0	435	627	
0	0	0	0	0	440	627	
1	0	0	0	0	445	627	
2	0	0	0	0	449	627	
3	0	0	0	0	452	627	
4	0	0	0	0	455	627	
5	0	0	0	0	457	627	
6	0	0	0	0	457	627	
7	0	0	0	0	459	627	
8	0	0	0	0	462	627	
9	0	0	0	0	464	627	
10	0	0	0	0	465	627	
11	0	0	0	0	466	627	
12	0	0	0	0	467	627	
13	0	0	0	0	469	627	
14	0	0	0	0	473	627	
15	0	0	0	0	474	627	
0	0	0	0	0	475	627	
1	0	0	0	0	476	627	
2	0	0	0	0	477	627	
3	0	0	0	0	479	627	
4	0	0	0	0	480	627	
5	0	0	0	0	482	627	
6	0	0	0	0	484	627	
7	0	0	0	0	487	627	
8	0	0	0	0	489	627	
9	0	0	0	0	491	627	
10	0	0	0	0	494	627	
11	0	0	0	0	496	627	
12	0	0	0	0	499	627	
13	0	0	0	0	502	627	
14	0	0	0	0	504	627	
15	0	0	0	0	506	627	
0	0	0	0	0	510	627	
1	0	0	0	0	512	627	
2	0	0	0	0	514	627	
3	0	0	0	0	516	627	
4	0	0	0	0	519	627	
5	0	0	0	0	522	627	
6	0	0	0	0	523	627	
7	0	0	0	0	524	628	
8	0	0	0	0	526	627	
9	0	0	0	0	528	627	
10	0	0	0	0	528	627	
11	0	0	0	0	529	627	
12	0	0	0	0	531	627	
13	0	0	0	0	533	628	
14	0	0	0	0	536	627	
15	0	0	0	0	537	627	
0	0	0	0	0	539	627	
1	0	0	0	0	541	627	
2	0	0	0	0	543	627	
3	0	0	0	0	546	627	
4	0	0	0	0	549	628	
5	0	0	0	0	553	627	
6	0	0	0	0	558	627	
7	0	0	0	0	558	627	
8	0	0	0	0	559	628	
9	0	0	0	0	559	628	
10	0	0	0	0	558	627	
11	0	0	0	0	558	627	
12	0	0	0	0	559	627	
13	0	0	0	0	560	627	
14	0	0	0	0	561	628	
15	0	0	0	0	562	627	
0	0	0	0	0	565	627	
1	0	0	0	0	567	628	
2	0	0	0	0	568	627	
3	0	0	0	0	567	628	
4	0	0	0	0	566	627	
5	0	0	0	0	566	628	
6	0	0	0	0	566	627	
7	0	0	0	0	566	628	
8	0	0	0	0	566	628	
9	0	0	0	0	566	627	
10	0	0	0	0	568	628	
11	0	0	0	0	568	627	
12	0	0	0	0	568	628	
13	0	0	0	0	564	628	
14	0	0	0	0	561	628	
15	0	0	0	0	559	628	
0	0	0	0	0	556	628	
1	0	0	0	0	555	628	
2	0	0	0	0	551	628	
3	0	0	0	0	549	628	
4	0	0	0	0	547	628	
5	0	0	0	0	545	628	
6	0	0	0	0	544	628	
7	0	0	0	0	543	628	
8	0	0	0	0	540	628	
9	0	0	0	0	539	628	
10	0	0	0	0	538	628	
11	0	0	0	0	538	628	
12	0	0	0	0	537	628	
13	0	0	0	0	535	628	
14	0	0	0	0	535	628	
15	0	0	0	0	532	628	
0	0	0	0	0	531	628	
1	0	0	0	0	530	628	
2	0	0	0	0	527	628	
3	0	0	0	0	524	628	
4	0	0	0	0	521	628	
5	0	0	0	0	519	628	
6	0	0	0	0	519	628	
7	0	0	0	0	516	628	
8	0	0	0	0	514	628	
9	0	0	0	0	511	628	
10	0	0	0	0	509	628	
11	0	0	0	0	506	628	
12	0	0	0	0	504	628	
13	0	0	0	0	502	628	
14	0	0	0	0	500	628	
15	0	0	0	0	499	628	
0	0	0	0	0	497	628	
1	0	0	0	0	497	628	
2	0	0	0	0	496	628	
3	0	0	0	0	497	628	
4	0	0	0	0	498	628	
5	0	0	0	0	498	628	
6	0	0	0	0	496	628	
7	0	0	0	0	495	628	
8	0	0	0	0	495	628	
9	0	0	0	0	494	628	
10	0	0	0	0	492	628	
11	0	0	0	0	491	628	
12	0	0	0	0	490	628	
13	0	0	0	0	488	628	
14	0	0	0	0	487	628	
15	0	0	0	0	486	628	
0	0	0	0	0	486	628	
1	0	0	0	0	487	628	
2	0	0	0	0	488	628	
3	0	0	0	0	489	628	
4	0	0	0	0	491	628	
5	0	0	0	0	493	628	
6	0	0	0	0	496	628	
7	0	0	0	0	497	628	
8	0	0	0	0	499	628	
9	0	0	0	0	501	628	
10	0	0	0	0	502	628	
11	0	0	0	0	503	628	
12	0	0	0	0	503	628	
13	0	0	0	0	504	628	
14	0	0	0	0	504	628	
15	0	0	0	0	504	628	
0	0	0	0	0	503	628	
1	0	0	0	0	503	628	
2	0	0	0	0	503	628	
3	0	0	0	0	504	628	
4	0	0	0	0	505	628	
5	0	0	0	0	505	628	
6	0	0	0	0	504	628	
7	0	0	0	0	504	628	
8	0	0	0	0	504	628	
9	0	0	0	0	504	628	
10	0	0	0	0	501	628	
11	0	0	0	0	500	628	
12	0	0	0	0	500	628	
13	0	0	0	0	499	628	
14	0	0	0	0	500	628	
15	0	0	0	0	502	628	
0	0	0	0	0	505	628	
1	0	0	0	0	507	628	
2	0	0	0	0	509	628	
3	0	0	0	0	512	628	
4	0	0	0	0	515	628	
5	0	0	0	0	518	628	
6	0	0	0	0	520	628	
7	0	0	0	0	524	628	
8	0	0	0	0	528	628	
9	0	0	0	0	531	628	
10	0	0	0	0	536	628	
11	0	0	0	0	537	628	
12	0	0	0	0	539	628	
13	0	0	0	0	540	628	
14	0	0	0	0	542	628	
15	0	0	0	0	542	628	
0	0	0	0	0	543	628	
1	0	0	0	0	544	628	
2	0	0	0	0	544	628	
3	0	0	0	0	542	628	
4	0	0	0	0	541	628	
5	0	0	0	0	540	628	
6	0	0	0	0	540	628	
7	0	0	0	0	538	628	
8	0	0	0	0	536	628	
9	0	0	0	0	536	628	
10	0	0	0	0	534	628	
11	0	0	0	0	533	628	
12	0	0	0	0	531	628	
13	0	0	0	0	530	628	
14	0	0	0	0	527	628	
15	0	0	0	0	526	628	
0	0	0	0	0	525	628	
1	0	0	0	0	523	628	
2	0	0	0	0	521	628	
3	0	0	0	0	520	628	
4	0	0	0	0	520	628	
5	0	0	0	0	519	629	
6	0	0	0	0	518	628	
7	0	0	0	0	518	628	
8	0	0	0	0	516	628	
9	0	0	0	0	515	628	
10	0	0	0	0	513	628	
11	0	0	0	0	512	628	
12	0	0	0	0	511	628	
13	0	0	0	0	511	628	
14	0	0	0	0	511	628	
15	0	0	0	0	510	629	
0	0	0	0	0	509	628	
1	0	0	0	0	510	628	
2	0	0	0	0	511	628	
3	0	0	0	0	511	628	
4	0	0	0	0	510	628	
5	0	0	0	0	509	628	
6	0	0	0	0	509	629	
7	0	0	0	0	508	628	
8	0	0	0	0	506	628	
9	0	0	0	0	502	629	
10	0	0	0	0	496	628	
11	0	0	0	0	491	628	
12	0	0	0	0	487	628	
13	0	0	0	0	483	629	
14	0	0	0	0	479	629	
15	0	0	0	0	476	628	
0	0	0	0	0	473	629	
1	0	0	0	0	472	629	
2	0	0	0	0	472	629	
3	0	0	0	0	472	629	
4	0	0	0	0	473	628	
5	0	0	0	0	476	628	
6	0	0	0	0	479	629	
7	0	0	0	0	484	628	
8	0	0	0	0	489	628	
9	0	0	0	0	494	628	
10	0	0	0	0	498	629	
11	0	0	0	0	501	629	
12	0	0	0	0	502	629	
13	0	0	0	0	504	629	
14	0	0	0	0	504	629	
15	0	0	0	0	504	629	
0	0	0	0	0	504	629	
1	0	0	0	0	505	629	
2	0	0	0	0	505	629	
3	0	0	0	0	508	629	
4	0	0	0	0	509	629	
5	0	0	0	0	510	629	
6	0	0	0	0	511	628	
7	0	0	0	0	512	629	
8	0	0	0	0	513	628	
9	0	0	0	0	515	629	
10	0	0	0	0	515	628	
11	0	0	0	0	516	629	
12	0	0	0	0	516	629	
13	0	0	0	0	515	629	
14	0	0	0	0	515	629	
15	0	0	0	0	515	628	
0	0	0	0	0	513	629	
1	0	0	0	0	513	629	
2	0	0	0	0	512	629	
3	0	0	0	0	512	629	
4	0	0	0	0	510	629	
5	0	0	0	0	509	629	
6	0	0	0	0	508	629	
7	0	0	0	0	506	629	
8	0	0	0	0	506	629	
9	0	0	0	0	508	629	
10	0	0	0	0	509	629	
11	0	0	0	0	510	629	
12	0	0	0	0	510	629	
13	0	0	0	0	510	629	
14	0	0	0	0	510	629	
15	0	0	0	0	508	629	
0	0	0	0	0	507	629	
1	0	0	0	0	504	629	
2	0	0	0	0	501	629	
3	0	0	0	0	499	629	
4	0	0	0	0	500	629	
5	0	0	0	0	502	629	
6	0	0	0	0	501	629	
7	0	0	0	0	503	629	
8	0	0	0	0	506	629	
9	0	0	0	0	510	629	
10	0	0	0	0	514	629	
11	0	0	0	0	518	629	
12	0	0	0	0	519	629	
13	0	0	0	0	522	629	
14	0	0	0	0	524	629	
15	0	0	0	0	526	629	
0	0	0	0	0	528	629	
1	0	0	0	0	530	629	
2	0	0	0	0	533	629	
3	0	0	0	0	535	629	
4	0	0	0	0	536	629	
5	0	0	0	0	536	629	
6	0	0	0	0	539	629	
7	0	0	0	0	540	629	
8	0	0	0	0	541	629	
9	0	0	0	0	541	629	
10	0	0	0	0	540	629	
11	0	0	0	0	541	629	
12	0	0	0	0	541	629	
13	0	0	0	0	541	629	
14	0	0	0	0	541	629	
15	0	0	0	0	541	629	
0	0	0	0	0	541	629	
1	0	0	0	0	541	629	
2	0	0	0	0	542	629	
3	0	0	0	0	541	629	
4	0	0	0	0	540	629	
5	0	0	0	0	540	629	
6	0	0	0	0	539	629	
7	0	0	0	0	537	629	
8	0	0	0	0	537	629	
9	0	0	0	0	537	629	
10	0	0	0	0	537	629	
11	0	0	0	0	536	629	
12	0	0	0	0	536	629	
13	0	0	0	0	536	629	
14	0	0	0	0	535	629	
15	0	0	0	0	532	629	
0	0	0	0	0	529	629	
1	0	0	0	0	525	629	
2	0	0	0	0	521	629	
3	0	0	0	0	518	629	
4	0	0	0	0	515	630	
5	0	0	0	0	511	629	
6	0	0	0	0	508	629	
7	0	0	0	0	504	630	
8	0	0	0	0	501	629	
9	0	0	0	0	499	629	
10	0	0	0	0	498	629	
11	0	0	0	0	497	629	
12	0	0	0	0	497	629	
13	0	0	0	0	498	630	
14	0	0	0	0	499	629	
15	0	0	0	0	500	630	
0	0	0	0	0	502	629	
1	0	0	0	0	504	629	
2	0	0	0	0	505	630	
3	0	0	0	0	505	629	
4	0	0	0	0	505	630	
5	0	0	0	0	502	629	
6	0	0	0	0	500	630	
7	0	0	0	0	499	629	
8	0	0	0	0	496	629	
9	0	0	0	0	495	629	
10	0	0	0	0	493	629	
11	0	0	0	0	493	630	
12	0	0	0	0	494	629	
13	0	0	0	0	495	629	
14	0	0	0	0	495	630	
15	0	0	0	0	492	629	
0	0	0	0	0	493	630	
1	0	0	0	0	495	630	
2	0	0	0	0	495	629	
3	0	0	0	0	496	630	
4	0	0	0	0	498	630	
5	0	0	0	0	498	630	
6	0	0	0	0	499	630	
7	0	0	0	0	503	630	
8	0	0	0	0	503	630	
9	0	0	0	0	504	629	
10	0	0	0	0	504	630	
11	0	0	0	0	504	630	
12	0	0	0	0	504	630	
13	0	0	0	0	502	630	
14	0	0	0	0	500	630	
15	0	0	0	0	498	630	
0	0	0	0	0	496	630	
1	0	0	0	0	494	630	
2	0	0	0	0	490	630	
3	0	0	0	0	487	630	
4	0	0	0	0	486	630	
5	0	0	0	0	483	630	
6	0	0	0	0	481	630	
7	0	0	0	0	481	630	
8	0	0	0	0	479	630	
9	0	0	0	0	479	630	
10	0	0	0	0	480	630	
11	0	0	0	0	485	630	
12	0	0	0	0	488	630	
13	0	0	0	0	492	630	
14	0	0	0	0	497	630	
15	0	0	0	0	503	630	
0	0	0	0	0	504	630	
1	0	0	0	0	505	630	
2	0	0	0	0	510	630	
3	0	0	0	0	512	630	
4	0	0	0	0	513	630	
5	0	0	0	0	515	630	
6	0	0	0	0	516	630	
7	0	0	0	0	516	630	
8	0	0	0	0	516	630	
9	0	0	0	0	517	630	
10	0	0	0	0	515	630	
11	0	0	0	0	514	630	
12	0	0	0	0	513	630	
13	0	0	0	0	513	630	
14	0	0	0	0	515	630	
15	0	0	0	0	517	630	
0	0	0	0	0	521	630	
1	0	0	0	0	524	630	
2	0	0	0	0	527	630	
3	0	0	0	0	528	630	
4	0	0	0	0	532	630	
5	0	0	0	0	536	630	
6	0	0	0	0	537	630	
7	0	0	0	0	540	630	
8	0	0	0	0	540	630	
9	0	0	0	0	541	630	
10	0	0	0	0	542	630	
11	0	0	0	0	542	630	
12	0	0	0	0	541	630	
13	0	0	0	0	538	630	
14	0	0	0	0	537	630	
15	0	0	0	0	535	630	
0	0	0	0	0	535	630	
1	0	0	0	0	535	630	
2	0	0	0	0	536	630	
3	0	0	0	0	534	630	
4	0	0	0	0	531	630	
5	0	0	0	0	531	630	
6	0	0	0	0	531	630	
7	0	0	0	0	529	630	
8	0	0	0	0	524	630	
9	0	0	0	0	518	630	
10	0	0	0	0	515	630	
11	0	0	0	0	510	630	
12	0	0	0	0	507	630	
13	0	0	0	0	504	630	
14	0	0	0	0	502	630	
15	0	0	0	0	499	630	
0	0	0	0	0	496	630	
1	0	0	0	0	494	630	
2	0	0	0	0	494	630	
3	0	0	0	0	493	630	
4	0	0	0	0	492	630	
5	0	0	0	0	491	630	
6	0	0	0	0	489	630	
7	0	0	0	0	488	630	
8	0	0	0	0	487	630	
9	0	0	0	0	486	630	
10	0	0	0	0	483	630	
11	0	0	0	0	481	630	
12	0	0	0	0	479	630	
13	0	0	0	0	477	630	
14	0	0	0	0	478	630	
15	0	0	0	0	479	630	
0	0	0	0	0	482	630	
1	0	0	0	0	484	630	
2	0	0	0	0	485	630	
3	0	0	0	0	488	630	
4	0	0	0	0	491	630	
5	0	0	0	0	494	630	
6	0	0	0	0	499	630	
7	0	0	0	0	502	630	
8	0	0	0	0	502	630	
9	0	0	0	0	502	630	
10	0	0	0	0	502	630	
11	0	0	0	0	504	631	
12	0	0	0	0	505	630	
13	0	0	0	0	505	630	
14	0	0	0	0	505	631	
15	0	0	0	0	504	630	
0	0	0	0	0	507	630	
1	0	0	0	0	508	630	
2	0	0	0	0	508	630	
3	0	0	0	0	511	630	
4	0	0	0	0	512	630	
5	0	0	0	0	512	631	
6	0	0	0	0	512	630	
7	0	0	0	0	513	630	
8	0	0	0	0	513	630	
9	0	0	0	0	514	630	
10	0	0	0	0	515	630	
11	0	0	0	0	515	630	
12	0	0	0	0	518	631	
13	0	0	0	0	519	630	
14	0	0	0	0	522	630	
15	0	0	0	0	524	630	
0	0	0	0	0	524	630	
1	0	0	0	0	523	631	
2	0	0	0	0	521	631	
3	0	0	0	0	522	630	
4	0	0	0	0	522	630	
5	0	0	0	0	522	631	
6	0	0	0	0	521	631	
7	0	0	0	0	520	630	
8	0	0	0	0	519	631	
9	0	0	0	0	519	631	
10	0	0	0	0	519	631	
11	0	0	0	0	517	631	
12	0	0	0	0	518	631	
13	0	0	0	0	519	630	
14	0	0	0	0	520	630	
15	0	0	0	0	522	631	
0	0	0	0	0	524	631	
1	0	0	0	0	525	631	
2	0	0	0	0	524	631	
3	0	0	0	0	523	631	
4	0	0	0	0	520	630	
5	0	0	0	0	519	631	
6	0	0	0	0	517	631	
7	0	0	0	0	516	631	
8	0	0	0	0	514	631	
9	0	0	0	0	514	631	
10	0	0	0	0	515	631	
11	0	0	0	0	513	631	
12	0	0	0	0	511	631	
13	0	0	0	0	509	631	
14	0	0	0	0	508	630	
15	0	0	0	0	507	631	
0	0	0	0	0	507	631	
1	0	0	0	0	509	631	
2	0	0	0	0	511	631	
3	0	0	0	0	510	631	
4	0	0	0	0	509	631	
5	0	0	0	0	507	631	
6	0	0	0	0	506	631	
7	0	0	0	0	503	631	
8	0	0	0	0	501	631	
9	0	0	0	0	500	631	
10	0	0	0	0	499	631	
11	0	0	0	0	497	631	
12	0	0	0	0	496	631	
13	0	0	0	0	494	631	
14	0	0	0	0	492	631	
15	0	0	0	0	489	631	
0	0	0	0	0	489	631	
1	0	0	0	0	488	631	
2	0	0	0	0	487	631	
3	0	0	0	0	484	631	
4	0	0	0	0	483	631	
5	0	0	0	0	481	631	
6	0	0	0	0	479	631	
7	0	0	0	0	477	631	
8	0	0	0	0	475	631	
9	0	0	0	0	475	631	
10	0	0	0	0	473	631	
11	0	0	0	0	471	631	
12	0	0	0	0	469	631	
13	0	0	0	0	469	631	
14	0	0	0	0	469	631	
15	0	0	0	0	471	631	
0	0	0	0	0	471	631	
1	0	0	0	0	470	631	
2	0	0	0	0	470	631	
3	0	0	0	0	469	631	
4	0	0	0	0	469	631	
5	0	0	0	0	470	631	
6	0	0	0	0	470	631	
7	0	0	0	0	465	631	
8	0	0	0	0	462	631	
9	0	0	0	0	461	631	
10	0	0	0	0	459	631	
11	0	0	0	0	456	631	
12	0	0	0	0	454	632	
13	0	0	0	0	452	631	
14	0	0	0	0	451	631	
15	0	0	0	0	451	631	
0	0	0	0	0	450	631	
1	0	0	0	0	450	631	
2	0	0	0	0	450	631	
3	0	0	0	0	453	631	
4	0	0	0	0	455	632	
5	0	0	0	0	459	631	
6	0	0	0	0	463	631	
7	0	0	0	0	465	632	
8	0	0	0	0	467	631	
9	0	0	0	0	470	632	
10	0	0	0	0	472	631	
11	0	0	0	0	474	632	
12	0	0	0	0	475	632	
13	0	0	0	0	475	632	
14	0	0	0	0	476	631	
15	0	0	0	0	476	632	
0	0	0	0	0	476	632	
1	0	0	0	0	477	632	
2	0	0	0	0	476	632	
3	0	0	0	0	476	632	
4	0	0	0	0	477	632	
5	0	0	0	0	476	631	
6	0	0	0	0	476	632	
7	0	0	0	0	477	632	
8	0	0	0	0	479	632	
9	0	0	0	0	479	632	
10	0	0	0	0	479	632	
11	0	0	0	0	479	632	
12	0	0	0	0	481	632	
13	0	0	0	0	482	632	
14	0	0	0	0	482	632	
15	0	0	0	0	482	632	
0	0	0	0	0	484	632	
1	0	0	0	0	487	632	
2	0	0	0	0	491	632	
3	0	0	0	0	495	632	
4	0	0	0	0	499	632	
5	0	0	0	0	504	632	
6	0	0	0	0	508	632	
7	0	0	0	0	512	632	
8	0	0	0	0	514	631	
9	0	0	0	0	515	632	
10	0	0	0	0	515	632	
11	0	0	0	0	515	632	
12	0	0	0	0	516	632	
13	0	0	0	0	517	632	
14	0	0	0	0	518	632	
15	0	0	0	0	517	632	
0	0	0	0	0	516	632	
1	0	0	0	0	514	632	
2	0	0	0	0	512	632	
3	0	0	0	0	510	632	
4	0	0	0	0	508	632	
5	0	0	0	0	507	632	
6	0	0	0	0	506	632	
7	0	0	0	0	505	632	
8	0	0	0	0	507	632	
9	0	0	0	0	508	632	
10	0	0	0	0	509	632	
11	0	0	0	0	507	632	
12	0	0	0	0	505	632	
13	0	0	0	0	505	632	
14	0	0	0	0	505	632	
15	0	0	0	0	505	632	
0	0	0	0	0	505	632	
1	0	0	0	0	508	632	
2	0	0	0	0	511	632	
3	0	0	0	0	513	632	
4	0	0	0	0	519	632	
5	0	0	0	0	522	632	
6	0	0	0	0	525	632	
7	0	0	0	0	526	632	
8	0	0	0	0	527	632	
9	0	0	0	0	529	632	
10	0	0	0	0	528	632	
11	0	0	0	0	526	632	
12	0	0	0	0	526	632	
13	0	0	0	0	526	632	
14	0	0	0	0	524	632	
15	0	0	0	0	523	632	
0	0	0	0	0	522	632	
1	0	0	0	0	521	632	
2	0	0	0	0	520	632	
3	0	0	0	0	521	632	
4	0	0	0	0	521	632	
5	0	0	0	0	520	632	
6	0	0	0	0	519	632	
7	0	0	0	0	516	632	
8	0	0	0	0	513	632	
9	0	0	0	0	511	632	
10	0	0	0	0	508	632	
11	0	0	0	0	506	632	
12	0	0	0	0	505	632	
13	0	0	0	0	503	632	
14	0	0	0	0	503	632	
15	0	0	0	0	503	632	
0	0	0	0	0	502	632	
1	0	0	0	0	504	632	
2	0	0	0	0	504	632	
3	0	0	0	0	508	632	
4	0	0	0	0	508	632	
5	0	0	0	0	507	632	
6	0	0	0	0	504	632	
7	0	0	0	0	503	632	
8	0	0	0	0	503	632	
9	0	0	0	0	504	632	
10	0	0	0	0	505	633	
11	0	0	0	0	506	632	
12	0	0	0	0	507	632	
13	0	0	0	0	506	632	
14	0	0	0	0	506	632	
15	0	0	0	0	505	632	
0	0	0	0	0	505	633	
1	0	0	0	0	505	632	
2	0	0	0	0	504	632	
3	0	0	0	0	504	633	
4	0	0	0	0	504	632	
5	0	0	0	0	507	633	
6	0	0	0	0	508	632	
7	0	0	0	0	510	632	
8	0	0	0	0	512	632	
9	0	0	0	0	514	632	
10	0	0	0	0	514	633	
11	0	0	0	0	513	632	
12	0	0	0	0	513	632	
13	0	0	0	0	512	633	
14	0	0	0	0	513	632	
15	0	0	0	0	514	633	
0	0	0	0	0	515	632	
1	0	0	0	0	517	633	
2	0	0	0	0	518	633	
3	0	0	0	0	519	633	
4	0	0	0	0	521	633	
5	0	0	0	0	523	633	
6	0	0	0	0	524	633	
7	0	0	0	0	524	633	
8	0	0	0	0	525	633	
9	0	0	0	0	527	633	
10	0	0	0	0	529	633	
11	0	0	0	0	532	633	
12	0	0	0	0	532	633	
13	0	0	0	0	534	633	
14	0	0	0	0	534	633	
15	0	0	0	0	533	633	
0	0	0	0	0	534	633	
1	0	0	0	0	533	633	
2	0	0	0	0	532	633	
3	0	0	0	0	531	633	
4	0	0	0	0	531	633	
5	0	0	0	0	531	633	
6	0	0	0	0	531	633	
7	0	0	0	0	531	633	
8	0	0	0	0	533	633	
9	0	0	0	0	535	633	
10	0	0	0	0	537	633	
11	0	0	0	0	540	633	
12	0	0	0	0	543	633	
13	0	0	0	0	544	633	
14	0	0	0	0	545	633	
15	0	0	0	0	545	633	
0	0	0	0	0	545	633	
1	0	0	0	0	543	633	
2	0	0	0	0	542	633	
3	0	0	0	0	541	633	
4	0	0	0	0	542	633	
5	0	0	0	0	543	633	
6	0	0	0	0	542	633	
7	0	0	0	0	542	633	
8	0	0	0	0	541	633	
9	0	0	0	0	539	633	
10	0	0	0	0	537	633	
11	0	0	0	0	536	633	
12	0	0	0	0	536	633	
13	0	0	0	0	535	633	
14	0	0	0	0	536	633	
15	0	0	0	0	535	633	
0	0	0	0	0	535	633	
1	0	0	0	0	534	633	
2	0	0	0	0	533	633	
3	0	0	0	0	531	633	
4	0	0	0	0	530	633	
5	0	0	0	0	527	633	
6	0	0	0	0	526	633	
7	0	0	0	0	523	633	
8	0	0	0	0	520	633	
9	0	0	0	0	515	633	
10	0	0	0	0	513	633	
11	0	0	0	0	510	633	
12	0	0	0	0	509	633	
13	0	0	0	0	508	633	
14	0	0	0	0	508	633	
15	0	0	0	0	510	633	
0	0	0	0	0	510	633	
1	0	0	0	0	509	633	
2	0	0	0	0	508	633	
3	0	0	0	0	507	634	
4	0	0	0	0	507	633	
5	0	0	0	0	506	633	
6	0	0	0	0	507	633	
7	0	0	0	0	507	633	
8	0	0	0	0	508	633	
9	0	0	0	0	507	633	
10	0	0	0	0	505	634	
11	0	0	0	0	502	633	
12	0	0	0	0	499	633	
13	0	0	0	0	498	633	
14	0	0	0	0	498	633	
15	0	0	0	0	498	634	
0	0	0	0	0	497	633	
1	0	0	0	0	497	634	
2	0	0	0	0	497	633	
3	0	0	0	0	496	633	
4	0	0	0	0	495	634	
5	0	0	0	0	493	633	
6	0	0	0	0	494	634	
7	0	0	0	0	494	634	
8	0	0	0	0	495	633	
9	0	0	0	0	496	634	
10	0	0	0	0	497	634	
11	0	0	0	0	498	634	
12	0	0	0	0	497	633	
13	0	0	0	0	497	634	
14	0	0	0	0	496	634	
15	0	0	0	0	496	634	
0	0	0	0	0	497	634	
1	0	0	0	0	497	633	
2	0	0	0	0	497	634	
3	0	0	0	0	498	634	
4	0	0	0	0	497	634	
5	0	0	0	0	497	634	
6	0	0	0	0	498	634	
7	0	0	0	0	498	634	
8	0	0	0	0	499	634	
9	0	0	0	0	499	634	
10	0	0	0	0	500	634	
11	0	0	0	0	500	633	
12	0	0	0	0	502	634	
13	0	0	0	0	503	634	
14	0	0	0	0	504	634	
15	0	0	0	0	505	634	
0	0	0	0	0	508	634	
1	0	0	0	0	509	634	
2	0	0	0	0	510	634	
3	0	0	0	0	512	634	
4	0	0	0	0	516	634	
5	0	0	0	0	519	634	
6	0	0	0	0	519	634	
7	0	0	0	0	519	634	
8	0	0	0	0	520	634	
9	0	0	0	0	519	634	
10	0	0	0	0	519	634	
11	0	0	0	0	516	634	
12	0	0	0	0	516	634	
13	0	0	0	0	518	634	
14	0	0	0	0	519	634	
15	0	0	0	0	519	634	
0	0	0	0	0	520	634	
1	0	0	0	0	521	634	
2	0	0	0	0	520	634	
3	0	0	0	0	520	634	
4	0	0	0	0	520	634	
5	0	0	0	0	521	634	
6	0	0	0	0	521	634	
7	0	0	0	0	521	634	
8	0	0	0	0	522	634	
9	0	0	0	0	520	634	
10	0	0	0	0	518	634	
11	0	0	0	0	516	634	
12	0	0	0	0	514	634	
13	0	0	0	0	512	634	
14	0	0	0	0	510	634	
15	0	0	0	0	509	634	
0	0	0	0	0	509	635	
1	0	0	0	0	512	634	
2	0	0	0	0	512	634	
3	0	0	0	0	515	634	
4	0	0	0	0	518	634	
5	0	0	0	0	519	635	
6	0	0	0	0	517	634	
7	0	0	0	0	516	634	
8	0	0	0	0	515	634	
9	0	0	0	0	513	634	
10	0	0	0	0	512	635	
11	0	0	0	0	513	634	
12	0	0	0	0	515	634	
13	0	0	0	0	518	634	
14	0	0	0	0	519	634	
15	0	0	0	0	519	634	
0	0	0	0	0	517	634	
1	0	0	0	0	515	634	
2	0	0	0	0	513	634	
3	0	0	0	0	511	634	
4	0	0	0	0	508	635	
5	0	0	0	0	507	634	
6	0	0	0	0	506	634	
7	0	0	0	0	506	635	
8	0	0	0	0	507	634	
9	0	0	0	0	507	634	
10	0	0	0	0	506	635	
11	0	0	0	0	508	635	
12	0	0	0	0	509	634	
13	0	0	0	0	507	635	
14	0	0	0	0	504	635	
15	0	0	0	0	503	635	
0	0	0	0	0	503	634	
1	0	0	0	0	503	634	
2	0	0	0	0	503	634	
3	0	0	0	0	504	635	
4	0	0	0	0	505	635	
5	0	0	0	0	507	635	
6	0	0	0	0	507	635	
7	0	0	0	0	505	635	
8	0	0	0	0	503	635	
9	0	0	0	0	500	635	
10	0	0	0	0	498	635	
11	0	0	0	0	496	634	
12	0	0	0	0	494	635	
13	0	0	0	0	492	635	
14	0	0	0	0	492	635	
15	0	0	0	0	492	635	
0	0	0	0	0	493	634	
1	0	0	0	0	496	635	
2	0	0	0	0	498	635	
3	0	0	0	0	499	635	
4	0	0	0	0	498	635	
5	0	0	0	0	496	635	
6	0	0	0	0	496	634	
7	0	0	0	0	496	634	
8	0	0	0	0	495	635	
9	0	0	0	0	494	635	
10	0	0	0	0	494	635	
11	0	0	0	0	494	635	
12	0	0	0	0	494	635	
13	0	0	0	0	493	635	
14	0	0	0	0	493	635	
15	0	0	0	0	492	634	
0	0	0	0	0	491	635	
1	0	0	0	0	488	635	
2	0	0	0	0	485	634	
3	0	0	0	0	485	635	
4	0	0	0	0	487	635	
5	0	0	0	0	487	635	
6	0	0	0	0	489	635	
7	0	0	0	0	491	635	
8	0	0	0	0	494	635	
9	0	0	0	0	496	634	
10	0	0	0	0	499	635	
11	0	0	0	0	501	635	
12	0	0	0	0	500	635	
13	0	0	0	0	499	635	
14	0	0	0	0	500	634	
15	0	0	0	0	501	635	
0	0	0	0	0	502	635	
1	0	0	0	0	503	635	
2	0	0	0	0	503	635	
3	0	0	0	0	503	634	
4	0	0	0	0	504	635	
5	0	0	0	0	505	635	
6	0	0	0	0	507	635	
7	0	0	0	0	506	634	
8	0	0	0	0	506	634	
9	0	0	0	0	506	635	
10	0	0	0	0	505	635	
11	0	0	0	0	504	635	
12	0	0	0	0	504	635	
13	0	0	0	0	505	635	
14	0	0	0	0	504	635	
15	0	0	0	0	502	635	
0	0	0	0	0	500	635	
1	0	0	0	0	498	635	
2	0	0	0	0	496	634	
3	0	0	0	0	496	635	
4	0	0	0	0	496	635	
5	0	0	0	0	496	635	
6	0	0	0	0	496	635	
7	0	0	0	0	495	635	
8	0	0	0	0	495	635	
9	0	0	0	0	492	635	
10	0	0	0	0	492	634	
11	0	0	0	0	494	635	
12	0	0	0	0	495	635	
13	0	0	0	0	496	635	
14	0	0	0	0	497	635	
15	0	0	0	0	498	635	
0	0	0	0	0	499	635	
1	0	0	0	0	497	634	
2	0	0	0	0	495	635	
3	0	0	0	0	494	635	
4	0	0	0	0	494	635	
5	0	0	0	0	495	635	
6	0	0	0	0	494	635	
7	0	0	0	0	494	635	
8	0	0	0	0	494	635	
9	0	0	0	0	493	635	
10	0	0	0	0	493	635	
11	0	0	0	0	494	635	
12	0	0	0	0	495	635	
13	0	0	0	0	495	635	
14	0	0	0	0	496	635	
15	0	0	0	0	496	635	
0	0	0	0	0	495	634	
1	0	0	0	0	494	635	
2	0	0	0	0	492	635	
3	0	0	0	0	492	635	
4	0	0	0	0	492	635	
5	0	0	0	0	493	635	
6	0	0	0	0	495	635	
7	0	0	0	0	498	635	
8	0	0	0	0	501	635	
9	0	0	0	0	503	635	
10	0	0	0	0	504	635	
11	0	0	0	0	504	635	
12	0	0	0	0	503	635	
13	0	0	0	0	503	635	
14	0	0	0	0	504	635	
15	0	0	0	0	504	634	
0	0	0	0	0	506	635	
1	0	0	0	0	506	635	
2	0	0	0	0	507	635	
3	0	0	0	0	507	635	
4	0	0	0	0	508	634	
5	0	0	0	0	509	635	
6	0	0	0	0	512	635	
7	0	0	0	0	512	635	
8	0	0	0	0	511	635	
9	0	0	0	0	510	635	
10	0	0	0	0	508	635	
11	0	0	0	0	509	635	
12	0	0	0	0	511	635	
13	0	0	0	0	514	635	
14	0	0	0	0	516	635	
15	0	0	0	0	515	635	
0	0	0	0	0	513	635	
1	0	0	0	0	509	635	
2	0	0	0	0	507	635	
3	0	0	0	0	504	635	
4	0	0	0	0	503	635	
5	0	0	0	0	504	635	
6	0	0	0	0	506	635	
7	0	0	0	0	509	635	
8	0	0	0	0	511	634	
9	0	0	0	0	512	635	
10	0	0	0	0	513	634	
11	0	0	0	0	512	635	
12	0	0	0	0	512	635	
13	0	0	0	0	512	635	
14	0	0	0	0	510	634	
15	0	0	0	0	510	635	
0	0	0	0	0	511	635	
1	0	0	0	0	512	635	
2	0	0	0	0	511	635	
3	0	0	0	0	511	635	
4	0	0	0	0	508	635	
5	0	0	0	0	507	634	
6	0	0	0	0	508	635	
7	0	0	0	0	509	635	
8	0	0	0	0	511	634	
9	0	0	0	0	513	635	
10	0	0	0	0	516	634	
11	0	0	0	0	520	634	
12	0	0	0	0	522	634	
13	0	0	0	0	522	635	
14	0	0	0	0	522	635	
15	0	0	0	0	523	635	
0	0	0	0	0	523	635	
1	0	0	0	0	523	635	
2	0	0	0	0	523	635	
3	0	0	0	0	526	635	
4	0	0	0	0	528	634	
5	0	0	0	0	530	635	
6	0	0	0	0	531	635	
7	0	0	0	0	531	634	
8	0	0	0	0	531	634	
9	0	0	0	0	533	634	
10	0	0	0	0	534	634	
11	0	0	0	0	535	635	
12	0	0	0	0	536	635	
13	0	0	0	0	536	635	
14	0	0	0	0	537	634	
15	0	0	0	0	536	634	
0	0	0	0	0	535	635	
1	0	0	0	0	532	635	
2	0	0	0	0	532	635	
3	0	0	0	0	534	634	
4	0	0	0	0	534	634	
5	0	0	0	0	534	635	
6	0	0	0	0	536	634	
7	0	0	0	0	537	635	
8	0	0	0	0	539	634	
9	0	0	0	0	539	634	
10	0	0	0	0	537	634	
11	0	0	0	0	537	634	
12	0	0	0	0	538	635	
13	0	0	0	0	538	634	
14	0	0	0	0	536	634	
15	0	0	0	0	537	635	
0	0	0	0	0	537	634	
1	0	0	0	0	534	635	
2	0	0	0	0	532	635	
3	0	0	0	0	530	634	
4	0	0	0	0	529	634	
5	0	0	0	0	531	634	
6	0	0	0	0	533	634	
7	0	0	0	0	536	634	
8	0	0	0	0	540	634	
9	0	0	0	0	545	635	
10	0	0	0	0	547	634	
11	0	0	0	0	550	635	
12	0	0	0	0	551	634	
13	0	0	0	0	552	634	
14	0	0	0	0	552	634	
15	0	0	0	0	550	634	
0	0	0	0	0	546	635	
1	0	0	0	0	543	635	
2	0	0	0	0	542	634	
3	0	0	0	0	540	635	
4	0	0	0	0	537	634	
5	0	0	0	0	532	634	
6	0	0	0	0	526	634	
7	0	0	0	0	515	634	
8	0	0	0	0	501	634	
9	0	0	0	0	487	634	
10	0	0	0	0	474	634	
11	0	0	0	0	462	634	
12	0	0	0	0	455	634	
13	0	0	0	0	455	634	
14	0	0	0	0	459	634	
15	0	0	0	0	465	634	
0	0	0	0	0	472	634	
1	0	0	0	0	476	634	
2	0	0	0	0	479	634	
3	0	0	0	0	483	635	
4	0	0	0	0	487	634	
5	0	0	0	0	492	634	
6	0	0	0	0	500	634	
7	0	0	0	0	505	634	
8	0	0	0	0	511	634	
9	0	0	0	0	519	634	
10	0	0	0	0	524	634	
11	0	0	0	0	528	634	
12	0	0	0	0	530	634	
13	0	0	0	0	535	634	
14	0	0	0	0	537	635	
15	0	0	0	0	541	634	
0	0	0	0	0	544	634	
1	0	0	0	0	543	634	
2	0	0	0	0	537	634	
3	0	0	0	0	526	634	
4	0	0	0	0	512	634	
5	0	0	0	0	495	634	
6	0	0	0	0	480	634	
7	0	0	0	0	468	634	
8	0	0	0	0	462	635	
9	0	0	0	0	457	634	
10	0	0	0	0	457	634	
11	0	0	0	0	461	634	
12	0	0	0	0	469	634	
13	0	0	0	0	479	634	
14	0	0	0	0	490	634	
15	0	0	0	0	500	634	
0	0	0	0	0	508	634	
1	0	0	0	0	513	634	
2	0	0	0	0	518	634	
3	0	0	0	0	519	634	
4	0	0	0	0	519	634	
5	0	0	0	0	518	634	
6	0	0	0	0	518	634	
7	0	0	0	0	515	634	
8	0	0	0	0	513	634	
9	0	0	0	0	513	634	
10	0	0	0	0	517	634	
11	0	0	0	0	521	634	
12	0	0	0	0	523	634	
13	0	0	0	0	523	634	
14	0	0	0	0	523	634	
15	0	0	0	0	519	634	
0	0	0	0	0	516	634	
1	0	0	0	0	512	634	
2	0	0	0	0	510	634	
3	0	0	0	0	508	634	
4	0	0	0	0	506	634	
5	0	0	0	0	506	634	
6	0	0	0	0	506	634	
7	0	0	0	0	504	634	
8	0	0	0	0	503	634	
9	0	0	0	0	501	634	
10	0	0	0	0	501	634	
11	0	0	0	0	500	634	
12	0	0	0	0	501	634	
13	0	0	0	0	503	634	
14	0	0	0	0	504	634	
15	0	0	0	0	504	634	
0	0	0	0	0	504	634	
1	0	0	0	0	505	634	
2	0	0	0	0	506	634	
3	0	0	0	0	505	634	
4	0	0	0	0	505	634	
5	0	0	0	0	504	634	
6	0	0	0	0	503	634	
7	0	0	0	0	502	634	
8	0	0	0	0	500	634	
9	0	0	0	0	497	634	
10	0	0	0	0	495	634	
11	0	0	0	0	494	634	
12	0	0	0	0	493	634	
13	0	0	0	0	492	634	
14	0	0	0	0	493	634	
15	0	0	0	0	494	634	
0	0	0	0	0	494	634	
1	0	0	0	0	496	634	
2	0	0	0	0	501	634	
3	0	0	0	0	504	634	
4	0	0	0	0	508	634	
5	0	0	0	0	511	634	
6	0	0	0	0	516	634	
7	0	0	0	0	522	634	
8	0	0	0	0	529	634	
9	0	0	0	0	533	634	
10	0	0	0	0	534	634	
11	0	0	0	0	535	634	
12	0	0	0	0	534	634	
13	0	0	0	0	533	634	
14	0	0	0	0	529	634	
15	0	0	0	0	522	634	
0	0	0	0	0	512	634	
1	0	0	0	0	496	634	
2	0	0	0	0	474	634	
3	0	0	0	0	450	634	
4	0	0	0	0	429	634	
5	0	0	0	0	417	634	
6	0	0	0	0	416	634	
7	0	0	0	0	424	634	
8	0	0	0	0	432	634	
9	0	0	0	0	440	634	
10	0	0	0	0	446	634	
11	0	0	0	0	455	634	
12	0	0	0	0	468	634	
13	0	0	0	0	479	634	
14	0	0	0	0	487	634	
15	0	0	0	0	494	634	
0	0	0	0	0	498	634	
1	0	0	0	0	501	634	
2	0	0	0	0	505	634	
3	0	0	0	0	509	634	
4	0	0	0	0	513	634	
5	0	0	0	0	515	634	
6	0	0	0	0	519	634	
7	0	0	0	0	522	635	
8	0	0	0	0	525	634	
9	0	0	0	0	527	634	
10	0	0	0	0	528	634	
11	0	0	0	0	528	634	
12	0	0	0	0	527	634	
13	0	0	0	0	527	634	
14	0	0	0	0	527	634	
15	0	0	0	0	526	634	
0	0	0	0	0	521	634	
1	0	0	0	0	516	634	
2	0	0	0	0	510	634	
3	0	0	0	0	504	634	
4	0	0	0	0	499	634	
5	0	0	0	0	498	634	
6	0	0	0	0	499	634	
7	0	0	0	0	499	634	
8	0	0	0	0	496	634	
9	0	0	0	0	492	634	
10	0	0	0	0	488	634	
11	0	0	0	0	484	634	
12	0	0	0	0	482	634	
13	0	0	0	0	484	634	
14	0	0	0	0	486	633	
15	0	0	0	0	487	634	
0	0	0	0	0	488	634	
1	0	0	0	0	490	634	
2	0	0	0	0	492	634	
3	0	0	0	0	492	634	
4	0	0	0	0	489	634	
5	0	0	0	0	487	634	
6	0	0	0	0	484	634	
7	0	0	0	0	481	634	
8	0	0	0	0	477	634	
9	0	0	0	0	473	634	
10	0	0	0	0	468	634	
11	0	0	0	0	466	634	
12	0	0	0	0	466	634	
13	0	0	0	0	466	634	
14	0	0	0	0	472	634	
15	0	0	0	0	478	634	
0	0	0	0	0	485	634	
1	0	0	0	0	491	634	
2	0	0	0	0	495	634	
3	0	0	0	0	497	634	
4	0	0	0	0	498	634	
5	0	0	0	0	498	634	
6	0	0	0	0	499	634	
7	0	0	0	0	502	634	
8	0	0	0	0	503	634	
9	0	0	0	0	501	634	
10	0	0	0	0	496	634	
11	0	0	0	0	486	634	
12	0	0	0	0	472	634	
13	0	0	0	0	456	634	
14	0	0	0	0	442	634	
15	0	0	0	0	435	634	
0	0	0	0	0	436	634	
1	0	0	0	0	446	634	
2	0	0	0	0	458	634	
3	0	0	0	0	468	634	
4	0	0	0	0	475	634	
5	0	0	0	0	480	634	
6	0	0	0	0	484	634	
7	0	0	0	0	487	634	
8	0	0	0	0	489	634	
9	0	0	0	0	489	634	
10	0	0	0	0	491	634	
11	0	0	0	0	492	634	
12	0	0	0	0	493	634	
13	0	0	0	0	494	634	
14	0	0	0	0	495	634	
15	0	0	0	0	496	634	
0	0	0	0	0	496	634	
1	0	0	0	0	496	634	
2	0	0	0	0	496	634	
3	0	0	0	0	497	634	
4	0	0	0	0	497	634	
5	0	0	0	0	497	634	
6	0	0	0	0	496	634	
7	0	0	0	0	493	634	
8	0	0	0	0	491	634	
9	0	0	0	0	490	634	
10	0	0	0	0	489	634	
11	0	0	0	0	490	634	
12	0	0	0	0	491	634	
13	0	0	0	0	493	634	
14	0	0	0	0	492	634	
15	0	0	0	0	491	634	
0	0	0	0	0	492	634	
1	0	0	0	0	493	634	
2	0	0	0	0	493	634	
3	0	0	0	0	491	634	
4	0	0	0	0	489	634	
5	0	0	0	0	486	634	
6	0	0	0	0	482	634	
7	0	0	0	0	479	634	
8	0	0	0	0	478	634	
9	0	0	0	0	478	634	
10	0	0	0	0	481	634	
11	0	0	0	0	484	634	
12	0	0	0	0	487	634	
13	0	0	0	0	489	634	
14	0	0	0	0	493	634	
15	0	0	0	0	496	634	
0	0	0	0	0	497	634	
1	0	0	0	0	500	634	
2	0	0	0	0	502	634	
3	0	0	0	0	500	634	
4	0	0	0	0	499	634	
5	0	0	0	0	496	634	
6	0	0	0	0	493	634	
7	0	0	0	0	487	634	
8	0	0	0	0	478	633	
9	0	0	0	0	469	634	
10	0	0	0	0	459	634	
11	0	0	0	0	453	633	
12	0	0	0	0	452	634	
13	0	0	0	0	455	634	
14	0	0	0	0	465	634	
15	0	0	0	0	472	634	
0	0	0	0	0	477	634	
1	0	0	0	0	481	633	
2	0	0	0	0	483	634	
3	0	0	0	0	487	634	
4	0	0	0	0	490	634	
5	0	0	0	0	493	634	
6	0	0	0	0	495	633	
7	0	0	0	0	499	634	
8	0	0	0	0	502	634	
9	0	0	0	0	503	634	
10	0	0	0	0	500	634	
11	0	0	0	0	498	634	
12	0	0	0	0	495	634	
13	0	0	0	0	492	634	
14	0	0	0	0	491	634	
15	0	0	0	0	492	634	
0	0	0	0	0	493	633	
1	0	0	0	0	497	633	
2	0	0	0	0	503	634	
3	0	0	0	0	504	634	
4	0	0	0	0	502	633	
5	0	0	0	0	497	634	
6	0	0	0	0	493	633	
7	0	0	0	0	491	634	
8	0	0	0	0	490	634	
9	0	0	0	0	494	634	
10	0	0	0	0	496	633	
11	0	0	0	0	497	633	
12	0	0	0	0	500	634	
13	0	0	0	0	503	634	
14	0	0	0	0	507	633	
15	0	0	0	0	509	633	
0	0	0	0	0	511	633	
1	0	0	0	0	512	634	
2	0	0	0	0	512	633	
3	0	0	0	0	511	633	
4	0	0	0	0	513	634	
5	0	0	0	0	515	633	
6	0	0	0	0	519	633	
7	0	0	0	0	519	633	
8	0	0	0	0	518	633	
9	0	0	0	0	516	633	
10	0	0	0	0	514	633	
11	0	0	0	0	511	633	
12	0	0	0	0	511	633	
13	0	0	0	0	509	633	
14	0	0	0	0	507	634	
15	0	0	0	0	504	633	
0	0	0	0	0	501	633	
1	0	0	0	0	497	633	
2	0	0	0	0	491	633	
3	0	0	0	0	486	634	
4	0	0	0	0	482	633	
5	0	0	0	0	480	633	
6	0	0	0	0	482	633	
7	0	0	0	0	486	633	
8	0	0	0	0	492	634	
9	0	0	0	0	496	633	
10	0	0	0	0	499	633	
11	0	0	0	0	502	634	
12	0	0	0	0	503	633	
13	0	0	0	0	504	633	
14	0	0	0	0	504	633	
15	0	0	0	0	504	633	
0	0	0	0	0	504	633	
1	0	0	0	0	503	633	
2	0	0	0	0	502	634	
3	0	0	0	0	502	633	
4	0	0	0	0	502	633	
5	0	0	0	0	503	634	
6	0	0	0	0	502	633	
7	0	0	0	0	499	633	
8	0	0	0	0	497	633	
9	0	0	0	0	495	633	
10	0	0	0	0	493	634	
11	0	0	0	0	492	633	
12	0	0	0	0	491	633	
13	0	0	0	0	491	633	
14	0	0	0	0	490	633	
15	0	0	0	0	489	633	
0	0	0	0	0	491	633	
1	0	0	0	0	492	633	
2	0	0	0	0	492	633	
3	0	0	0	0	492	634	
4	0	0	0	0	493	633	
5	0	0	0	0	494	633	
6	0	0	0	0	494	633	
7	0	0	0	0	494	633	
8	0	0	0	0	494	633	
9	0	0	0	0	493	633	
10	0	0	0	0	492	633	
11	0	0	0	0	493	633	
12	0	0	0	0	495	633	
13	0	0	0	0	497	633	
14	0	0	0	0	498	633	
15	0	0	0	0	497	633	
0	0	0	0	0	496	633	
1	0	0	0	0	493	633	
2	0	0	0	0	493	633	
3	0	0	0	0	495	634	
4	0	0	0	0	497	633	
5	0	0	0	0	499	634	
6	0	0	0	0	502	633	
7	0	0	0	0	504	633	
8	0	0	0	0	505	634	
9	0	0	0	0	506	633	
10	0	0	0	0	506	633	
11	0	0	0	0	505	633	
12	0	0	0	0	504	633	
13	0	0	0	0	505	633	
14	0	0	0	0	505	634	
15	0	0	0	0	504	633	
0	0	0	0	0	503	634	
1	0	0	0	0	501	633	
2	0	0	0	0	499	634	
3	0	0	0	0	497	633	
4	0	0	0	0	497	633	
5	0	0	0	0	496	633	
6	0	0	0	0	496	633	
7	0	0	0	0	496	633	
8	0	0	0	0	496	633	
9	0	0	0	0	495	633	
10	0	0	0	0	497	633	
11	0	0	0	0	500	633	
12	0	0	0	0	507	633	
13	0	0	0	0	513	633	
14	0	0	0	0	519	633	
15	0	0	0	0	524	633	
0	0	0	0	0	526	633	
1	0	0	0	0	527	633	
2	0	0	0	0	527	633	
3	0	0	0	0	527	633	
4	0	0	0	0	528	633	
5	0	0	0	0	529	633	
6	0	0	0	0	529	633	
7	0	0	0	0	530	633	
8	0	0	0	0	531	633	
9	0	0	0	0	527	633	
10	0	0	0	0	520	633	
11	0	0	0	0	511	633	
12	0	0	0	0	501	633	
13	0	0	0	0	491	633	
14	0	0	0	0	483	633	
15	0	0	0	0	477	633	
0	0	0	0	0	479	633	
1	0	0	0	0	484	633	
2	0	0	0	0	491	633	
3	0	0	0	0	498	633	
4	0	0	0	0	501	633	
5	0	0	0	0	502	633	
6	0	0	0	0	504	633	
7	0	0	0	0	508	633	
8	0	0	0	0	513	633	
9	0	0	0	0	517	633	
10	0	0	0	0	520	633	
11	0	0	0	0	526	633	
12	0	0	0	0	530	633	
13	0	0	0	0	534	633	
14	0	0	0	0	539	633	
15	0	0	0	0	542	633	
0	0	0	0	0	544	633	
1	0	0	0	0	547	633	
2	0	0	0	0	546	633	
3	0	0	0	0	543	633	
4	0	0	0	0	535	633	
5	0	0	0	0	523	633	
6	0	0	0	0	510	633	
7	0	0	0	0	497	633	
8	0	0	0	0	490	633	
9	0	0	0	0	487	632	
10	0	0	0	0	486	632	
11	0	0	0	0	483	633	
12	0	0	0	0	479	633	
13	0	0	0	0	476	633	
14	0	0	0	0	476	632	
15	0	0	0	0	481	632	
0	0	0	0	0	489	633	
1	0	0	0	0	496	632	
2	0	0	0	0	498	633	
3	0	0	0	0	500	633	
4	0	0	0	0	499	632	
5	0	0	0	0	498	633	
6	0	0	0	0	498	632	
7	0	0	0	0	497	633	
8	0	0	0	0	496	632	
9	0	0	0	0	496	632	
10	0	0	0	0	497	633	
11	0	0	0	0	499	632	
12	0	0	0	0	500	632	
13	0	0	0	0	500	632	
14	0	0	0	0	501	632	
15	0	0	0	0	500	632	
0	0	0	0	0	500	632	
1	0	0	0	0	500	632	
2	0	0	0	0	500	632	
3	0	0	0	0	500	632	
4	0	0	0	0	499	633	
5	0	0	0	0	498	632	
6	0	0	0	0	497	632	
7	0	0	0	0	496	632	
8	0	0	0	0	494	632	
9	0	0	0	0	492	632	
10	0	0	0	0	492	632	
11	0	0	0	0	493	632	
12	0	0	0	0	493	632	
13	0	0	0	0	494	632	
14	0	0	0	0	496	632	
15	0	0	0	0	496	632	
0	0	0	0	0	496	632	
1	0	0	0	0	497	632	
2	0	0	0	0	497	632	
3	0	0	0	0	498	632	
4	0	0	0	0	497	632	
5	0	0	0	0	498	632	
6	0	0	0	0	497	632	
7	0	0	0	0	496	632	
8	0	0	0	0	495	632	
9	0	0	0	0	494	632	
10	0	0	0	0	494	632	
11	0	0	0	0	495	632	
12	0	0	0	0	496	632	
13	0	0	0	0	498	632	
14	0	0	0	0	499	632	
15	0	0	0	0	500	632	
0	0	0	0	0	500	632	
1	0	0	0	0	499	632	
2	0	0	0	0	498	632	
3	0	0	0	0	497	632	
4	0	0	0	0	497	632	
5	0	0	0	0	494	632	
6	0	0	0	0	493	632	
7	0	0	0	0	491	632	
8	0	0	0	0	490	632	
9	0	0	0	0	489	632	
10	0	0	0	0	488	632	
11	0	0	0	0	487	632	
12	0	0	0	0	488	632	
13	0	0	0	0	487	632	
14	0	0	0	0	489	632	
15	0	0	0	0	490	632	
0	0	0	0	0	492	632	
1	0	0	0	0	492	632	
2	0	0	0	0	492	632	
3	0	0	0	0	493	632	
4	0	0	0	0	492	632	
5	0	0	0	0	492	632	
6	0	0	0	0	492	632	
7	0	0	0	0	492	632	
8	0	0	0	0	492	632	
9	0	0	0	0	492	632	
10	0	0	0	0	492	632	
11	0	0	0	0	494	632	
12	0	0	0	0	495	632	
13	0	0	0	0	496	632	
14	0	0	0	0	497	632	
15	0	0	0	0	497	632	
0	0	0	0	0	498	632	
1	0	0	0	0	498	632	
2	0	0	0	0	499	632	
3	0	0	0	0	500	632	
4	0	0	0	0	501	632	
5	0	0	0	0	502	632	
6	0	0	0	0	501	632	
7	0	0	0	0	500	632	
8	0	0	0	0	499	632	
9	0	0	0	0	499	632	
10	0	0	0	0	499	632	
11	0	0	0	0	501	632	
12	0	0	0	0	503	632	
13	0	0	0	0	504	632	
14	0	0	0	0	504	632	
15	0	0	0	0	504	632	
0	0	0	0	0	504	632	
1	0	0	0	0	503	632	
2	0	0	0	0	503	632	
3	0	0	0	0	502	632	
4	0	0	0	0	503	632	
5	0	0	0	0	503	632	
6	0	0	0	0	504	632	
7	0	0	0	0	503	632	
8	0	0	0	0	503	632	
9	0	0	0	0	502	632	
10	0	0	0	0	501	632	
11	0	0	0	0	500	632	
12	0	0	0	0	500	632	
13	0	0	0	0	500	632	
14	0	0	0	0	500	632	
15	0	0	0	0	501	632	
0	0	0	0	0	501	632	
1	0	0	0	0	501	632	
2	0	0	0	0	501	632	
3	0	0	0	0	500	632	
4	0	0	0	0	501	632	
5	0	0	0	0	501	632	
6	0	0	0	0	501	632	
7	0	0	0	0	502	632	
8	0	0	0	0	503	632	
9	0	0	0	0	503	632	
10	0	0	0	0	505	632	
11	0	0	0	0	507	632	
12	0	0	0	0	507	632	
13	0	0	0	0	508	632	
14	0	0	0	0	508	632	
15	0	0	0	0	508	632	
0	0	0	0	0	508	632	
1	0	0	0	0	507	632	
2	0	0	0	0	506	632	
3	0	0	0	0	505	631	
4	0	0	0	0	504	632	
5	0	0	0	0	503	632	
6	0	0	0	0	503	632	
7	0	0	0	0	502	632	
8	0	0	0	0	500	632	
9	0	0	0	0	499	632	
10	0	0	0	0	497	632	
11	0	0	0	0	496	632	
12	0	0	0	0	496	632	
13	0	0	0	0	495	631	
14	0	0	0	0	494	632	
15	0	0	0	0	493	631	
0	0	0	0	0	493	632	
1	0	0	0	0	493	632	
2	0	0	0	0	493	631	
3	0	0	0	0	494	631	
4	0	0	0	0	493	632	
5	0	0	0	0	493	632	
6	0	0	0	0	493	632	
7	0	0	0	0	492	632	
8	0	0	0	0	491	632	
9	0	0	0	0	491	632	
10	0	0	0	0	490	632	
11	0	0	0	0	488	631	
12	0	0	0	0	487	631	
13	0	0	0	0	486	632	
14	0	0	0	0	485	632	
15	0	0	0	0	484	632	
0	0	0	0	0	485	632	
1	0	0	0	0	487	632	
2	0	0	0	0	489	631	
3	0	0	0	0	491	632	
4	0	0	0	0	493	632	
5	0	0	0	0	495	632	
6	0	0	0	0	495	631	
7	0	0	0	0	496	631	
8	0	0	0	0	497	632	
9	0	0	0	0	499	632	
10	0	0	0	0	499	632	
11	0	0	0	0	500	631	
12	0	0	0	0	502	632	
13	0	0	0	0	502	632	
14	0	0	0	0	504	632	
15	0	0	0	0	505	632	
0	0	0	0	0	507	631	
1	0	0	0	0	508	631	
2	0	0	0	0	509	632	
3	0	0	0	0	510	632	
4	0	0	0	0	511	631	
5	0	0	0	0	511	632	
6	0	0	0	0	511	632	
7	0	0	0	0	511	632	
8	0	0	0	0	513	631	
9	0	0	0	0	515	631	
10	0	0	0	0	515	631	
11	0	0	0	0	516	632	
12	0	0	0	0	515	632	
13	0	0	0	0	515	631	
14	0	0	0	0	515	631	
15	0	0	0	0	515	631	
0	0	0	0	0	515	632	
1	0	0	0	0	517	632	
2	0	0	0	0	519	631	
3	0	0	0	0	519	631	
4	0	0	0	0	519	631	
5	0	0	0	0	520	631	
6	0	0	0	0	521	631	
7	0	0	0	0	521	631	
8	0	0	0	0	522	631	
9	0	0	0	0	523	631	
10	0	0	0	0	524	632	
11	0	0	0	0	526	632	
12	0	0	0	0	525	631	
13	0	0	0	0	526	632	
14	0	0	0	0	526	631	
15	0	0	0	0	525	631	
0	0	0	0	0	525	631	
1	0	0	0	0	524	631	
2	0	0	0	0	523	631	
3	0	0	0	0	522	631	
4	0	0	0	0	523	631	
5	0	0	0	0	523	631	
6	0	0	0	0	523	631	
7	0	0	0	0	524	631	
8	0	0	0	0	526	631	
9	0	0	0	0	527	631	
10	0	0	0	0	527	631	
11	0	0	0	0	527	631	
12	0	0	0	0	528	631	
13	0	0	0	0	528	631	
14	0	0	0	0	529	631	
15	0	0	0	0	527	631	
0	0	0	0	0	528	631	
1	0	0	0	0	528	631	
2	0	0	0	0	528	631	
3	0	0	0	0	529	631	
4	0	0	0	0	530	631	
5	0	0	0	0	531	631	
6	0	0	0	0	532	631	
7	0	0	0	0	531	631	
8	0	0	0	0	530	631	
9	0	0	0	0	530	631	
10	0	0	0	0	531	631	
11	0	0	0	0	530	631	
12	0	0	0	0	529	631	
13	0	0	0	0	527	632	
14	0	0	0	0	525	631	
15	0	0	0	0	523	631	
0	0	0	0	0	523	631	
1	0	0	0	0	522	631	
2	0	0	0	0	523	631	
3	0	0	0	0	524	631	
4	0	0	0	0	525	631	
5	0	0	0	0	525	631	
6	0	0	0	0	526	631	
7	0	0	0	0	525	631	
8	0	0	0	0	526	631	
9	0	0	0	0	525	631	
10	0	0	0	0	523	631	
11	0	0	0	0	521	631	
12	0	0	0	0	519	631	
13	0	0	0	0	516	631	
14	0	0	0	0	515	631	
15	0	0	0	0	513	631	
0	0	0	0	0	512	631	
1	0	0	0	0	513	631	
2	0	0	0	0	513	631	
3	0	0	0	0	514	631	
4	0	0	0	0	515	631	
5	0	0	0	0	516	631	
6	0	0	0	0	517	631	
7	0	0	0	0	516	631	
8	0	0	0	0	516	631	
9	0	0	0	0	517	631	
10	0	0	0	0	517	631	
11	0	0	0	0	519	631	
12	0	0	0	0	520	631	
13	0	0	0	0	521	631	
14	0	0	0	0	523	631	
15	0	0	0	0	522	631	
0	0	0	0	0	524	631	
1	0	0	0	0	523	631	
2	0	0	0	0	522	631	
3	0	0	0	0	520	631	
4	0	0	0	0	519	631	
5	0	0	0	0	517	631	
6	0	0	0	0	515	631	
7	0	0	0	0	514	631	
8	0	0	0	0	511	631	
9	0	0	0	0	510	631	
10	0	0	0	0	508	631	
11	0	0	0	0	505	631	
12	0	0	0	0	503	631	
13	0	0	0	0	500	631	
14	0	0	0	0	498	631	
15	0	0	0	0	496	631	
0	0	0	0	0	494	631	
1	0	0	0	0	492	631	
2	0	0	0	0	490	631	
3	0	0	0	0	488	631	
4	0	0	0	0	487	631	
5	0	0	0	0	487	631	
6	0	0	0	0	488	631	
7	0	0	0	0	491	631	
8	0	0	0	0	494	631	
9	0	0	0	0	499	631	
10	0	0	0	0	505	631	
11	0	0	0	0	509	631	
12	0	0	0	0	515	631	
13	0	0	0	0	520	631	
14	0	0	0	0	524	631	
15	0	0	0	0	527	631	
0	0	0	0	0	528	631	
1	0	0	0	0	529	631	
2	0	0	0	0	531	631	
3	0	0	0	0	530	631	
4	0	0	0	0	531	631	
5	0	0	0	0	535	631	
6	0	0	0	0	540	631	
7	0	0	0	0	547	631	
8	0	0	0	0	555	631	
9	0	0	0	0	563	631	
10	0	0	0	0	570	631	
11	0	0	0	0	575	631	
12	0	0	0	0	580	631	
13	0	0	0	0	585	631	
14	0	0	0	0	588	631	
15	0	0	0	0	591	631	
0	0	0	0	0	592	631	
1	0	0	0	0	593	631	
2	0	0	0	0	593	631	
3	0	0	0	0	591	631	
4	0	0	0	0	590	631	
5	0	0	0	0	588	631	
6	0	0	0	0	588	630	
7	0	0	0	0	586	631	
8	0	0	0	0	585	631	
9	0	0	0	0	584	630	
10	0	0	0	0	584	631	
11	0	0	0	0	584	631	
12	0	0	0	0	585	631	
13	0	0	0	0	585	631	
14	0	0	0	0	584	631	
15	0	0	0	0	583	631	
0	0	0	0	0	581	631	
1	0	0	0	0	580	631	
2	0	0	0	0	578	631	
3	0	0	0	0	577	631	
4	0	0	0	0	575	631	
5	0	0	0	0	573	630	
6	0	0	0	0	573	631	
7	0	0	0	0	573	630	
8	0	0	0	0	574	631	
9	0	0	0	0	575	631	
10	0	0	0	0	575	631	
11	0	0	0	0	576	631	
12	0	0	0	0	577	631	
13	0	0	0	0	578	631	
14	0	0	0	0	580	631	
15	0	0	0	0	580	630	
0	0	0	0	0	581	631	
1	0	0	0	0	581	631	
2	0	0	0	0	581	631	
3	0	0	0	0	582	631	
4	0	0	0	0	583	631	
5	0	0	0	0	584	631	
6	0	0	0	0	585	631	
7	0	0	0	0	586	630	
8	0	0	0	0	587	631	
9	0	0	0	0	588	631	
10	0	0	0	0	590	631	
11	0	0	0	0	591	631	
12	0	0	0	0	590	630	
13	0	0	0	0	590	631	
14	0	0	0	0	589	630	
15	0	0	0	0	587	631	
0	0	0	0	0	585	631	
1	0	0	0	0	582	631	
2	0	0	0	0	580	631	
3	0	0	0	0	579	630	
4	0	0	0	0	579	631	
5	0	0	0	0	579	631	
6	0	0	0	0	579	631	
7	0	0	0	0	580	631	
8	0	0	0	0	580	630	
9	0	0	0	0	580	631	
10	0	0	0	0	580	631	
11	0	0	0	0	579	631	
12	0	0	0	0	578	631	
13	0	0	0	0	577	630	
14	0	0	0	0	577	631	
15	0	0	0	0	575	631	
0	0	0	0	0	575	630	
1	0	0	0	0	574	631	
2	0	0	0	0	572	631	
3	0	0	0	0	569	631	
4	0	0	0	0	568	631	
5	0	0	0	0	566	631	
6	0	0	0	0	565	631	
7	0	0	0	0	564	631	
8	0	0	0	0	563	631	
9	0	0	0	0	564	631	
10	0	0	0	0	566	631	
11	0	0	0	0	568	630	
12	0	0	0	0	571	630	
13	0	0	0	0	575	631	
14	0	0	0	0	579	631	
15	0	0	0	0	583	631	
0	0	0	0	0	588	631	
1	0	0	0	0	592	631	
2	0	0	0	0	596	631	
3	0	0	0	0	600	631	
4	0	0	0	0	603	631	
5	0	0	0	0	605	631	
6	0	0	0	0	606	631	
7	0	0	0	0	606	631	
8	0	0	0	0	604	631	
9	0	0	0	0	601	631	
10	0	0	0	0	597	631	
11	0	0	0	0	592	630	
12	0	0	0	0	586	631	
13	0	0	0	0	579	631	
14	0	0	0	0	572	631	
15	0	0	0	0	565	631	
0	0	0	0	0	558	631	
1	0	0	0	0	551	631	
2	0	0	0	0	542	631	
3	0	0	0	0	535	631	
4	0	0	0	0	526	631	
5	0	0	0	0	520	631	
6	0	0	0	0	516	631	
7	0	0	0	0	513	631	
8	0	0	0	0	511	631	
9	0	0	0	0	509	631	
10	0	0	0	0	507	631	
11	0	0	0	0	505	631	
12	0	0	0	0	504	631	
13	0	0	0	0	503	631	
14	0	0	0	0	503	631	
15	0	0	0	0	503	631	
0	0	0	0	0	502	631	
1	0	0	0	0	503	631	
2	0	0	0	0	504	631	
3	0	0	0	0	504	631	
4	0	0	0	0	505	631	
5	0	0	0	0	507	631	
6	0	0	0	0	508	631	
7	0	0	0	0	508	631	
8	0	0	0	0	510	631	
9	0	0	0	0	512	631	
10	0	0	0	0	514	631	
11	0	0	0	0	517	631	
12	0	0	0	0	520	631	
13	0	0	0	0	524	631	
14	0	0	0	0	527	631	
15	0	0	0	0	530	631	
0	0	0	0	0	533	631	
1	0	0	0	0	536	631	
2	0	0	0	0	539	631	
3	0	0	0	0	541	631	
4	0	0	0	0	544	631	
5	0	0	0	0	547	631	
6	0	0	0	0	549	631	
7	0	0	0	0	550	631	
8	0	0	0	0	551	631	
9	0	0	0	0	552	631	
10	0	0	0	0	552	631	
11	0	0	0	0	552	631	
12	0	0	0	0	553	631	
13	0	0	0	0	553	631	
14	0	0	0	0	554	631	
15	0	0	0	0	554	631	
0	0	0	0	0	552	631	
1	0	0	0	0	551	631	
2	0	0	0	0	550	631	
3	0	0	0	0	548	631	
4	0	0	0	0	546	631	
5	0	0	0	0	544	631	
6	0	0	0	0	542	631	
7	0	0	0	0	541	631	
8	0	0	0	0	540	631	
9	0	0	0	0	538	631	
10	0	0	0	0	537	631	
11	0	0	0	0	536	631	
12	0	0	0	0	533	631	
13	0	0	0	0	533	631	
14	0	0	0	0	533	631	
15	0	0	0	0	532	631	
0	0	0	0	0	532	631	
1	0	0	0	0	531	631	
2	0	0	0	0	530	631	
3	0	0	0	0	529	631	
4	0	0	0	0	528	631	
5	0	0	0	0	527	632	
6	0	0	0	0	525	631	
7	0	0	0	0	524	631	
8	0	0	0	0	522	631	
9	0	0	0	0	520	631	
10	0	0	0	0	518	632	
11	0	0	0	0	516	631	
12	0	0	0	0	515	631	
13	0	0	0	0	515	631	
14	0	0	0	0	515	631	
15	0	0	0	0	515	632	
0	0	0	0	0	515	631	
1	0	0	0	0	515	632	
2	0	0	0	0	514	632	
3	0	0	0	0	512	631	
4	0	0	0	0	512	632	
5	0	0	0	0	511	631	
6	0	0	0	0	511	632	
7	0	0	0	0	510	632	
8	0	0	0	0	510	632	
9	0	0	0	0	509	632	
10	0	0	0	0	509	632	
11	0	0	0	0	510	632	
12	0	0	0	0	510	632	
13	0	0	0	0	511	631	
14	0	0	0	0	512	632	
15	0	0	0	0	513	631	
0	0	0	0	0	516	632	
1	0	0	0	0	519	632	
2	0	0	0	0	521	632	
3	0	0	0	0	522	632	
4	0	0	0	0	524	632	
5	0	0	0	0	526	632	
6	0	0	0	0	527	632	
7	0	0	0	0	528	632	
8	0	0	0	0	530	632	
9	0	0	0	0	531	632	
10	0	0	0	0	531	632	
11	0	0	0	0	531	632	
12	0	0	0	0	531	632	
13	0	0	0	0	530	632	
14	0	0	0	0	529	632	
15	0	0	0	0	529	632	
0	0	0	0	0	528	632	
1	0	0	0	0	527	632	
2	0	0	0	0	527	632	
3	0	0	0	0	526	632	
4	0	0	0	0	526	632	
5	0	0	0	0	525	632	
6	0	0	0	0	524	632	
7	0	0	0	0	524	632	
8	0	0	0	0	522	632	
9	0	0	0	0	520	632	
10	0	0	0	0	518	632	
11	0	0	0	0	515	632	
12	0	0	0	0	514	632	
13	0	0	0	0	512	632	
14	0	0	0	0	511	632	
15	0	0	0	0	508	632	
0	0	0	0	0	508	632	
1	0	0	0	0	508	632	
2	0	0	0	0	508	632	
3	0	0	0	0	510	632	
4	0	0	0	0	511	632	
5	0	0	0	0	511	632	
6	0	0	0	0	512	632	
7	0	0	0	0	511	632	
8	0	0	0	0	512	632	
9	0	0	0	0	512	632	
10	0	0	0	0	512	632	
11	0	0	0	0	511	632	
12	0	0	0	0	511	632	
13	0	0	0	0	511	632	
14	0	0	0	0	512	632	
15	0	0	0	0	513	632	
0	0	0	0	0	515	632	
1	0	0	0	0	516	632	
2	0	0	0	0	516	632	
3	0	0	0	0	518	632	
4	0	0	0	0	518	632	
5	0	0	0	0	518	632	
6	0	0	0	0	518	632	
7	0	0	0	0	516	632	
8	0	0	0	0	516	633	
9	0	0	0	0	515	632	
10	0	0	0	0	515	633	
11	0	0	0	0	514	632	
12	0	0	0	0	514	633	
13	0	0	0	0	513	633	
14	0	0	0	0	513	633	
15	0	0	0	0	512	633	
0	0	0	0	0	512	632	
1	0	0	0	0	511	633	
2	0	0	0	0	511	633	
3	0	0	0	0	511	633	
4	0	0	0	0	512	633	
5	0	0	0	0	512	633	
6	0	0	0	0	512	633	
7	0	0	0	0	510	633	
8	0	0	0	0	510	633	
9	0	0	0	0	509	633	
10	0	0	0	0	510	633	
11	0	0	0	0	509	633	
12	0	0	0	0	508	633	
13	0	0	0	0	507	633	
14	0	0	0	0	507	633	
15	0	0	0	0	507	633	
0	0	0	0	0	506	633	
1	0	0	0	0	506	633	
2	0	0	0	0	506	633	
3	0	0	0	0	507	633	
4	0	0	0	0	507	633	
5	0	0	0	0	506	633	
6	0	0	0	0	506	633	
7	0	0	0	0	506	633	
8	0	0	0	0	505	633	
9	0	0	0	0	505	633	
10	0	0	0	0	504	633	
11	0	0	0	0	504	633	
12	0	0	0	0	504	633	
13	0	0	0	0	503	634	
14	0	0	0	0	502	633	
15	0	0	0	0	502	633	
0	0	0	0	0	501	634	
1	0	0	0	0	500	634	
2	0	0	0	0	500	634	
3	0	0	0	0	501	634	
4	0	0	0	0	501	634	
5	0	0	0	0	501	634	
6	0	0	0	0	502	634	
7	0	0	0	0	502	634	
8	0	0	0	0	502	634	
9	0	0	0	0	502	634	
10	0	0	0	0	502	634	
11	0	0	0	0	501	634	
12	0	0	0	0	501	634	
13	0	0	0	0	500	634	
14	0	0	0	0	500	634	
15	0	0	0	0	500	634	
0	0	0	0	0	500	634	
1	0	0	0	0	500	634	
2	0	0	0	0	499	634	
