# OpenSignals Text File Format. Version 1
# {"98:D3:B1:FD:3D:90": {"position": 0, "device": "bitalino_rev", "device name": "98:D3:B1:FD:3D:90", "device connection": "BTH98:D3:B1:FD:3D:90", "sampling rate": 1000, "resolution": [4, 1, 1, 1, 1, 10, 10], "firmware version": 1281, "comments": "", "keywords": "", "mode": 0, "sync interval": 2, "date": "2022-4-14", "time": "16:26:18.849", "channels": [2, 3], "sensor": ["ECGBIT", "EDABITREV"], "label": ["A2", "A3"], "column": ["nSeq", "I1", "I2", "O1", "O2", "A2", "A3"], "special": [{}, {}], "digital IO": [0, 0, 1, 1]}}
# EndOfHeader
0	0	0	0	0	491	307	
1	0	0	0	0	492	307	
2	0	0	0	0	492	307	
3	0	0	0	0	492	307	
4	0	0	0	0	492	307	
5	0	0	0	0	493	307	
6	0	0	0	0	493	307	
7	0	0	0	0	493	307	
8	0	0	0	0	492	307	
9	0	0	0	0	492	307	
10	0	0	0	0	491	307	
11	0	0	0	0	490	307	
12	0	0	0	0	490	307	
13	0	0	0	0	490	307	
14	0	0	0	0	489	307	
15	0	0	0	0	488	307	
0	0	0	0	0	488	307	
1	0	0	0	0	488	307	
2	0	0	0	0	489	307	
3	0	0	0	0	490	307	
4	0	0	0	0	492	307	
5	0	0	0	0	493	307	
6	0	0	0	0	493	307	
7	0	0	0	0	493	307	
8	0	0	0	0	493	307	
9	0	0	0	0	492	307	
10	0	0	0	0	492	307	
11	0	0	0	0	491	307	
12	0	0	0	0	491	307	
13	0	0	0	0	491	307	
14	0	0	0	0	492	307	
15	0	0	0	0	492	307	
0	0	0	0	0	492	307	
1	0	0	0	0	494	307	
2	0	0	0	0	494	307	
3	0	0	0	0	495	307	
4	0	0	0	0	496	307	
5	0	0	0	0	496	307	
6	0	0	0	0	498	307	
7	0	0	0	0	498	307	
8	0	0	0	0	499	307	
9	0	0	0	0	500	307	
10	0	0	0	0	500	307	
11	0	0	0	0	500	307	
12	0	0	0	0	499	307	
13	0	0	0	0	500	307	
14	0	0	0	0	499	307	
15	0	0	0	0	499	307	
0	0	0	0	0	499	307	
1	0	0	0	0	499	307	
2	0	0	0	0	500	307	
3	0	0	0	0	501	307	
4	0	0	0	0	502	307	
5	0	0	0	0	504	307	
6	0	0	0	0	505	307	
7	0	0	0	0	507	307	
8	0	0	0	0	509	307	
9	0	0	0	0	510	307	
10	0	0	0	0	511	307	
11	0	0	0	0	512	307	
12	0	0	0	0	511	307	
13	0	0	0	0	511	307	
14	0	0	0	0	511	307	
15	0	0	0	0	512	307	
0	0	0	0	0	511	307	
1	0	0	0	0	511	307	
2	0	0	0	0	512	307	
3	0	0	0	0	512	307	
4	0	0	0	0	512	307	
5	0	0	0	0	513	307	
6	0	0	0	0	513	307	
7	0	0	0	0	514	307	
8	0	0	0	0	515	307	
9	0	0	0	0	515	307	
10	0	0	0	0	515	307	
11	0	0	0	0	516	307	
12	0	0	0	0	516	307	
13	0	0	0	0	516	307	
14	0	0	0	0	515	307	
15	0	0	0	0	516	307	
0	0	0	0	0	516	307	
1	0	0	0	0	516	307	
2	0	0	0	0	516	307	
3	0	0	0	0	518	307	
4	0	0	0	0	518	307	
5	0	0	0	0	519	307	
6	0	0	0	0	520	307	
7	0	0	0	0	520	307	
8	0	0	0	0	521	307	
9	0	0	0	0	523	307	
10	0	0	0	0	523	307	
11	0	0	0	0	524	307	
12	0	0	0	0	524	307	
13	0	0	0	0	524	307	
14	0	0	0	0	524	307	
15	0	0	0	0	524	307	
0	0	0	0	0	524	307	
1	0	0	0	0	524	307	
2	0	0	0	0	523	307	
3	0	0	0	0	523	307	
4	0	0	0	0	522	307	
5	0	0	0	0	522	306	
6	0	0	0	0	522	307	
7	0	0	0	0	523	307	
8	0	0	0	0	524	307	
9	0	0	0	0	524	307	
10	0	0	0	0	524	307	
11	0	0	0	0	524	306	
12	0	0	0	0	524	307	
13	0	0	0	0	523	307	
14	0	0	0	0	522	307	
15	0	0	0	0	522	307	
0	0	0	0	0	521	307	
1	0	0	0	0	521	307	
2	0	0	0	0	520	307	
3	0	0	0	0	520	307	
4	0	0	0	0	520	306	
5	0	0	0	0	521	307	
6	0	0	0	0	522	307	
7	0	0	0	0	523	307	
8	0	0	0	0	524	306	
9	0	0	0	0	525	307	
10	0	0	0	0	525	307	
11	0	0	0	0	525	307	
12	0	0	0	0	526	307	
13	0	0	0	0	526	307	
14	0	0	0	0	526	307	
15	0	0	0	0	527	307	
0	0	0	0	0	525	307	
1	0	0	0	0	525	307	
2	0	0	0	0	525	307	
3	0	0	0	0	524	307	
4	0	0	0	0	524	307	
5	0	0	0	0	524	307	
6	0	0	0	0	524	307	
7	0	0	0	0	524	306	
8	0	0	0	0	525	307	
9	0	0	0	0	526	307	
10	0	0	0	0	527	306	
11	0	0	0	0	526	307	
12	0	0	0	0	526	307	
13	0	0	0	0	525	307	
14	0	0	0	0	524	306	
15	0	0	0	0	524	307	
0	0	0	0	0	523	307	
1	0	0	0	0	522	307	
2	0	0	0	0	522	306	
3	0	0	0	0	520	307	
4	0	0	0	0	520	307	
5	0	0	0	0	519	307	
6	0	0	0	0	519	306	
7	0	0	0	0	519	307	
8	0	0	0	0	519	307	
9	0	0	0	0	519	306	
10	0	0	0	0	519	306	
11	0	0	0	0	519	307	
12	0	0	0	0	519	307	
13	0	0	0	0	519	307	
14	0	0	0	0	519	306	
15	0	0	0	0	517	307	
0	0	0	0	0	517	307	
1	0	0	0	0	517	307	
2	0	0	0	0	517	306	
3	0	0	0	0	518	307	
4	0	0	0	0	518	307	
5	0	0	0	0	518	306	
6	0	0	0	0	518	306	
7	0	0	0	0	518	307	
8	0	0	0	0	518	307	
9	0	0	0	0	519	306	
10	0	0	0	0	519	307	
11	0	0	0	0	520	307	
12	0	0	0	0	519	306	
13	0	0	0	0	519	306	
14	0	0	0	0	519	307	
15	0	0	0	0	519	307	
0	0	0	0	0	519	307	
1	0	0	0	0	518	306	
2	0	0	0	0	519	307	
3	0	0	0	0	519	307	
4	0	0	0	0	518	306	
5	0	0	0	0	517	307	
6	0	0	0	0	516	306	
7	0	0	0	0	516	307	
8	0	0	0	0	517	306	
9	0	0	0	0	519	306	
10	0	0	0	0	519	307	
11	0	0	0	0	519	307	
12	0	0	0	0	520	306	
13	0	0	0	0	520	306	
14	0	0	0	0	520	307	
15	0	0	0	0	521	307	
0	0	0	0	0	521	306	
1	0	0	0	0	520	307	
2	0	0	0	0	519	307	
3	0	0	0	0	519	307	
4	0	0	0	0	518	307	
5	0	0	0	0	517	307	
6	0	0	0	0	515	306	
7	0	0	0	0	515	306	
8	0	0	0	0	515	307	
9	0	0	0	0	515	306	
10	0	0	0	0	516	306	
11	0	0	0	0	517	307	
12	0	0	0	0	518	307	
13	0	0	0	0	518	306	
14	0	0	0	0	518	306	
15	0	0	0	0	518	307	
0	0	0	0	0	517	307	
1	0	0	0	0	517	307	
2	0	0	0	0	516	306	
3	0	0	0	0	516	307	
4	0	0	0	0	514	306	
5	0	0	0	0	514	306	
6	0	0	0	0	513	306	
7	0	0	0	0	512	306	
8	0	0	0	0	513	307	
9	0	0	0	0	513	306	
10	0	0	0	0	513	306	
11	0	0	0	0	513	306	
12	0	0	0	0	513	306	
13	0	0	0	0	514	307	
14	0	0	0	0	514	306	
15	0	0	0	0	515	307	
0	0	0	0	0	514	307	
1	0	0	0	0	513	306	
2	0	0	0	0	512	307	
3	0	0	0	0	512	307	
4	0	0	0	0	511	306	
5	0	0	0	0	510	306	
6	0	0	0	0	509	306	
7	0	0	0	0	509	306	
8	0	0	0	0	508	306	
9	0	0	0	0	508	306	
10	0	0	0	0	508	306	
11	0	0	0	0	509	306	
12	0	0	0	0	510	307	
13	0	0	0	0	510	306	
14	0	0	0	0	511	306	
15	0	0	0	0	510	306	
0	0	0	0	0	510	306	
1	0	0	0	0	510	306	
2	0	0	0	0	511	306	
3	0	0	0	0	511	306	
4	0	0	0	0	510	306	
5	0	0	0	0	510	307	
6	0	0	0	0	510	306	
7	0	0	0	0	509	306	
8	0	0	0	0	508	306	
9	0	0	0	0	508	306	
10	0	0	0	0	508	306	
11	0	0	0	0	508	306	
12	0	0	0	0	510	306	
13	0	0	0	0	511	306	
14	0	0	0	0	511	306	
15	0	0	0	0	512	306	
0	0	0	0	0	512	306	
1	0	0	0	0	512	306	
2	0	0	0	0	512	306	
3	0	0	0	0	512	306	
4	0	0	0	0	512	306	
5	0	0	0	0	511	306	
6	0	0	0	0	510	306	
7	0	0	0	0	510	306	
8	0	0	0	0	509	306	
9	0	0	0	0	508	306	
10	0	0	0	0	508	306	
11	0	0	0	0	507	306	
12	0	0	0	0	508	306	
13	0	0	0	0	508	306	
14	0	0	0	0	509	306	
15	0	0	0	0	509	306	
0	0	0	0	0	508	306	
1	0	0	0	0	508	306	
2	0	0	0	0	508	306	
3	0	0	0	0	508	306	
4	0	0	0	0	507	306	
5	0	0	0	0	507	306	
6	0	0	0	0	506	306	
7	0	0	0	0	505	306	
8	0	0	0	0	505	306	
9	0	0	0	0	505	306	
10	0	0	0	0	505	306	
11	0	0	0	0	506	306	
12	0	0	0	0	507	306	
13	0	0	0	0	508	306	
14	0	0	0	0	508	306	
15	0	0	0	0	510	306	
0	0	0	0	0	510	306	
1	0	0	0	0	510	306	
2	0	0	0	0	510	306	
3	0	0	0	0	511	306	
4	0	0	0	0	511	306	
5	0	0	0	0	510	306	
6	0	0	0	0	509	306	
7	0	0	0	0	508	306	
8	0	0	0	0	507	306	
9	0	0	0	0	507	306	
10	0	0	0	0	507	306	
11	0	0	0	0	507	306	
12	0	0	0	0	507	306	
13	0	0	0	0	507	306	
14	0	0	0	0	507	306	
15	0	0	0	0	507	306	
0	0	0	0	0	508	306	
1	0	0	0	0	508	306	
2	0	0	0	0	509	306	
3	0	0	0	0	510	306	
4	0	0	0	0	509	306	
5	0	0	0	0	508	306	
6	0	0	0	0	509	306	
7	0	0	0	0	508	306	
8	0	0	0	0	507	306	
9	0	0	0	0	505	306	
10	0	0	0	0	505	306	
11	0	0	0	0	504	306	
12	0	0	0	0	504	306	
13	0	0	0	0	504	306	
14	0	0	0	0	504	306	
15	0	0	0	0	505	306	
0	0	0	0	0	505	306	
1	0	0	0	0	506	306	
2	0	0	0	0	506	306	
3	0	0	0	0	506	306	
4	0	0	0	0	506	306	
5	0	0	0	0	505	306	
6	0	0	0	0	505	306	
7	0	0	0	0	504	306	
8	0	0	0	0	504	306	
9	0	0	0	0	504	306	
10	0	0	0	0	503	306	
11	0	0	0	0	502	306	
12	0	0	0	0	501	306	
13	0	0	0	0	501	306	
14	0	0	0	0	502	306	
15	0	0	0	0	503	306	
0	0	0	0	0	504	306	
1	0	0	0	0	504	306	
2	0	0	0	0	504	306	
3	0	0	0	0	505	306	
4	0	0	0	0	504	306	
5	0	0	0	0	503	306	
6	0	0	0	0	504	306	
7	0	0	0	0	504	306	
8	0	0	0	0	503	306	
9	0	0	0	0	503	306	
10	0	0	0	0	502	306	
11	0	0	0	0	501	306	
12	0	0	0	0	500	306	
13	0	0	0	0	500	306	
14	0	0	0	0	500	306	
15	0	0	0	0	501	306	
0	0	0	0	0	502	306	
1	0	0	0	0	504	306	
2	0	0	0	0	506	306	
3	0	0	0	0	506	306	
4	0	0	0	0	507	306	
5	0	0	0	0	506	306	
6	0	0	0	0	505	306	
7	0	0	0	0	505	306	
8	0	0	0	0	504	306	
9	0	0	0	0	505	306	
10	0	0	0	0	504	306	
11	0	0	0	0	504	306	
12	0	0	0	0	504	306	
13	0	0	0	0	504	306	
14	0	0	0	0	504	306	
15	0	0	0	0	504	306	
0	0	0	0	0	505	306	
1	0	0	0	0	505	306	
2	0	0	0	0	506	306	
3	0	0	0	0	508	306	
4	0	0	0	0	508	306	
5	0	0	0	0	509	306	
6	0	0	0	0	510	306	
7	0	0	0	0	510	306	
8	0	0	0	0	508	306	
9	0	0	0	0	508	306	
10	0	0	0	0	508	306	
11	0	0	0	0	507	306	
12	0	0	0	0	507	306	
13	0	0	0	0	506	306	
14	0	0	0	0	506	306	
15	0	0	0	0	505	306	
0	0	0	0	0	504	306	
1	0	0	0	0	504	306	
2	0	0	0	0	504	306	
3	0	0	0	0	505	306	
4	0	0	0	0	506	306	
5	0	0	0	0	506	306	
6	0	0	0	0	506	306	
7	0	0	0	0	507	306	
8	0	0	0	0	507	306	
9	0	0	0	0	507	306	
10	0	0	0	0	507	306	
11	0	0	0	0	507	306	
12	0	0	0	0	506	306	
13	0	0	0	0	505	306	
14	0	0	0	0	505	306	
15	0	0	0	0	505	306	
0	0	0	0	0	506	306	
1	0	0	0	0	507	305	
2	0	0	0	0	509	306	
3	0	0	0	0	510	306	
4	0	0	0	0	511	306	
5	0	0	0	0	512	305	
6	0	0	0	0	512	306	
7	0	0	0	0	513	306	
8	0	0	0	0	513	306	
9	0	0	0	0	514	306	
10	0	0	0	0	515	306	
11	0	0	0	0	515	306	
12	0	0	0	0	514	306	
13	0	0	0	0	514	306	
14	0	0	0	0	513	306	
15	0	0	0	0	513	306	
0	0	0	0	0	513	306	
1	0	0	0	0	513	305	
2	0	0	0	0	513	306	
3	0	0	0	0	514	306	
4	0	0	0	0	515	306	
5	0	0	0	0	516	305	
6	0	0	0	0	516	306	
7	0	0	0	0	517	306	
8	0	0	0	0	516	305	
9	0	0	0	0	516	306	
10	0	0	0	0	515	306	
11	0	0	0	0	514	306	
12	0	0	0	0	514	305	
13	0	0	0	0	513	306	
14	0	0	0	0	513	306	
15	0	0	0	0	512	305	
0	0	0	0	0	512	306	
1	0	0	0	0	512	306	
2	0	0	0	0	512	305	
3	0	0	0	0	511	305	
4	0	0	0	0	512	306	
5	0	0	0	0	512	306	
6	0	0	0	0	512	305	
7	0	0	0	0	513	306	
8	0	0	0	0	514	306	
9	0	0	0	0	513	306	
10	0	0	0	0	513	305	
11	0	0	0	0	513	306	
12	0	0	0	0	513	306	
13	0	0	0	0	513	305	
14	0	0	0	0	512	306	
15	0	0	0	0	511	306	
0	0	0	0	0	510	305	
1	0	0	0	0	509	305	
2	0	0	0	0	508	305	
3	0	0	0	0	507	305	
4	0	0	0	0	508	305	
5	0	0	0	0	508	305	
6	0	0	0	0	508	305	
7	0	0	0	0	508	306	
8	0	0	0	0	508	306	
9	0	0	0	0	510	305	
10	0	0	0	0	511	305	
11	0	0	0	0	511	306	
12	0	0	0	0	510	305	
13	0	0	0	0	509	306	
14	0	0	0	0	508	306	
15	0	0	0	0	508	305	
0	0	0	0	0	508	305	
1	0	0	0	0	507	306	
2	0	0	0	0	507	305	
3	0	0	0	0	507	305	
4	0	0	0	0	508	305	
5	0	0	0	0	508	306	
6	0	0	0	0	509	305	
7	0	0	0	0	510	305	
8	0	0	0	0	511	305	
9	0	0	0	0	512	305	
10	0	0	0	0	512	305	
11	0	0	0	0	511	305	
12	0	0	0	0	511	305	
13	0	0	0	0	510	305	
14	0	0	0	0	509	306	
15	0	0	0	0	509	305	
0	0	0	0	0	508	305	
1	0	0	0	0	508	306	
2	0	0	0	0	508	305	
3	0	0	0	0	509	305	
4	0	0	0	0	509	305	
5	0	0	0	0	509	305	
6	0	0	0	0	509	306	
7	0	0	0	0	509	305	
8	0	0	0	0	509	305	
9	0	0	0	0	510	305	
10	0	0	0	0	509	305	
11	0	0	0	0	509	306	
12	0	0	0	0	508	305	
13	0	0	0	0	508	305	
14	0	0	0	0	507	306	
15	0	0	0	0	507	305	
0	0	0	0	0	507	305	
1	0	0	0	0	506	305	
2	0	0	0	0	507	305	
3	0	0	0	0	507	306	
4	0	0	0	0	507	305	
5	0	0	0	0	507	305	
6	0	0	0	0	508	305	
7	0	0	0	0	509	305	
8	0	0	0	0	510	305	
9	0	0	0	0	510	305	
10	0	0	0	0	510	305	
11	0	0	0	0	510	305	
12	0	0	0	0	509	305	
13	0	0	0	0	508	305	
14	0	0	0	0	508	305	
15	0	0	0	0	507	306	
0	0	0	0	0	506	305	
1	0	0	0	0	505	305	
2	0	0	0	0	504	305	
3	0	0	0	0	503	305	
4	0	0	0	0	502	305	
5	0	0	0	0	502	305	
6	0	0	0	0	501	305	
7	0	0	0	0	502	305	
8	0	0	0	0	503	305	
9	0	0	0	0	504	305	
10	0	0	0	0	504	305	
11	0	0	0	0	505	305	
12	0	0	0	0	505	305	
13	0	0	0	0	505	305	
14	0	0	0	0	505	305	
15	0	0	0	0	505	305	
0	0	0	0	0	506	305	
1	0	0	0	0	506	305	
2	0	0	0	0	505	305	
3	0	0	0	0	505	305	
4	0	0	0	0	504	305	
5	0	0	0	0	504	305	
6	0	0	0	0	503	305	
7	0	0	0	0	504	305	
8	0	0	0	0	504	305	
9	0	0	0	0	504	305	
10	0	0	0	0	503	305	
11	0	0	0	0	502	305	
12	0	0	0	0	501	305	
13	0	0	0	0	499	305	
14	0	0	0	0	497	305	
15	0	0	0	0	497	305	
0	0	0	0	0	496	305	
1	0	0	0	0	494	305	
2	0	0	0	0	494	305	
3	0	0	0	0	492	305	
4	0	0	0	0	492	305	
5	0	0	0	0	491	305	
6	0	0	0	0	491	305	
7	0	0	0	0	492	305	
8	0	0	0	0	492	305	
9	0	0	0	0	494	305	
10	0	0	0	0	495	305	
11	0	0	0	0	496	305	
12	0	0	0	0	497	305	
13	0	0	0	0	497	305	
14	0	0	0	0	497	305	
15	0	0	0	0	497	305	
0	0	0	0	0	497	305	
1	0	0	0	0	498	305	
2	0	0	0	0	498	305	
3	0	0	0	0	497	305	
4	0	0	0	0	497	305	
5	0	0	0	0	497	305	
6	0	0	0	0	498	305	
7	0	0	0	0	499	305	
8	0	0	0	0	500	305	
9	0	0	0	0	500	305	
10	0	0	0	0	500	305	
11	0	0	0	0	501	305	
12	0	0	0	0	502	305	
13	0	0	0	0	502	305	
14	0	0	0	0	503	305	
15	0	0	0	0	503	305	
0	0	0	0	0	503	305	
1	0	0	0	0	503	305	
2	0	0	0	0	503	305	
3	0	0	0	0	504	305	
4	0	0	0	0	504	305	
5	0	0	0	0	504	305	
6	0	0	0	0	504	305	
7	0	0	0	0	505	305	
8	0	0	0	0	506	305	
9	0	0	0	0	507	305	
10	0	0	0	0	509	305	
11	0	0	0	0	510	305	
12	0	0	0	0	512	305	
13	0	0	0	0	513	305	
14	0	0	0	0	514	305	
15	0	0	0	0	515	305	
0	0	0	0	0	515	305	
1	0	0	0	0	515	305	
2	0	0	0	0	515	305	
3	0	0	0	0	515	305	
4	0	0	0	0	516	305	
5	0	0	0	0	516	305	
6	0	0	0	0	516	305	
7	0	0	0	0	517	305	
8	0	0	0	0	517	305	
9	0	0	0	0	516	305	
10	0	0	0	0	517	305	
11	0	0	0	0	517	305	
12	0	0	0	0	518	305	
13	0	0	0	0	518	305	
14	0	0	0	0	518	305	
15	0	0	0	0	518	305	
0	0	0	0	0	517	305	
1	0	0	0	0	517	305	
2	0	0	0	0	516	305	
3	0	0	0	0	515	305	
4	0	0	0	0	515	305	
5	0	0	0	0	515	305	
6	0	0	0	0	514	305	
7	0	0	0	0	513	305	
8	0	0	0	0	513	305	
9	0	0	0	0	513	305	
10	0	0	0	0	513	305	
11	0	0	0	0	513	305	
12	0	0	0	0	513	305	
13	0	0	0	0	514	305	
14	0	0	0	0	514	305	
15	0	0	0	0	514	305	
0	0	0	0	0	513	305	
1	0	0	0	0	513	305	
2	0	0	0	0	513	305	
3	0	0	0	0	513	305	
4	0	0	0	0	513	305	
5	0	0	0	0	512	305	
6	0	0	0	0	512	305	
7	0	0	0	0	513	305	
8	0	0	0	0	513	305	
9	0	0	0	0	512	305	
10	0	0	0	0	512	305	
11	0	0	0	0	513	305	
12	0	0	0	0	514	305	
13	0	0	0	0	515	305	
14	0	0	0	0	516	305	
15	0	0	0	0	516	305	
0	0	0	0	0	517	305	
1	0	0	0	0	517	305	
2	0	0	0	0	517	305	
3	0	0	0	0	516	305	
4	0	0	0	0	516	305	
5	0	0	0	0	515	305	
6	0	0	0	0	515	305	
7	0	0	0	0	514	305	
8	0	0	0	0	513	305	
9	0	0	0	0	513	305	
10	0	0	0	0	513	305	
11	0	0	0	0	515	305	
12	0	0	0	0	516	305	
13	0	0	0	0	516	305	
14	0	0	0	0	517	305	
15	0	0	0	0	518	305	
0	0	0	0	0	518	305	
1	0	0	0	0	517	305	
2	0	0	0	0	516	305	
3	0	0	0	0	515	305	
4	0	0	0	0	515	305	
5	0	0	0	0	514	305	
6	0	0	0	0	514	305	
7	0	0	0	0	513	305	
8	0	0	0	0	512	305	
9	0	0	0	0	511	305	
10	0	0	0	0	511	305	
11	0	0	0	0	511	305	
12	0	0	0	0	511	305	
13	0	0	0	0	511	305	
14	0	0	0	0	512	305	
15	0	0	0	0	513	305	
0	0	0	0	0	512	305	
1	0	0	0	0	512	305	
2	0	0	0	0	513	305	
3	0	0	0	0	513	305	
4	0	0	0	0	512	305	
5	0	0	0	0	512	305	
6	0	0	0	0	512	305	
7	0	0	0	0	513	305	
8	0	0	0	0	513	305	
9	0	0	0	0	513	305	
10	0	0	0	0	512	305	
11	0	0	0	0	514	305	
12	0	0	0	0	515	305	
13	0	0	0	0	516	305	
14	0	0	0	0	518	305	
15	0	0	0	0	519	305	
0	0	0	0	0	519	305	
1	0	0	0	0	520	305	
2	0	0	0	0	519	305	
3	0	0	0	0	519	305	
4	0	0	0	0	517	305	
5	0	0	0	0	515	305	
6	0	0	0	0	513	305	
7	0	0	0	0	510	305	
8	0	0	0	0	507	305	
9	0	0	0	0	504	305	
10	0	0	0	0	500	305	
11	0	0	0	0	498	305	
12	0	0	0	0	495	305	
13	0	0	0	0	494	305	
14	0	0	0	0	493	305	
15	0	0	0	0	492	305	
0	0	0	0	0	490	305	
1	0	0	0	0	488	305	
2	0	0	0	0	487	305	
3	0	0	0	0	486	305	
4	0	0	0	0	486	305	
5	0	0	0	0	487	305	
6	0	0	0	0	488	305	
7	0	0	0	0	491	305	
8	0	0	0	0	492	305	
9	0	0	0	0	493	305	
10	0	0	0	0	494	305	
11	0	0	0	0	494	305	
12	0	0	0	0	495	305	
13	0	0	0	0	496	305	
14	0	0	0	0	497	305	
15	0	0	0	0	497	305	
0	0	0	0	0	496	305	
1	0	0	0	0	496	305	
2	0	0	0	0	496	305	
3	0	0	0	0	496	305	
4	0	0	0	0	496	305	
5	0	0	0	0	497	305	
6	0	0	0	0	499	305	
7	0	0	0	0	500	305	
8	0	0	0	0	501	305	
9	0	0	0	0	502	305	
10	0	0	0	0	503	305	
11	0	0	0	0	505	305	
12	0	0	0	0	507	304	
13	0	0	0	0	508	305	
14	0	0	0	0	509	305	
15	0	0	0	0	510	305	
0	0	0	0	0	511	304	
1	0	0	0	0	513	305	
2	0	0	0	0	515	305	
3	0	0	0	0	515	305	
4	0	0	0	0	517	305	
5	0	0	0	0	518	304	
6	0	0	0	0	518	305	
7	0	0	0	0	519	305	
8	0	0	0	0	518	304	
9	0	0	0	0	517	305	
10	0	0	0	0	516	305	
11	0	0	0	0	515	305	
12	0	0	0	0	515	305	
13	0	0	0	0	514	305	
14	0	0	0	0	513	305	
15	0	0	0	0	513	305	
0	0	0	0	0	513	304	
1	0	0	0	0	513	304	
2	0	0	0	0	513	305	
3	0	0	0	0	513	305	
4	0	0	0	0	513	305	
5	0	0	0	0	512	304	
6	0	0	0	0	511	305	
7	0	0	0	0	510	305	
8	0	0	0	0	508	304	
9	0	0	0	0	505	305	
10	0	0	0	0	504	305	
11	0	0	0	0	503	305	
12	0	0	0	0	502	304	
13	0	0	0	0	502	305	
14	0	0	0	0	502	305	
15	0	0	0	0	501	304	
0	0	0	0	0	501	304	
1	0	0	0	0	500	304	
2	0	0	0	0	500	304	
3	0	0	0	0	500	304	
4	0	0	0	0	500	305	
5	0	0	0	0	501	305	
6	0	0	0	0	500	304	
7	0	0	0	0	500	304	
8	0	0	0	0	499	305	
9	0	0	0	0	499	305	
10	0	0	0	0	499	305	
11	0	0	0	0	497	305	
12	0	0	0	0	497	305	
13	0	0	0	0	497	305	
14	0	0	0	0	496	304	
15	0	0	0	0	497	304	
0	0	0	0	0	496	305	
1	0	0	0	0	497	305	
2	0	0	0	0	497	304	
3	0	0	0	0	498	304	
4	0	0	0	0	499	305	
5	0	0	0	0	500	304	
6	0	0	0	0	500	304	
7	0	0	0	0	502	304	
8	0	0	0	0	501	304	
9	0	0	0	0	502	305	
10	0	0	0	0	502	304	
11	0	0	0	0	502	304	
12	0	0	0	0	501	305	
13	0	0	0	0	500	305	
14	0	0	0	0	499	304	
15	0	0	0	0	499	305	
0	0	0	0	0	499	305	
1	0	0	0	0	499	304	
2	0	0	0	0	498	304	
3	0	0	0	0	498	304	
4	0	0	0	0	499	304	
5	0	0	0	0	499	305	
6	0	0	0	0	499	304	
7	0	0	0	0	499	305	
8	0	0	0	0	499	304	
9	0	0	0	0	499	304	
10	0	0	0	0	498	305	
11	0	0	0	0	497	305	
12	0	0	0	0	497	304	
13	0	0	0	0	496	304	
14	0	0	0	0	495	305	
15	0	0	0	0	495	305	
0	0	0	0	0	494	304	
1	0	0	0	0	494	304	
2	0	0	0	0	494	305	
3	0	0	0	0	495	304	
4	0	0	0	0	495	304	
5	0	0	0	0	496	305	
6	0	0	0	0	496	304	
7	0	0	0	0	496	304	
8	0	0	0	0	495	304	
9	0	0	0	0	495	305	
10	0	0	0	0	495	304	
11	0	0	0	0	493	305	
12	0	0	0	0	493	305	
13	0	0	0	0	492	305	
14	0	0	0	0	493	304	
15	0	0	0	0	492	304	
0	0	0	0	0	492	304	
1	0	0	0	0	492	304	
2	0	0	0	0	492	304	
3	0	0	0	0	492	304	
4	0	0	0	0	492	304	
5	0	0	0	0	493	304	
6	0	0	0	0	493	304	
7	0	0	0	0	494	304	
8	0	0	0	0	494	304	
9	0	0	0	0	494	304	
10	0	0	0	0	493	304	
11	0	0	0	0	492	304	
12	0	0	0	0	492	305	
13	0	0	0	0	491	304	
14	0	0	0	0	491	305	
15	0	0	0	0	491	304	
0	0	0	0	0	490	304	
1	0	0	0	0	491	304	
2	0	0	0	0	491	304	
3	0	0	0	0	491	304	
4	0	0	0	0	492	304	
5	0	0	0	0	493	304	
6	0	0	0	0	493	304	
7	0	0	0	0	493	304	
8	0	0	0	0	493	304	
9	0	0	0	0	493	304	
10	0	0	0	0	493	304	
11	0	0	0	0	492	304	
12	0	0	0	0	491	304	
13	0	0	0	0	491	305	
14	0	0	0	0	489	304	
15	0	0	0	0	488	304	
0	0	0	0	0	487	304	
1	0	0	0	0	487	304	
2	0	0	0	0	487	304	
3	0	0	0	0	486	304	
4	0	0	0	0	485	304	
5	0	0	0	0	486	304	
6	0	0	0	0	486	304	
7	0	0	0	0	486	304	
8	0	0	0	0	486	304	
9	0	0	0	0	486	304	
10	0	0	0	0	486	304	
11	0	0	0	0	487	304	
12	0	0	0	0	486	304	
13	0	0	0	0	486	304	
14	0	0	0	0	486	304	
15	0	0	0	0	486	304	
0	0	0	0	0	485	304	
1	0	0	0	0	485	304	
2	0	0	0	0	484	304	
3	0	0	0	0	484	304	
4	0	0	0	0	484	304	
5	0	0	0	0	484	304	
6	0	0	0	0	485	304	
7	0	0	0	0	486	304	
8	0	0	0	0	487	304	
9	0	0	0	0	487	304	
10	0	0	0	0	487	304	
11	0	0	0	0	487	304	
12	0	0	0	0	486	304	
13	0	0	0	0	486	304	
14	0	0	0	0	485	304	
15	0	0	0	0	484	304	
0	0	0	0	0	484	305	
1	0	0	0	0	483	304	
2	0	0	0	0	483	304	
3	0	0	0	0	483	304	
4	0	0	0	0	483	304	
5	0	0	0	0	484	304	
6	0	0	0	0	485	304	
7	0	0	0	0	486	304	
8	0	0	0	0	487	304	
9	0	0	0	0	487	304	
10	0	0	0	0	487	304	
11	0	0	0	0	487	304	
12	0	0	0	0	488	304	
13	0	0	0	0	488	304	
14	0	0	0	0	488	304	
15	0	0	0	0	488	304	
0	0	0	0	0	487	304	
1	0	0	0	0	487	304	
2	0	0	0	0	487	304	
3	0	0	0	0	487	304	
4	0	0	0	0	487	304	
5	0	0	0	0	487	304	
6	0	0	0	0	487	304	
7	0	0	0	0	488	304	
8	0	0	0	0	489	304	
9	0	0	0	0	490	304	
10	0	0	0	0	491	304	
11	0	0	0	0	491	304	
12	0	0	0	0	491	304	
13	0	0	0	0	492	304	
14	0	0	0	0	492	304	
15	0	0	0	0	491	304	
0	0	0	0	0	490	304	
1	0	0	0	0	489	304	
2	0	0	0	0	488	304	
3	0	0	0	0	488	304	
4	0	0	0	0	487	304	
5	0	0	0	0	487	304	
6	0	0	0	0	488	304	
7	0	0	0	0	489	304	
8	0	0	0	0	491	304	
9	0	0	0	0	491	304	
10	0	0	0	0	492	304	
11	0	0	0	0	492	304	
12	0	0	0	0	492	304	
13	0	0	0	0	493	304	
14	0	0	0	0	493	304	
15	0	0	0	0	493	304	
0	0	0	0	0	492	304	
1	0	0	0	0	491	304	
2	0	0	0	0	491	304	
3	0	0	0	0	491	304	
4	0	0	0	0	491	304	
5	0	0	0	0	491	304	
6	0	0	0	0	491	304	
7	0	0	0	0	492	304	
8	0	0	0	0	493	304	
9	0	0	0	0	494	304	
10	0	0	0	0	495	304	
11	0	0	0	0	495	304	
12	0	0	0	0	496	304	
13	0	0	0	0	497	304	
14	0	0	0	0	497	304	
15	0	0	0	0	498	304	
0	0	0	0	0	499	304	
1	0	0	0	0	500	304	
2	0	0	0	0	501	304	
3	0	0	0	0	502	304	
4	0	0	0	0	503	304	
5	0	0	0	0	504	304	
6	0	0	0	0	505	304	
7	0	0	0	0	506	304	
8	0	0	0	0	507	304	
9	0	0	0	0	507	304	
10	0	0	0	0	509	304	
11	0	0	0	0	511	304	
12	0	0	0	0	512	304	
13	0	0	0	0	513	304	
14	0	0	0	0	513	304	
15	0	0	0	0	514	304	
0	0	0	0	0	515	304	
1	0	0	0	0	515	304	
2	0	0	0	0	515	304	
3	0	0	0	0	516	304	
4	0	0	0	0	515	304	
5	0	0	0	0	516	304	
6	0	0	0	0	516	304	
7	0	0	0	0	518	304	
8	0	0	0	0	519	304	
9	0	0	0	0	520	304	
10	0	0	0	0	522	304	
11	0	0	0	0	523	304	
12	0	0	0	0	524	304	
13	0	0	0	0	525	304	
14	0	0	0	0	526	304	
15	0	0	0	0	527	304	
0	0	0	0	0	527	304	
1	0	0	0	0	527	304	
2	0	0	0	0	527	304	
3	0	0	0	0	526	304	
4	0	0	0	0	526	304	
5	0	0	0	0	526	304	
6	0	0	0	0	525	304	
7	0	0	0	0	525	304	
8	0	0	0	0	525	304	
9	0	0	0	0	526	304	
10	0	0	0	0	526	304	
11	0	0	0	0	526	304	
12	0	0	0	0	527	304	
13	0	0	0	0	527	304	
14	0	0	0	0	529	304	
15	0	0	0	0	529	304	
0	0	0	0	0	530	304	
1	0	0	0	0	530	304	
2	0	0	0	0	529	304	
3	0	0	0	0	529	304	
4	0	0	0	0	529	304	
5	0	0	0	0	529	304	
6	0	0	0	0	529	304	
7	0	0	0	0	528	304	
8	0	0	0	0	528	304	
9	0	0	0	0	529	304	
10	0	0	0	0	529	304	
11	0	0	0	0	530	304	
12	0	0	0	0	531	304	
13	0	0	0	0	532	304	
14	0	0	0	0	532	304	
15	0	0	0	0	532	304	
0	0	0	0	0	533	304	
1	0	0	0	0	534	304	
2	0	0	0	0	533	304	
3	0	0	0	0	532	304	
4	0	0	0	0	532	304	
5	0	0	0	0	532	304	
6	0	0	0	0	531	304	
7	0	0	0	0	531	304	
8	0	0	0	0	531	304	
9	0	0	0	0	530	304	
10	0	0	0	0	530	304	
11	0	0	0	0	530	304	
12	0	0	0	0	531	304	
13	0	0	0	0	531	304	
14	0	0	0	0	530	304	
15	0	0	0	0	530	304	
0	0	0	0	0	530	304	
1	0	0	0	0	530	304	
2	0	0	0	0	530	304	
3	0	0	0	0	529	304	
4	0	0	0	0	528	304	
5	0	0	0	0	528	304	
6	0	0	0	0	527	304	
7	0	0	0	0	526	304	
8	0	0	0	0	526	304	
9	0	0	0	0	525	304	
10	0	0	0	0	525	304	
11	0	0	0	0	523	304	
12	0	0	0	0	524	304	
13	0	0	0	0	524	304	
14	0	0	0	0	525	304	
15	0	0	0	0	525	304	
0	0	0	0	0	526	304	
1	0	0	0	0	526	304	
2	0	0	0	0	526	304	
3	0	0	0	0	525	304	
4	0	0	0	0	524	304	
5	0	0	0	0	523	304	
6	0	0	0	0	522	304	
7	0	0	0	0	521	304	
8	0	0	0	0	520	304	
9	0	0	0	0	519	304	
10	0	0	0	0	519	304	
11	0	0	0	0	519	304	
12	0	0	0	0	518	304	
13	0	0	0	0	517	304	
14	0	0	0	0	517	304	
15	0	0	0	0	517	304	
0	0	0	0	0	516	304	
1	0	0	0	0	516	304	
2	0	0	0	0	516	304	
3	0	0	0	0	515	304	
4	0	0	0	0	514	304	
5	0	0	0	0	513	304	
6	0	0	0	0	512	304	
7	0	0	0	0	511	304	
8	0	0	0	0	511	304	
9	0	0	0	0	510	304	
10	0	0	0	0	509	304	
11	0	0	0	0	509	304	
12	0	0	0	0	508	304	
13	0	0	0	0	508	304	
14	0	0	0	0	508	304	
15	0	0	0	0	509	304	
0	0	0	0	0	509	304	
1	0	0	0	0	509	304	
2	0	0	0	0	509	304	
3	0	0	0	0	508	304	
4	0	0	0	0	507	304	
5	0	0	0	0	506	304	
6	0	0	0	0	505	304	
7	0	0	0	0	505	304	
8	0	0	0	0	504	304	
9	0	0	0	0	504	304	
10	0	0	0	0	504	304	
11	0	0	0	0	503	304	
12	0	0	0	0	503	304	
13	0	0	0	0	503	304	
14	0	0	0	0	504	304	
15	0	0	0	0	504	304	
0	0	0	0	0	505	304	
1	0	0	0	0	506	304	
2	0	0	0	0	506	304	
3	0	0	0	0	506	304	
4	0	0	0	0	506	304	
5	0	0	0	0	505	304	
6	0	0	0	0	505	304	
7	0	0	0	0	505	304	
8	0	0	0	0	504	304	
9	0	0	0	0	504	304	
10	0	0	0	0	503	304	
11	0	0	0	0	502	304	
12	0	0	0	0	502	304	
13	0	0	0	0	501	304	
14	0	0	0	0	502	304	
15	0	0	0	0	502	304	
0	0	0	0	0	503	304	
1	0	0	0	0	503	304	
2	0	0	0	0	503	304	
3	0	0	0	0	503	304	
4	0	0	0	0	503	304	
5	0	0	0	0	503	304	
6	0	0	0	0	502	304	
7	0	0	0	0	502	304	
8	0	0	0	0	501	304	
9	0	0	0	0	500	304	
10	0	0	0	0	500	304	
11	0	0	0	0	499	304	
12	0	0	0	0	498	304	
13	0	0	0	0	498	304	
14	0	0	0	0	499	304	
15	0	0	0	0	499	304	
0	0	0	0	0	500	304	
1	0	0	0	0	501	304	
2	0	0	0	0	503	304	
3	0	0	0	0	504	304	
4	0	0	0	0	504	304	
5	0	0	0	0	504	304	
6	0	0	0	0	504	304	
7	0	0	0	0	504	304	
8	0	0	0	0	504	304	
9	0	0	0	0	504	304	
10	0	0	0	0	504	304	
11	0	0	0	0	504	304	
12	0	0	0	0	504	304	
13	0	0	0	0	503	304	
14	0	0	0	0	504	304	
15	0	0	0	0	504	304	
0	0	0	0	0	505	304	
1	0	0	0	0	506	304	
2	0	0	0	0	507	304	
3	0	0	0	0	508	304	
4	0	0	0	0	509	304	
5	0	0	0	0	510	304	
6	0	0	0	0	511	304	
7	0	0	0	0	510	304	
8	0	0	0	0	509	304	
9	0	0	0	0	509	304	
10	0	0	0	0	508	304	
11	0	0	0	0	507	304	
12	0	0	0	0	506	304	
13	0	0	0	0	506	304	
14	0	0	0	0	506	304	
15	0	0	0	0	506	304	
0	0	0	0	0	506	304	
1	0	0	0	0	507	304	
2	0	0	0	0	507	304	
3	0	0	0	0	508	304	
4	0	0	0	0	508	304	
5	0	0	0	0	509	304	
6	0	0	0	0	508	304	
7	0	0	0	0	509	304	
8	0	0	0	0	509	304	
9	0	0	0	0	510	304	
10	0	0	0	0	510	304	
11	0	0	0	0	509	304	
12	0	0	0	0	509	304	
13	0	0	0	0	509	304	
14	0	0	0	0	509	304	
15	0	0	0	0	509	304	
0	0	0	0	0	509	304	
1	0	0	0	0	510	304	
2	0	0	0	0	510	304	
3	0	0	0	0	511	304	
4	0	0	0	0	512	304	
5	0	0	0	0	512	304	
6	0	0	0	0	512	304	
7	0	0	0	0	513	304	
8	0	0	0	0	513	304	
9	0	0	0	0	512	304	
10	0	0	0	0	512	304	
11	0	0	0	0	511	304	
12	0	0	0	0	512	304	
13	0	0	0	0	511	304	
14	0	0	0	0	511	304	
15	0	0	0	0	511	304	
0	0	0	0	0	512	304	
1	0	0	0	0	512	304	
2	0	0	0	0	512	303	
3	0	0	0	0	514	304	
4	0	0	0	0	515	304	
5	0	0	0	0	515	304	
6	0	0	0	0	515	304	
7	0	0	0	0	516	304	
8	0	0	0	0	516	304	
9	0	0	0	0	516	304	
10	0	0	0	0	516	304	
11	0	0	0	0	515	304	
12	0	0	0	0	514	303	
13	0	0	0	0	513	304	
14	0	0	0	0	513	304	
15	0	0	0	0	513	304	
0	0	0	0	0	513	304	
1	0	0	0	0	513	304	
2	0	0	0	0	513	304	
3	0	0	0	0	515	304	
4	0	0	0	0	516	304	
5	0	0	0	0	517	304	
6	0	0	0	0	518	303	
7	0	0	0	0	519	304	
8	0	0	0	0	519	304	
9	0	0	0	0	519	304	
10	0	0	0	0	519	304	
11	0	0	0	0	518	304	
12	0	0	0	0	517	304	
13	0	0	0	0	516	304	
14	0	0	0	0	514	304	
15	0	0	0	0	514	304	
0	0	0	0	0	514	303	
1	0	0	0	0	515	304	
2	0	0	0	0	516	304	
3	0	0	0	0	517	304	
4	0	0	0	0	518	303	
5	0	0	0	0	519	304	
6	0	0	0	0	520	304	
7	0	0	0	0	520	304	
8	0	0	0	0	521	303	
9	0	0	0	0	521	304	
10	0	0	0	0	521	304	
11	0	0	0	0	520	304	
12	0	0	0	0	520	304	
13	0	0	0	0	519	304	
14	0	0	0	0	519	304	
15	0	0	0	0	519	303	
0	0	0	0	0	519	304	
1	0	0	0	0	518	304	
2	0	0	0	0	518	303	
3	0	0	0	0	518	304	
4	0	0	0	0	517	304	
5	0	0	0	0	518	304	
6	0	0	0	0	518	303	
7	0	0	0	0	519	304	
8	0	0	0	0	519	304	
9	0	0	0	0	520	304	
10	0	0	0	0	520	303	
11	0	0	0	0	519	304	
12	0	0	0	0	519	304	
13	0	0	0	0	519	303	
14	0	0	0	0	518	304	
15	0	0	0	0	518	304	
0	0	0	0	0	518	304	
1	0	0	0	0	517	304	
2	0	0	0	0	517	304	
3	0	0	0	0	517	303	
4	0	0	0	0	518	303	
5	0	0	0	0	518	304	
6	0	0	0	0	518	304	
7	0	0	0	0	519	303	
8	0	0	0	0	518	303	
9	0	0	0	0	518	304	
10	0	0	0	0	518	304	
11	0	0	0	0	518	304	
12	0	0	0	0	517	303	
13	0	0	0	0	516	304	
14	0	0	0	0	516	304	
15	0	0	0	0	516	304	
0	0	0	0	0	516	304	
1	0	0	0	0	515	304	
2	0	0	0	0	514	303	
3	0	0	0	0	514	304	
4	0	0	0	0	514	303	
5	0	0	0	0	515	303	
6	0	0	0	0	515	304	
7	0	0	0	0	517	304	
8	0	0	0	0	518	303	
9	0	0	0	0	519	303	
10	0	0	0	0	519	304	
11	0	0	0	0	518	304	
12	0	0	0	0	517	304	
13	0	0	0	0	517	303	
14	0	0	0	0	516	304	
15	0	0	0	0	514	304	
0	0	0	0	0	514	304	
1	0	0	0	0	514	303	
2	0	0	0	0	513	303	
3	0	0	0	0	512	304	
4	0	0	0	0	513	304	
5	0	0	0	0	513	303	
6	0	0	0	0	513	303	
7	0	0	0	0	515	304	
8	0	0	0	0	515	303	
9	0	0	0	0	516	303	
10	0	0	0	0	517	303	
11	0	0	0	0	518	304	
12	0	0	0	0	517	304	
13	0	0	0	0	517	303	
14	0	0	0	0	516	303	
15	0	0	0	0	517	304	
0	0	0	0	0	515	304	
1	0	0	0	0	515	304	
2	0	0	0	0	515	303	
3	0	0	0	0	515	303	
4	0	0	0	0	514	304	
5	0	0	0	0	514	304	
6	0	0	0	0	514	303	
7	0	0	0	0	515	303	
8	0	0	0	0	517	303	
9	0	0	0	0	518	303	
10	0	0	0	0	519	303	
11	0	0	0	0	519	304	
12	0	0	0	0	519	304	
13	0	0	0	0	519	303	
14	0	0	0	0	519	303	
15	0	0	0	0	518	304	
0	0	0	0	0	517	304	
1	0	0	0	0	517	304	
2	0	0	0	0	515	303	
3	0	0	0	0	515	303	
4	0	0	0	0	514	303	
5	0	0	0	0	515	304	
6	0	0	0	0	515	303	
7	0	0	0	0	515	303	
8	0	0	0	0	516	303	
9	0	0	0	0	516	303	
10	0	0	0	0	517	303	
11	0	0	0	0	518	303	
12	0	0	0	0	519	304	
13	0	0	0	0	519	303	
14	0	0	0	0	519	303	
15	0	0	0	0	519	303	
0	0	0	0	0	518	303	
1	0	0	0	0	518	303	
2	0	0	0	0	517	303	
3	0	0	0	0	516	303	
4	0	0	0	0	516	303	
5	0	0	0	0	515	303	
6	0	0	0	0	515	303	
7	0	0	0	0	515	303	
8	0	0	0	0	515	303	
9	0	0	0	0	517	303	
10	0	0	0	0	518	303	
11	0	0	0	0	519	303	
12	0	0	0	0	519	303	
13	0	0	0	0	519	303	
14	0	0	0	0	518	303	
15	0	0	0	0	518	303	
0	0	0	0	0	518	304	
1	0	0	0	0	517	303	
2	0	0	0	0	516	303	
3	0	0	0	0	515	303	
4	0	0	0	0	513	303	
5	0	0	0	0	512	303	
6	0	0	0	0	512	303	
7	0	0	0	0	513	303	
8	0	0	0	0	513	303	
9	0	0	0	0	514	303	
10	0	0	0	0	515	303	
11	0	0	0	0	516	303	
12	0	0	0	0	518	303	
13	0	0	0	0	519	303	
14	0	0	0	0	519	303	
15	0	0	0	0	519	303	
0	0	0	0	0	519	303	
1	0	0	0	0	519	303	
2	0	0	0	0	519	303	
3	0	0	0	0	519	303	
4	0	0	0	0	519	303	
5	0	0	0	0	518	303	
6	0	0	0	0	516	303	
7	0	0	0	0	516	303	
8	0	0	0	0	516	303	
9	0	0	0	0	516	303	
10	0	0	0	0	516	303	
11	0	0	0	0	516	303	
12	0	0	0	0	516	303	
13	0	0	0	0	517	303	
14	0	0	0	0	517	304	
15	0	0	0	0	516	303	
0	0	0	0	0	516	303	
1	0	0	0	0	516	303	
2	0	0	0	0	515	303	
3	0	0	0	0	514	303	
4	0	0	0	0	514	304	
5	0	0	0	0	514	303	
6	0	0	0	0	513	303	
7	0	0	0	0	513	303	
8	0	0	0	0	513	303	
9	0	0	0	0	513	303	
10	0	0	0	0	515	303	
11	0	0	0	0	516	303	
12	0	0	0	0	516	303	
13	0	0	0	0	517	303	
14	0	0	0	0	517	303	
15	0	0	0	0	517	303	
0	0	0	0	0	516	303	
1	0	0	0	0	516	303	
2	0	0	0	0	515	303	
3	0	0	0	0	514	303	
4	0	0	0	0	515	303	
5	0	0	0	0	514	303	
6	0	0	0	0	513	303	
7	0	0	0	0	513	303	
8	0	0	0	0	513	303	
9	0	0	0	0	513	303	
10	0	0	0	0	512	303	
11	0	0	0	0	512	303	
12	0	0	0	0	513	303	
13	0	0	0	0	513	303	
14	0	0	0	0	514	303	
15	0	0	0	0	513	303	
0	0	0	0	0	513	303	
1	0	0	0	0	512	303	
2	0	0	0	0	512	303	
3	0	0	0	0	511	303	
4	0	0	0	0	511	303	
5	0	0	0	0	510	303	
6	0	0	0	0	509	303	
7	0	0	0	0	508	303	
8	0	0	0	0	507	303	
9	0	0	0	0	507	303	
10	0	0	0	0	508	303	
11	0	0	0	0	508	303	
12	0	0	0	0	508	303	
13	0	0	0	0	509	303	
14	0	0	0	0	509	303	
15	0	0	0	0	509	303	
0	0	0	0	0	508	303	
1	0	0	0	0	508	303	
2	0	0	0	0	508	303	
3	0	0	0	0	508	303	
4	0	0	0	0	508	303	
5	0	0	0	0	507	303	
6	0	0	0	0	506	303	
7	0	0	0	0	505	303	
8	0	0	0	0	505	303	
9	0	0	0	0	505	303	
10	0	0	0	0	506	303	
11	0	0	0	0	506	303	
12	0	0	0	0	507	303	
13	0	0	0	0	508	303	
14	0	0	0	0	509	303	
15	0	0	0	0	511	303	
0	0	0	0	0	512	303	
1	0	0	0	0	512	303	
2	0	0	0	0	512	303	
3	0	0	0	0	512	303	
4	0	0	0	0	512	303	
5	0	0	0	0	511	303	
6	0	0	0	0	510	303	
7	0	0	0	0	511	303	
8	0	0	0	0	510	303	
9	0	0	0	0	511	303	
10	0	0	0	0	511	303	
11	0	0	0	0	511	303	
12	0	0	0	0	511	303	
13	0	0	0	0	512	303	
14	0	0	0	0	513	303	
15	0	0	0	0	513	303	
0	0	0	0	0	513	303	
1	0	0	0	0	513	303	
2	0	0	0	0	513	303	
3	0	0	0	0	512	303	
4	0	0	0	0	512	303	
5	0	0	0	0	511	303	
6	0	0	0	0	510	303	
7	0	0	0	0	509	303	
8	0	0	0	0	508	303	
9	0	0	0	0	508	303	
10	0	0	0	0	507	303	
11	0	0	0	0	507	303	
12	0	0	0	0	507	303	
13	0	0	0	0	507	303	
14	0	0	0	0	507	303	
15	0	0	0	0	508	303	
0	0	0	0	0	508	303	
1	0	0	0	0	508	303	
2	0	0	0	0	508	303	
3	0	0	0	0	508	303	
4	0	0	0	0	509	303	
5	0	0	0	0	509	303	
6	0	0	0	0	508	303	
7	0	0	0	0	508	303	
8	0	0	0	0	508	303	
9	0	0	0	0	508	303	
10	0	0	0	0	508	303	
11	0	0	0	0	508	303	
12	0	0	0	0	508	303	
13	0	0	0	0	509	303	
14	0	0	0	0	509	303	
15	0	0	0	0	511	303	
0	0	0	0	0	512	303	
1	0	0	0	0	513	303	
2	0	0	0	0	514	303	
3	0	0	0	0	514	303	
4	0	0	0	0	515	303	
5	0	0	0	0	515	303	
6	0	0	0	0	514	303	
7	0	0	0	0	514	303	
8	0	0	0	0	514	303	
9	0	0	0	0	515	303	
10	0	0	0	0	515	303	
11	0	0	0	0	515	303	
12	0	0	0	0	516	303	
13	0	0	0	0	515	303	
14	0	0	0	0	515	303	
15	0	0	0	0	516	303	
0	0	0	0	0	517	303	
1	0	0	0	0	518	303	
2	0	0	0	0	519	303	
3	0	0	0	0	519	303	
4	0	0	0	0	519	303	
5	0	0	0	0	519	303	
6	0	0	0	0	519	303	
7	0	0	0	0	519	303	
8	0	0	0	0	519	303	
9	0	0	0	0	519	303	
10	0	0	0	0	518	303	
11	0	0	0	0	517	303	
12	0	0	0	0	517	303	
13	0	0	0	0	518	303	
14	0	0	0	0	518	303	
15	0	0	0	0	518	303	
0	0	0	0	0	519	303	
1	0	0	0	0	520	303	
2	0	0	0	0	521	303	
3	0	0	0	0	521	303	
4	0	0	0	0	521	303	
5	0	0	0	0	521	303	
6	0	0	0	0	521	303	
7	0	0	0	0	520	303	
8	0	0	0	0	519	303	
9	0	0	0	0	518	303	
10	0	0	0	0	517	303	
11	0	0	0	0	516	303	
12	0	0	0	0	516	303	
13	0	0	0	0	516	303	
14	0	0	0	0	515	303	
15	0	0	0	0	516	303	
0	0	0	0	0	517	303	
1	0	0	0	0	518	303	
2	0	0	0	0	519	303	
3	0	0	0	0	520	303	
4	0	0	0	0	520	303	
5	0	0	0	0	521	303	
6	0	0	0	0	521	303	
7	0	0	0	0	520	303	
8	0	0	0	0	519	303	
9	0	0	0	0	519	303	
10	0	0	0	0	518	303	
11	0	0	0	0	517	303	
12	0	0	0	0	516	303	
13	0	0	0	0	516	303	
14	0	0	0	0	516	303	
15	0	0	0	0	515	303	
0	0	0	0	0	515	303	
1	0	0	0	0	515	303	
2	0	0	0	0	516	303	
3	0	0	0	0	516	303	
4	0	0	0	0	515	303	
5	0	0	0	0	516	303	
6	0	0	0	0	515	303	
7	0	0	0	0	515	303	
8	0	0	0	0	514	303	
9	0	0	0	0	514	303	
10	0	0	0	0	513	303	
11	0	0	0	0	512	303	
12	0	0	0	0	512	303	
13	0	0	0	0	512	303	
14	0	0	0	0	511	303	
15	0	0	0	0	511	303	
0	0	0	0	0	511	303	
1	0	0	0	0	511	303	
2	0	0	0	0	511	303	
3	0	0	0	0	511	303	
4	0	0	0	0	512	303	
5	0	0	0	0	512	303	
6	0	0	0	0	512	303	
7	0	0	0	0	511	303	
8	0	0	0	0	511	303	
9	0	0	0	0	510	303	
10	0	0	0	0	509	303	
11	0	0	0	0	508	303	
12	0	0	0	0	507	303	
13	0	0	0	0	507	303	
14	0	0	0	0	506	303	
15	0	0	0	0	507	303	
0	0	0	0	0	507	303	
1	0	0	0	0	508	303	
2	0	0	0	0	508	303	
3	0	0	0	0	509	303	
4	0	0	0	0	511	303	
5	0	0	0	0	512	303	
6	0	0	0	0	512	303	
7	0	0	0	0	513	303	
8	0	0	0	0	513	303	
9	0	0	0	0	513	303	
10	0	0	0	0	513	303	
11	0	0	0	0	514	303	
12	0	0	0	0	514	303	
13	0	0	0	0	514	303	
14	0	0	0	0	514	303	
15	0	0	0	0	514	303	
0	0	0	0	0	514	303	
1	0	0	0	0	515	303	
2	0	0	0	0	516	303	
3	0	0	0	0	516	303	
4	0	0	0	0	516	303	
5	0	0	0	0	515	303	
6	0	0	0	0	513	303	
7	0	0	0	0	512	303	
8	0	0	0	0	510	303	
9	0	0	0	0	507	303	
10	0	0	0	0	505	303	
11	0	0	0	0	503	303	
12	0	0	0	0	499	303	
13	0	0	0	0	497	303	
14	0	0	0	0	493	303	
15	0	0	0	0	492	303	
0	0	0	0	0	491	303	
1	0	0	0	0	489	303	
2	0	0	0	0	487	303	
3	0	0	0	0	485	303	
4	0	0	0	0	484	303	
5	0	0	0	0	483	303	
6	0	0	0	0	483	303	
7	0	0	0	0	483	303	
8	0	0	0	0	484	303	
9	0	0	0	0	486	303	
10	0	0	0	0	487	303	
11	0	0	0	0	488	303	
12	0	0	0	0	488	303	
13	0	0	0	0	488	303	
14	0	0	0	0	489	303	
15	0	0	0	0	490	303	
0	0	0	0	0	490	303	
1	0	0	0	0	489	303	
2	0	0	0	0	489	303	
3	0	0	0	0	489	303	
4	0	0	0	0	489	303	
5	0	0	0	0	490	303	
6	0	0	0	0	491	303	
7	0	0	0	0	493	303	
8	0	0	0	0	494	303	
9	0	0	0	0	496	303	
10	0	0	0	0	498	303	
11	0	0	0	0	500	303	
12	0	0	0	0	501	303	
13	0	0	0	0	503	303	
14	0	0	0	0	504	303	
15	0	0	0	0	505	303	
0	0	0	0	0	506	303	
1	0	0	0	0	508	303	
2	0	0	0	0	509	303	
3	0	0	0	0	509	303	
4	0	0	0	0	511	303	
5	0	0	0	0	512	303	
6	0	0	0	0	515	303	
7	0	0	0	0	516	303	
8	0	0	0	0	518	303	
9	0	0	0	0	519	303	
10	0	0	0	0	519	303	
11	0	0	0	0	519	303	
12	0	0	0	0	519	303	
13	0	0	0	0	519	303	
14	0	0	0	0	518	303	
15	0	0	0	0	518	303	
0	0	0	0	0	516	303	
1	0	0	0	0	515	303	
2	0	0	0	0	513	303	
3	0	0	0	0	513	303	
4	0	0	0	0	512	303	
5	0	0	0	0	512	303	
6	0	0	0	0	511	303	
7	0	0	0	0	511	303	
8	0	0	0	0	511	303	
9	0	0	0	0	510	303	
10	0	0	0	0	508	303	
11	0	0	0	0	506	303	
12	0	0	0	0	505	303	
13	0	0	0	0	504	303	
14	0	0	0	0	503	303	
15	0	0	0	0	501	303	
0	0	0	0	0	500	303	
1	0	0	0	0	500	303	
2	0	0	0	0	499	303	
3	0	0	0	0	499	303	
4	0	0	0	0	499	303	
5	0	0	0	0	499	303	
6	0	0	0	0	500	303	
7	0	0	0	0	501	303	
8	0	0	0	0	501	303	
9	0	0	0	0	501	303	
10	0	0	0	0	501	303	
11	0	0	0	0	501	303	
12	0	0	0	0	500	303	
13	0	0	0	0	501	303	
14	0	0	0	0	500	303	
15	0	0	0	0	500	303	
0	0	0	0	0	500	303	
1	0	0	0	0	500	303	
2	0	0	0	0	499	303	
3	0	0	0	0	499	303	
4	0	0	0	0	498	303	
5	0	0	0	0	498	303	
6	0	0	0	0	499	303	
7	0	0	0	0	500	303	
8	0	0	0	0	501	303	
9	0	0	0	0	502	303	
10	0	0	0	0	503	303	
11	0	0	0	0	503	302	
12	0	0	0	0	502	303	
13	0	0	0	0	502	303	
14	0	0	0	0	502	303	
15	0	0	0	0	502	303	
0	0	0	0	0	501	303	
1	0	0	0	0	500	303	
2	0	0	0	0	499	303	
3	0	0	0	0	499	303	
4	0	0	0	0	498	303	
5	0	0	0	0	498	303	
6	0	0	0	0	498	303	
7	0	0	0	0	498	303	
8	0	0	0	0	498	303	
9	0	0	0	0	499	303	
10	0	0	0	0	500	303	
11	0	0	0	0	501	303	
12	0	0	0	0	501	303	
13	0	0	0	0	501	303	
14	0	0	0	0	502	303	
15	0	0	0	0	501	303	
0	0	0	0	0	502	303	
1	0	0	0	0	502	303	
2	0	0	0	0	501	303	
3	0	0	0	0	500	303	
4	0	0	0	0	499	303	
5	0	0	0	0	499	303	
6	0	0	0	0	500	303	
7	0	0	0	0	500	303	
8	0	0	0	0	501	303	
9	0	0	0	0	502	303	
10	0	0	0	0	502	303	
11	0	0	0	0	503	303	
12	0	0	0	0	503	303	
13	0	0	0	0	502	303	
14	0	0	0	0	502	303	
15	0	0	0	0	503	303	
0	0	0	0	0	503	303	
1	0	0	0	0	503	303	
2	0	0	0	0	502	303	
3	0	0	0	0	502	303	
4	0	0	0	0	501	303	
5	0	0	0	0	500	303	
6	0	0	0	0	500	303	
7	0	0	0	0	500	303	
8	0	0	0	0	500	303	
9	0	0	0	0	501	303	
10	0	0	0	0	501	303	
11	0	0	0	0	502	303	
12	0	0	0	0	503	303	
13	0	0	0	0	503	303	
14	0	0	0	0	503	303	
15	0	0	0	0	503	303	
0	0	0	0	0	503	303	
1	0	0	0	0	502	303	
2	0	0	0	0	502	303	
3	0	0	0	0	502	303	
4	0	0	0	0	502	303	
5	0	0	0	0	501	303	
6	0	0	0	0	501	303	
7	0	0	0	0	501	303	
8	0	0	0	0	501	303	
9	0	0	0	0	501	303	
10	0	0	0	0	501	302	
11	0	0	0	0	502	303	
12	0	0	0	0	502	303	
13	0	0	0	0	502	303	
14	0	0	0	0	503	303	
15	0	0	0	0	504	303	
0	0	0	0	0	503	303	
1	0	0	0	0	502	303	
2	0	0	0	0	501	303	
3	0	0	0	0	499	303	
4	0	0	0	0	499	303	
5	0	0	0	0	498	303	
6	0	0	0	0	496	303	
7	0	0	0	0	496	303	
8	0	0	0	0	496	303	
9	0	0	0	0	496	303	
10	0	0	0	0	496	303	
11	0	0	0	0	497	303	
12	0	0	0	0	497	303	
13	0	0	0	0	497	303	
14	0	0	0	0	498	303	
15	0	0	0	0	498	303	
0	0	0	0	0	497	303	
1	0	0	0	0	497	303	
2	0	0	0	0	497	303	
3	0	0	0	0	496	303	
4	0	0	0	0	496	303	
5	0	0	0	0	496	303	
6	0	0	0	0	496	303	
7	0	0	0	0	495	303	
8	0	0	0	0	495	303	
9	0	0	0	0	495	303	
10	0	0	0	0	496	303	
11	0	0	0	0	497	303	
12	0	0	0	0	499	303	
13	0	0	0	0	499	303	
14	0	0	0	0	499	303	
15	0	0	0	0	499	303	
0	0	0	0	0	499	303	
1	0	0	0	0	499	303	
2	0	0	0	0	499	303	
3	0	0	0	0	498	303	
4	0	0	0	0	498	303	
5	0	0	0	0	497	303	
6	0	0	0	0	497	303	
7	0	0	0	0	496	303	
8	0	0	0	0	496	303	
9	0	0	0	0	495	303	
10	0	0	0	0	495	303	
11	0	0	0	0	495	303	
12	0	0	0	0	496	303	
13	0	0	0	0	496	303	
14	0	0	0	0	497	303	
15	0	0	0	0	497	303	
0	0	0	0	0	498	303	
1	0	0	0	0	498	303	
2	0	0	0	0	498	303	
3	0	0	0	0	497	303	
4	0	0	0	0	497	303	
5	0	0	0	0	496	303	
6	0	0	0	0	495	303	
7	0	0	0	0	494	303	
8	0	0	0	0	492	303	
9	0	0	0	0	492	303	
10	0	0	0	0	492	303	
11	0	0	0	0	491	303	
12	0	0	0	0	491	303	
13	0	0	0	0	492	303	
14	0	0	0	0	492	303	
15	0	0	0	0	492	303	
0	0	0	0	0	493	303	
1	0	0	0	0	492	303	
2	0	0	0	0	491	303	
3	0	0	0	0	491	303	
4	0	0	0	0	490	303	
5	0	0	0	0	491	303	
6	0	0	0	0	490	303	
7	0	0	0	0	490	303	
8	0	0	0	0	489	303	
9	0	0	0	0	489	303	
10	0	0	0	0	490	303	
11	0	0	0	0	489	303	
12	0	0	0	0	489	303	
13	0	0	0	0	489	303	
14	0	0	0	0	491	303	
15	0	0	0	0	491	303	
0	0	0	0	0	492	303	
1	0	0	0	0	493	303	
2	0	0	0	0	494	303	
3	0	0	0	0	494	303	
4	0	0	0	0	495	303	
5	0	0	0	0	495	303	
6	0	0	0	0	494	303	
7	0	0	0	0	494	303	
8	0	0	0	0	494	303	
9	0	0	0	0	494	303	
10	0	0	0	0	494	303	
11	0	0	0	0	495	303	
12	0	0	0	0	495	303	
13	0	0	0	0	496	303	
14	0	0	0	0	497	303	
15	0	0	0	0	499	303	
0	0	0	0	0	500	303	
1	0	0	0	0	501	303	
2	0	0	0	0	502	303	
3	0	0	0	0	502	303	
4	0	0	0	0	503	303	
5	0	0	0	0	503	303	
6	0	0	0	0	503	303	
7	0	0	0	0	503	303	
8	0	0	0	0	502	303	
9	0	0	0	0	502	303	
10	0	0	0	0	502	303	
11	0	0	0	0	503	303	
12	0	0	0	0	502	303	
13	0	0	0	0	504	303	
14	0	0	0	0	505	303	
15	0	0	0	0	506	303	
0	0	0	0	0	508	303	
1	0	0	0	0	509	303	
2	0	0	0	0	510	303	
3	0	0	0	0	510	303	
4	0	0	0	0	511	303	
5	0	0	0	0	510	303	
6	0	0	0	0	511	303	
7	0	0	0	0	510	303	
8	0	0	0	0	510	303	
9	0	0	0	0	510	303	
10	0	0	0	0	511	303	
11	0	0	0	0	511	303	
12	0	0	0	0	512	303	
13	0	0	0	0	512	303	
14	0	0	0	0	514	303	
15	0	0	0	0	515	303	
0	0	0	0	0	517	303	
1	0	0	0	0	519	303	
2	0	0	0	0	519	303	
3	0	0	0	0	520	303	
4	0	0	0	0	521	303	
5	0	0	0	0	521	303	
6	0	0	0	0	521	303	
7	0	0	0	0	523	303	
8	0	0	0	0	523	303	
9	0	0	0	0	523	303	
10	0	0	0	0	523	303	
11	0	0	0	0	524	303	
12	0	0	0	0	524	303	
13	0	0	0	0	525	303	
14	0	0	0	0	526	303	
15	0	0	0	0	527	303	
0	0	0	0	0	529	303	
1	0	0	0	0	529	303	
2	0	0	0	0	530	303	
3	0	0	0	0	531	303	
4	0	0	0	0	531	303	
5	0	0	0	0	531	303	
6	0	0	0	0	531	303	
7	0	0	0	0	531	303	
8	0	0	0	0	531	303	
9	0	0	0	0	530	303	
10	0	0	0	0	530	303	
11	0	0	0	0	529	303	
12	0	0	0	0	529	303	
13	0	0	0	0	528	303	
14	0	0	0	0	528	303	
15	0	0	0	0	528	303	
0	0	0	0	0	529	303	
1	0	0	0	0	530	303	
2	0	0	0	0	530	303	
3	0	0	0	0	531	303	
4	0	0	0	0	531	303	
5	0	0	0	0	531	303	
6	0	0	0	0	531	303	
7	0	0	0	0	530	303	
8	0	0	0	0	530	303	
9	0	0	0	0	529	303	
10	0	0	0	0	529	303	
11	0	0	0	0	528	303	
12	0	0	0	0	527	303	
13	0	0	0	0	527	303	
14	0	0	0	0	527	303	
15	0	0	0	0	526	303	
0	0	0	0	0	527	303	
1	0	0	0	0	526	303	
2	0	0	0	0	526	303	
3	0	0	0	0	527	303	
4	0	0	0	0	527	303	
5	0	0	0	0	527	303	
6	0	0	0	0	527	303	
7	0	0	0	0	526	303	
8	0	0	0	0	525	303	
9	0	0	0	0	525	303	
10	0	0	0	0	524	303	
11	0	0	0	0	522	303	
12	0	0	0	0	521	303	
13	0	0	0	0	521	303	
14	0	0	0	0	520	303	
15	0	0	0	0	520	303	
0	0	0	0	0	519	303	
1	0	0	0	0	520	303	
2	0	0	0	0	521	303	
3	0	0	0	0	521	303	
4	0	0	0	0	521	303	
5	0	0	0	0	521	303	
6	0	0	0	0	521	303	
7	0	0	0	0	520	303	
8	0	0	0	0	519	303	
9	0	0	0	0	519	303	
10	0	0	0	0	518	303	
11	0	0	0	0	517	303	
12	0	0	0	0	517	303	
13	0	0	0	0	515	303	
14	0	0	0	0	515	303	
15	0	0	0	0	515	303	
0	0	0	0	0	515	303	
1	0	0	0	0	515	303	
2	0	0	0	0	515	303	
3	0	0	0	0	516	303	
4	0	0	0	0	516	303	
5	0	0	0	0	516	303	
6	0	0	0	0	517	303	
7	0	0	0	0	517	303	
8	0	0	0	0	516	303	
9	0	0	0	0	516	303	
10	0	0	0	0	517	303	
11	0	0	0	0	517	303	
12	0	0	0	0	516	303	
13	0	0	0	0	517	303	
14	0	0	0	0	516	303	
15	0	0	0	0	515	303	
0	0	0	0	0	514	303	
1	0	0	0	0	514	303	
2	0	0	0	0	513	303	
3	0	0	0	0	514	303	
4	0	0	0	0	515	303	
5	0	0	0	0	515	303	
6	0	0	0	0	515	303	
7	0	0	0	0	515	303	
8	0	0	0	0	516	303	
9	0	0	0	0	515	303	
10	0	0	0	0	516	303	
11	0	0	0	0	515	303	
12	0	0	0	0	515	303	
13	0	0	0	0	514	303	
14	0	0	0	0	514	303	
15	0	0	0	0	513	303	
0	0	0	0	0	513	303	
1	0	0	0	0	513	303	
2	0	0	0	0	512	303	
3	0	0	0	0	513	303	
4	0	0	0	0	513	303	
5	0	0	0	0	514	303	
6	0	0	0	0	515	303	
7	0	0	0	0	516	303	
8	0	0	0	0	517	303	
9	0	0	0	0	517	303	
10	0	0	0	0	517	303	
11	0	0	0	0	518	303	
12	0	0	0	0	518	303	
13	0	0	0	0	518	303	
14	0	0	0	0	517	303	
15	0	0	0	0	515	303	
0	0	0	0	0	515	303	
1	0	0	0	0	515	303	
2	0	0	0	0	515	303	
3	0	0	0	0	515	303	
4	0	0	0	0	515	303	
5	0	0	0	0	515	303	
6	0	0	0	0	515	303	
7	0	0	0	0	515	303	
8	0	0	0	0	515	303	
9	0	0	0	0	515	303	
10	0	0	0	0	514	303	
11	0	0	0	0	513	303	
12	0	0	0	0	513	303	
13	0	0	0	0	512	303	
14	0	0	0	0	512	303	
15	0	0	0	0	512	303	
0	0	0	0	0	512	303	
1	0	0	0	0	511	303	
2	0	0	0	0	511	303	
3	0	0	0	0	510	303	
4	0	0	0	0	511	303	
5	0	0	0	0	512	303	
6	0	0	0	0	512	303	
7	0	0	0	0	513	303	
8	0	0	0	0	513	303	
9	0	0	0	0	514	303	
10	0	0	0	0	513	303	
11	0	0	0	0	513	303	
12	0	0	0	0	513	303	
13	0	0	0	0	513	303	
14	0	0	0	0	512	303	
15	0	0	0	0	511	303	
0	0	0	0	0	510	303	
1	0	0	0	0	509	303	
2	0	0	0	0	508	303	
3	0	0	0	0	508	303	
4	0	0	0	0	508	303	
5	0	0	0	0	509	303	
6	0	0	0	0	510	303	
7	0	0	0	0	510	303	
8	0	0	0	0	510	303	
9	0	0	0	0	510	303	
10	0	0	0	0	510	303	
11	0	0	0	0	510	303	
12	0	0	0	0	510	303	
13	0	0	0	0	510	303	
14	0	0	0	0	509	303	
15	0	0	0	0	508	303	
0	0	0	0	0	508	303	
1	0	0	0	0	507	303	
2	0	0	0	0	507	303	
3	0	0	0	0	507	303	
4	0	0	0	0	507	303	
5	0	0	0	0	508	303	
6	0	0	0	0	508	303	
7	0	0	0	0	510	303	
8	0	0	0	0	511	303	
9	0	0	0	0	512	303	
10	0	0	0	0	513	303	
11	0	0	0	0	513	303	
12	0	0	0	0	514	303	
13	0	0	0	0	514	303	
14	0	0	0	0	514	303	
15	0	0	0	0	514	303	
0	0	0	0	0	513	303	
1	0	0	0	0	513	304	
2	0	0	0	0	512	303	
3	0	0	0	0	512	303	
4	0	0	0	0	512	303	
5	0	0	0	0	512	303	
6	0	0	0	0	512	303	
7	0	0	0	0	512	303	
8	0	0	0	0	513	304	
9	0	0	0	0	514	304	
10	0	0	0	0	513	303	
11	0	0	0	0	514	304	
12	0	0	0	0	513	303	
13	0	0	0	0	513	303	
14	0	0	0	0	513	304	
15	0	0	0	0	512	303	
0	0	0	0	0	511	303	
1	0	0	0	0	511	304	
2	0	0	0	0	510	304	
3	0	0	0	0	510	304	
4	0	0	0	0	509	303	
5	0	0	0	0	509	304	
6	0	0	0	0	509	304	
7	0	0	0	0	510	303	
8	0	0	0	0	510	304	
9	0	0	0	0	510	304	
10	0	0	0	0	510	303	
11	0	0	0	0	511	304	
12	0	0	0	0	511	304	
13	0	0	0	0	512	304	
14	0	0	0	0	511	303	
15	0	0	0	0	512	304	
0	0	0	0	0	511	304	
1	0	0	0	0	511	303	
2	0	0	0	0	511	304	
3	0	0	0	0	511	304	
4	0	0	0	0	511	303	
5	0	0	0	0	510	303	
6	0	0	0	0	510	304	
7	0	0	0	0	510	304	
8	0	0	0	0	510	304	
9	0	0	0	0	511	304	
10	0	0	0	0	512	303	
11	0	0	0	0	512	304	
12	0	0	0	0	513	304	
13	0	0	0	0	513	304	
14	0	0	0	0	513	304	
15	0	0	0	0	513	304	
0	0	0	0	0	512	304	
1	0	0	0	0	512	304	
2	0	0	0	0	511	304	
3	0	0	0	0	511	304	
4	0	0	0	0	510	304	
5	0	0	0	0	509	304	
6	0	0	0	0	509	304	
7	0	0	0	0	509	304	
8	0	0	0	0	509	304	
9	0	0	0	0	510	304	
10	0	0	0	0	510	304	
11	0	0	0	0	512	304	
12	0	0	0	0	512	304	
13	0	0	0	0	512	304	
14	0	0	0	0	513	304	
15	0	0	0	0	513	304	
0	0	0	0	0	512	304	
1	0	0	0	0	512	304	
2	0	0	0	0	511	304	
3	0	0	0	0	511	304	
4	0	0	0	0	509	304	
5	0	0	0	0	509	304	
6	0	0	0	0	509	304	
7	0	0	0	0	509	304	
8	0	0	0	0	508	304	
9	0	0	0	0	508	304	
10	0	0	0	0	508	303	
11	0	0	0	0	509	304	
12	0	0	0	0	510	304	
13	0	0	0	0	511	304	
14	0	0	0	0	511	304	
15	0	0	0	0	511	304	
0	0	0	0	0	511	304	
1	0	0	0	0	510	304	
2	0	0	0	0	509	304	
3	0	0	0	0	508	304	
4	0	0	0	0	508	304	
5	0	0	0	0	507	304	
6	0	0	0	0	507	304	
7	0	0	0	0	507	304	
8	0	0	0	0	507	304	
9	0	0	0	0	508	304	
10	0	0	0	0	509	304	
11	0	0	0	0	510	304	
12	0	0	0	0	511	304	
13	0	0	0	0	511	304	
14	0	0	0	0	512	304	
15	0	0	0	0	511	304	
0	0	0	0	0	511	304	
1	0	0	0	0	511	304	
2	0	0	0	0	511	304	
3	0	0	0	0	510	304	
4	0	0	0	0	509	304	
5	0	0	0	0	508	304	
6	0	0	0	0	507	304	
7	0	0	0	0	506	304	
8	0	0	0	0	506	304	
9	0	0	0	0	505	304	
10	0	0	0	0	505	304	
11	0	0	0	0	505	304	
12	0	0	0	0	505	304	
13	0	0	0	0	506	304	
14	0	0	0	0	505	304	
15	0	0	0	0	505	304	
0	0	0	0	0	505	304	
1	0	0	0	0	505	304	
2	0	0	0	0	504	304	
3	0	0	0	0	504	304	
4	0	0	0	0	503	304	
5	0	0	0	0	503	304	
6	0	0	0	0	503	304	
7	0	0	0	0	502	304	
8	0	0	0	0	502	304	
9	0	0	0	0	502	304	
10	0	0	0	0	502	304	
11	0	0	0	0	503	304	
12	0	0	0	0	504	304	
13	0	0	0	0	504	304	
14	0	0	0	0	506	304	
15	0	0	0	0	506	304	
0	0	0	0	0	505	304	
1	0	0	0	0	504	304	
2	0	0	0	0	504	304	
3	0	0	0	0	503	304	
4	0	0	0	0	502	304	
5	0	0	0	0	502	304	
6	0	0	0	0	501	304	
7	0	0	0	0	500	304	
8	0	0	0	0	500	304	
9	0	0	0	0	499	304	
10	0	0	0	0	499	304	
11	0	0	0	0	499	304	
12	0	0	0	0	499	304	
13	0	0	0	0	500	304	
14	0	0	0	0	499	304	
15	0	0	0	0	501	304	
0	0	0	0	0	502	304	
1	0	0	0	0	502	304	
2	0	0	0	0	501	304	
3	0	0	0	0	502	304	
4	0	0	0	0	502	304	
5	0	0	0	0	502	304	
6	0	0	0	0	501	304	
7	0	0	0	0	499	304	
8	0	0	0	0	498	304	
9	0	0	0	0	497	304	
10	0	0	0	0	497	304	
11	0	0	0	0	498	304	
12	0	0	0	0	499	304	
13	0	0	0	0	500	304	
14	0	0	0	0	501	304	
15	0	0	0	0	501	304	
0	0	0	0	0	502	304	
1	0	0	0	0	503	304	
2	0	0	0	0	504	304	
3	0	0	0	0	504	304	
4	0	0	0	0	504	304	
5	0	0	0	0	504	304	
6	0	0	0	0	505	304	
7	0	0	0	0	504	304	
8	0	0	0	0	504	304	
9	0	0	0	0	503	304	
10	0	0	0	0	502	304	
11	0	0	0	0	502	304	
12	0	0	0	0	501	304	
13	0	0	0	0	501	304	
14	0	0	0	0	502	304	
15	0	0	0	0	502	304	
0	0	0	0	0	502	304	
1	0	0	0	0	502	304	
2	0	0	0	0	502	304	
3	0	0	0	0	501	304	
4	0	0	0	0	501	304	
5	0	0	0	0	501	304	
6	0	0	0	0	501	305	
7	0	0	0	0	500	304	
8	0	0	0	0	499	304	
9	0	0	0	0	499	304	
10	0	0	0	0	499	305	
11	0	0	0	0	497	304	
12	0	0	0	0	497	304	
13	0	0	0	0	497	304	
14	0	0	0	0	498	304	
15	0	0	0	0	499	304	
0	0	0	0	0	500	304	
1	0	0	0	0	502	304	
2	0	0	0	0	503	305	
3	0	0	0	0	503	304	
4	0	0	0	0	503	305	
5	0	0	0	0	503	305	
6	0	0	0	0	503	305	
7	0	0	0	0	503	304	
8	0	0	0	0	503	305	
9	0	0	0	0	503	305	
10	0	0	0	0	502	304	
11	0	0	0	0	501	305	
12	0	0	0	0	501	305	
13	0	0	0	0	500	305	
14	0	0	0	0	500	304	
15	0	0	0	0	501	305	
0	0	0	0	0	502	305	
1	0	0	0	0	503	305	
2	0	0	0	0	503	305	
3	0	0	0	0	504	305	
4	0	0	0	0	504	304	
5	0	0	0	0	504	305	
6	0	0	0	0	503	305	
7	0	0	0	0	503	304	
8	0	0	0	0	502	305	
9	0	0	0	0	502	305	
10	0	0	0	0	500	305	
11	0	0	0	0	500	305	
12	0	0	0	0	498	305	
13	0	0	0	0	498	305	
14	0	0	0	0	499	305	
15	0	0	0	0	498	305	
0	0	0	0	0	499	305	
1	0	0	0	0	499	305	
2	0	0	0	0	499	304	
3	0	0	0	0	499	305	
4	0	0	0	0	499	305	
5	0	0	0	0	499	305	
6	0	0	0	0	499	305	
7	0	0	0	0	498	305	
8	0	0	0	0	497	305	
9	0	0	0	0	496	305	
10	0	0	0	0	496	305	
11	0	0	0	0	495	305	
12	0	0	0	0	495	305	
13	0	0	0	0	494	305	
14	0	0	0	0	494	305	
15	0	0	0	0	495	305	
0	0	0	0	0	495	305	
1	0	0	0	0	495	305	
2	0	0	0	0	496	305	
3	0	0	0	0	496	305	
4	0	0	0	0	497	305	
5	0	0	0	0	497	305	
6	0	0	0	0	497	305	
7	0	0	0	0	497	305	
8	0	0	0	0	497	305	
9	0	0	0	0	497	305	
10	0	0	0	0	497	305	
11	0	0	0	0	497	305	
12	0	0	0	0	496	305	
13	0	0	0	0	496	305	
14	0	0	0	0	497	305	
15	0	0	0	0	496	305	
0	0	0	0	0	497	305	
1	0	0	0	0	497	305	
2	0	0	0	0	499	305	
3	0	0	0	0	499	305	
4	0	0	0	0	500	305	
5	0	0	0	0	500	305	
6	0	0	0	0	499	305	
7	0	0	0	0	498	305	
8	0	0	0	0	497	305	
9	0	0	0	0	496	305	
10	0	0	0	0	496	305	
11	0	0	0	0	495	305	
12	0	0	0	0	494	305	
13	0	0	0	0	493	305	
14	0	0	0	0	493	305	
15	0	0	0	0	494	305	
0	0	0	0	0	494	305	
1	0	0	0	0	493	305	
2	0	0	0	0	494	305	
3	0	0	0	0	495	305	
4	0	0	0	0	496	305	
5	0	0	0	0	496	305	
6	0	0	0	0	497	305	
7	0	0	0	0	497	305	
8	0	0	0	0	497	305	
9	0	0	0	0	496	305	
10	0	0	0	0	496	305	
11	0	0	0	0	494	305	
12	0	0	0	0	494	305	
13	0	0	0	0	493	305	
14	0	0	0	0	493	305	
15	0	0	0	0	492	305	
0	0	0	0	0	491	305	
1	0	0	0	0	491	305	
2	0	0	0	0	491	305	
3	0	0	0	0	492	305	
4	0	0	0	0	492	305	
5	0	0	0	0	492	305	
6	0	0	0	0	492	305	
7	0	0	0	0	492	305	
8	0	0	0	0	492	305	
9	0	0	0	0	492	305	
10	0	0	0	0	492	305	
11	0	0	0	0	491	305	
12	0	0	0	0	491	305	
13	0	0	0	0	491	305	
14	0	0	0	0	490	305	
15	0	0	0	0	489	305	
0	0	0	0	0	489	305	
1	0	0	0	0	489	305	
2	0	0	0	0	489	305	
3	0	0	0	0	489	305	
4	0	0	0	0	489	305	
5	0	0	0	0	489	305	
6	0	0	0	0	490	305	
7	0	0	0	0	490	305	
8	0	0	0	0	490	305	
9	0	0	0	0	490	306	
10	0	0	0	0	490	305	
11	0	0	0	0	489	305	
12	0	0	0	0	489	306	
13	0	0	0	0	490	306	
14	0	0	0	0	490	305	
15	0	0	0	0	491	306	
0	0	0	0	0	492	305	
1	0	0	0	0	493	306	
2	0	0	0	0	494	305	
3	0	0	0	0	495	306	
4	0	0	0	0	496	306	
5	0	0	0	0	498	305	
6	0	0	0	0	500	305	
7	0	0	0	0	501	306	
8	0	0	0	0	502	306	
9	0	0	0	0	503	305	
10	0	0	0	0	503	306	
11	0	0	0	0	503	306	
12	0	0	0	0	504	306	
13	0	0	0	0	503	305	
14	0	0	0	0	503	306	
15	0	0	0	0	502	306	
0	0	0	0	0	501	305	
1	0	0	0	0	501	306	
2	0	0	0	0	501	306	
3	0	0	0	0	502	306	
4	0	0	0	0	502	305	
5	0	0	0	0	503	306	
6	0	0	0	0	505	306	
7	0	0	0	0	506	306	
8	0	0	0	0	507	306	
9	0	0	0	0	508	306	
10	0	0	0	0	509	306	
11	0	0	0	0	510	306	
12	0	0	0	0	510	306	
13	0	0	0	0	511	306	
14	0	0	0	0	511	306	
15	0	0	0	0	511	306	
0	0	0	0	0	511	305	
1	0	0	0	0	511	306	
2	0	0	0	0	511	306	
3	0	0	0	0	512	306	
4	0	0	0	0	512	306	
5	0	0	0	0	513	305	
6	0	0	0	0	515	306	
7	0	0	0	0	516	306	
8	0	0	0	0	518	306	
9	0	0	0	0	519	306	
10	0	0	0	0	519	306	
11	0	0	0	0	519	306	
12	0	0	0	0	519	306	
13	0	0	0	0	518	306	
14	0	0	0	0	516	306	
15	0	0	0	0	516	306	
0	0	0	0	0	515	306	
1	0	0	0	0	515	306	
2	0	0	0	0	513	306	
3	0	0	0	0	514	306	
4	0	0	0	0	514	306	
5	0	0	0	0	514	306	
6	0	0	0	0	515	306	
7	0	0	0	0	515	306	
8	0	0	0	0	516	306	
9	0	0	0	0	516	306	
10	0	0	0	0	516	306	
11	0	0	0	0	516	306	
12	0	0	0	0	516	306	
13	0	0	0	0	515	306	
14	0	0	0	0	515	306	
15	0	0	0	0	515	306	
0	0	0	0	0	515	306	
1	0	0	0	0	515	306	
2	0	0	0	0	515	307	
3	0	0	0	0	514	306	
4	0	0	0	0	515	306	
5	0	0	0	0	515	306	
6	0	0	0	0	515	306	
7	0	0	0	0	517	306	
8	0	0	0	0	517	306	
9	0	0	0	0	516	306	
10	0	0	0	0	516	306	
11	0	0	0	0	515	306	
12	0	0	0	0	515	307	
13	0	0	0	0	514	306	
14	0	0	0	0	513	306	
15	0	0	0	0	513	307	
0	0	0	0	0	512	307	
1	0	0	0	0	512	306	
2	0	0	0	0	511	307	
3	0	0	0	0	511	307	
4	0	0	0	0	510	306	
5	0	0	0	0	510	306	
6	0	0	0	0	510	307	
7	0	0	0	0	511	306	
8	0	0	0	0	511	306	
9	0	0	0	0	512	306	
10	0	0	0	0	512	307	
11	0	0	0	0	512	307	
12	0	0	0	0	513	307	
13	0	0	0	0	512	306	
14	0	0	0	0	512	307	
15	0	0	0	0	512	307	
0	0	0	0	0	511	307	
1	0	0	0	0	510	306	
2	0	0	0	0	510	307	
3	0	0	0	0	509	307	
4	0	0	0	0	509	307	
5	0	0	0	0	509	307	
6	0	0	0	0	510	307	
7	0	0	0	0	510	307	
8	0	0	0	0	510	307	
9	0	0	0	0	511	307	
10	0	0	0	0	510	307	
11	0	0	0	0	511	307	
12	0	0	0	0	512	307	
13	0	0	0	0	512	307	
14	0	0	0	0	512	307	
15	0	0	0	0	512	307	
0	0	0	0	0	511	307	
1	0	0	0	0	510	307	
2	0	0	0	0	510	307	
3	0	0	0	0	510	307	
4	0	0	0	0	510	307	
5	0	0	0	0	510	307	
6	0	0	0	0	511	307	
7	0	0	0	0	512	307	
8	0	0	0	0	513	307	
9	0	0	0	0	513	307	
10	0	0	0	0	515	307	
11	0	0	0	0	516	307	
12	0	0	0	0	515	307	
13	0	0	0	0	515	307	
14	0	0	0	0	514	307	
15	0	0	0	0	512	307	
0	0	0	0	0	511	307	
1	0	0	0	0	508	307	
2	0	0	0	0	505	307	
3	0	0	0	0	503	307	
4	0	0	0	0	500	307	
5	0	0	0	0	497	307	
6	0	0	0	0	495	307	
7	0	0	0	0	494	307	
8	0	0	0	0	493	307	
9	0	0	0	0	491	307	
10	0	0	0	0	489	307	
11	0	0	0	0	487	307	
12	0	0	0	0	485	307	
13	0	0	0	0	484	307	
14	0	0	0	0	485	307	
15	0	0	0	0	486	307	
0	0	0	0	0	487	307	
1	0	0	0	0	488	307	
2	0	0	0	0	488	307	
3	0	0	0	0	488	307	
4	0	0	0	0	489	307	
5	0	0	0	0	489	307	
6	0	0	0	0	490	307	
7	0	0	0	0	491	307	
8	0	0	0	0	491	307	
9	0	0	0	0	492	307	
10	0	0	0	0	493	307	
11	0	0	0	0	492	307	
12	0	0	0	0	492	307	
13	0	0	0	0	493	307	
14	0	0	0	0	493	307	
15	0	0	0	0	495	307	
0	0	0	0	0	496	307	
1	0	0	0	0	498	307	
2	0	0	0	0	499	307	
3	0	0	0	0	501	307	
4	0	0	0	0	503	307	
5	0	0	0	0	504	307	
6	0	0	0	0	505	307	
7	0	0	0	0	507	307	
8	0	0	0	0	509	307	
9	0	0	0	0	510	307	
10	0	0	0	0	511	307	
11	0	0	0	0	513	307	
12	0	0	0	0	515	307	
13	0	0	0	0	516	307	
14	0	0	0	0	518	307	
15	0	0	0	0	519	307	
0	0	0	0	0	520	307	
1	0	0	0	0	521	307	
2	0	0	0	0	521	307	
3	0	0	0	0	520	307	
4	0	0	0	0	519	307	
5	0	0	0	0	519	307	
6	0	0	0	0	517	307	
7	0	0	0	0	516	307	
8	0	0	0	0	515	307	
9	0	0	0	0	515	307	
10	0	0	0	0	514	307	
11	0	0	0	0	514	307	
12	0	0	0	0	513	307	
13	0	0	0	0	514	307	
14	0	0	0	0	513	308	
15	0	0	0	0	512	307	
0	0	0	0	0	511	307	
1	0	0	0	0	510	308	
2	0	0	0	0	509	308	
3	0	0	0	0	508	307	
4	0	0	0	0	507	308	
5	0	0	0	0	507	308	
6	0	0	0	0	505	308	
7	0	0	0	0	504	307	
8	0	0	0	0	503	308	
9	0	0	0	0	502	308	
10	0	0	0	0	501	308	
11	0	0	0	0	500	307	
12	0	0	0	0	500	308	
13	0	0	0	0	501	308	
14	0	0	0	0	501	308	
15	0	0	0	0	502	308	
0	0	0	0	0	502	308	
1	0	0	0	0	502	308	
2	0	0	0	0	502	308	
3	0	0	0	0	501	308	
4	0	0	0	0	501	308	
5	0	0	0	0	500	308	
6	0	0	0	0	500	308	
7	0	0	0	0	500	308	
8	0	0	0	0	500	308	
9	0	0	0	0	499	308	
10	0	0	0	0	501	308	
11	0	0	0	0	501	308	
12	0	0	0	0	502	308	
13	0	0	0	0	503	308	
14	0	0	0	0	504	308	
15	0	0	0	0	505	308	
0	0	0	0	0	505	308	
1	0	0	0	0	506	308	
2	0	0	0	0	506	308	
3	0	0	0	0	506	308	
4	0	0	0	0	507	308	
5	0	0	0	0	507	308	
6	0	0	0	0	507	308	
7	0	0	0	0	507	308	
8	0	0	0	0	506	308	
9	0	0	0	0	507	308	
10	0	0	0	0	507	308	
11	0	0	0	0	507	308	
12	0	0	0	0	508	308	
13	0	0	0	0	508	308	
14	0	0	0	0	509	308	
15	0	0	0	0	510	308	
0	0	0	0	0	510	308	
1	0	0	0	0	511	308	
2	0	0	0	0	511	308	
3	0	0	0	0	510	308	
4	0	0	0	0	510	308	
5	0	0	0	0	509	308	
6	0	0	0	0	509	309	
7	0	0	0	0	508	308	
8	0	0	0	0	507	308	
9	0	0	0	0	508	308	
10	0	0	0	0	508	308	
11	0	0	0	0	508	308	
12	0	0	0	0	508	308	
13	0	0	0	0	508	308	
14	0	0	0	0	509	309	
15	0	0	0	0	510	309	
0	0	0	0	0	510	308	
1	0	0	0	0	510	308	
2	0	0	0	0	510	309	
3	0	0	0	0	509	309	
4	0	0	0	0	508	309	
5	0	0	0	0	509	308	
6	0	0	0	0	508	309	
7	0	0	0	0	507	309	
8	0	0	0	0	507	309	
9	0	0	0	0	505	309	
10	0	0	0	0	505	309	
11	0	0	0	0	505	309	
12	0	0	0	0	504	309	
13	0	0	0	0	504	309	
14	0	0	0	0	504	308	
15	0	0	0	0	504	309	
0	0	0	0	0	504	309	
1	0	0	0	0	504	309	
2	0	0	0	0	505	309	
3	0	0	0	0	505	309	
4	0	0	0	0	504	309	
5	0	0	0	0	504	309	
6	0	0	0	0	504	309	
7	0	0	0	0	503	309	
8	0	0	0	0	502	309	
9	0	0	0	0	501	309	
10	0	0	0	0	501	309	
11	0	0	0	0	500	309	
12	0	0	0	0	500	309	
13	0	0	0	0	499	309	
14	0	0	0	0	500	309	
15	0	0	0	0	501	309	
0	0	0	0	0	501	309	
1	0	0	0	0	502	309	
2	0	0	0	0	503	309	
3	0	0	0	0	503	309	
4	0	0	0	0	503	309	
5	0	0	0	0	503	309	
6	0	0	0	0	502	310	
7	0	0	0	0	501	310	
8	0	0	0	0	500	309	
9	0	0	0	0	499	309	
10	0	0	0	0	498	309	
11	0	0	0	0	499	309	
12	0	0	0	0	498	309	
13	0	0	0	0	498	310	
14	0	0	0	0	498	310	
15	0	0	0	0	497	309	
0	0	0	0	0	497	310	
1	0	0	0	0	497	309	
2	0	0	0	0	497	310	
3	0	0	0	0	496	310	
4	0	0	0	0	496	309	
5	0	0	0	0	495	310	
6	0	0	0	0	495	310	
7	0	0	0	0	494	310	
8	0	0	0	0	493	309	
9	0	0	0	0	492	310	
10	0	0	0	0	492	310	
11	0	0	0	0	491	310	
12	0	0	0	0	489	310	
13	0	0	0	0	489	310	
14	0	0	0	0	489	310	
15	0	0	0	0	489	310	
0	0	0	0	0	490	310	
1	0	0	0	0	490	310	
2	0	0	0	0	491	310	
3	0	0	0	0	492	310	
4	0	0	0	0	492	310	
5	0	0	0	0	492	310	
6	0	0	0	0	491	310	
7	0	0	0	0	491	310	
8	0	0	0	0	490	310	
9	0	0	0	0	490	310	
10	0	0	0	0	489	310	
11	0	0	0	0	489	310	
12	0	0	0	0	489	310	
13	0	0	0	0	488	310	
14	0	0	0	0	487	310	
15	0	0	0	0	487	310	
0	0	0	0	0	487	310	
1	0	0	0	0	487	310	
2	0	0	0	0	487	310	
3	0	0	0	0	487	310	
4	0	0	0	0	488	310	
5	0	0	0	0	488	310	
6	0	0	0	0	488	310	
7	0	0	0	0	487	310	
8	0	0	0	0	487	310	
9	0	0	0	0	486	310	
10	0	0	0	0	485	310	
11	0	0	0	0	484	310	
12	0	0	0	0	484	310	
13	0	0	0	0	483	310	
14	0	0	0	0	483	310	
15	0	0	0	0	483	311	
0	0	0	0	0	484	310	
1	0	0	0	0	484	310	
2	0	0	0	0	486	310	
3	0	0	0	0	487	311	
4	0	0	0	0	488	310	
5	0	0	0	0	488	311	
6	0	0	0	0	489	311	
7	0	0	0	0	489	310	
8	0	0	0	0	489	311	
9	0	0	0	0	489	311	
10	0	0	0	0	489	311	
11	0	0	0	0	489	311	
12	0	0	0	0	490	311	
13	0	0	0	0	489	311	
14	0	0	0	0	489	311	
15	0	0	0	0	488	311	
0	0	0	0	0	488	311	
1	0	0	0	0	488	311	
2	0	0	0	0	489	311	
3	0	0	0	0	490	311	
4	0	0	0	0	490	311	
5	0	0	0	0	492	311	
6	0	0	0	0	492	311	
7	0	0	0	0	492	311	
8	0	0	0	0	493	311	
9	0	0	0	0	492	311	
10	0	0	0	0	493	311	
11	0	0	0	0	493	311	
12	0	0	0	0	493	311	
13	0	0	0	0	493	311	
14	0	0	0	0	492	311	
15	0	0	0	0	492	311	
0	0	0	0	0	493	311	
1	0	0	0	0	493	311	
2	0	0	0	0	494	311	
3	0	0	0	0	495	311	
4	0	0	0	0	496	311	
5	0	0	0	0	497	311	
6	0	0	0	0	497	311	
7	0	0	0	0	499	311	
8	0	0	0	0	500	311	
9	0	0	0	0	501	311	
10	0	0	0	0	502	311	
11	0	0	0	0	501	311	
12	0	0	0	0	502	311	
13	0	0	0	0	502	311	
14	0	0	0	0	503	312	
15	0	0	0	0	504	311	
0	0	0	0	0	504	311	
1	0	0	0	0	504	311	
2	0	0	0	0	504	311	
3	0	0	0	0	505	311	
4	0	0	0	0	506	311	
5	0	0	0	0	508	312	
6	0	0	0	0	509	312	
7	0	0	0	0	509	311	
8	0	0	0	0	510	312	
9	0	0	0	0	511	312	
10	0	0	0	0	511	311	
11	0	0	0	0	511	312	
12	0	0	0	0	510	312	
13	0	0	0	0	510	312	
14	0	0	0	0	510	312	
15	0	0	0	0	510	312	
0	0	0	0	0	511	312	
1	0	0	0	0	511	312	
2	0	0	0	0	512	312	
3	0	0	0	0	512	312	
4	0	0	0	0	513	312	
5	0	0	0	0	515	312	
6	0	0	0	0	516	312	
7	0	0	0	0	517	312	
8	0	0	0	0	519	312	
9	0	0	0	0	519	312	
10	0	0	0	0	521	312	
11	0	0	0	0	521	312	
12	0	0	0	0	522	312	
13	0	0	0	0	523	312	
14	0	0	0	0	524	312	
15	0	0	0	0	524	312	
0	0	0	0	0	524	312	
1	0	0	0	0	524	312	
2	0	0	0	0	523	312	
3	0	0	0	0	524	312	
4	0	0	0	0	525	312	
5	0	0	0	0	526	312	
6	0	0	0	0	527	312	
7	0	0	0	0	528	312	
8	0	0	0	0	529	312	
9	0	0	0	0	529	312	
10	0	0	0	0	530	312	
11	0	0	0	0	530	312	
12	0	0	0	0	531	312	
13	0	0	0	0	531	312	
14	0	0	0	0	531	312	
15	0	0	0	0	530	312	
0	0	0	0	0	530	312	
1	0	0	0	0	529	312	
2	0	0	0	0	529	312	
3	0	0	0	0	530	312	
4	0	0	0	0	530	312	
5	0	0	0	0	531	312	
6	0	0	0	0	532	312	
7	0	0	0	0	532	312	
8	0	0	0	0	533	313	
9	0	0	0	0	533	313	
10	0	0	0	0	534	312	
11	0	0	0	0	534	312	
12	0	0	0	0	534	313	
13	0	0	0	0	534	313	
14	0	0	0	0	534	313	
15	0	0	0	0	533	312	
0	0	0	0	0	533	313	
1	0	0	0	0	532	313	
2	0	0	0	0	532	313	
3	0	0	0	0	532	312	
4	0	0	0	0	532	313	
5	0	0	0	0	532	313	
6	0	0	0	0	533	313	
7	0	0	0	0	535	313	
8	0	0	0	0	535	313	
9	0	0	0	0	535	313	
10	0	0	0	0	536	313	
11	0	0	0	0	536	313	
12	0	0	0	0	536	313	
13	0	0	0	0	537	313	
14	0	0	0	0	537	313	
15	0	0	0	0	536	313	
0	0	0	0	0	536	313	
1	0	0	0	0	536	313	
2	0	0	0	0	536	313	
3	0	0	0	0	535	313	
4	0	0	0	0	535	313	
5	0	0	0	0	535	313	
6	0	0	0	0	535	313	
7	0	0	0	0	535	313	
8	0	0	0	0	536	313	
9	0	0	0	0	536	313	
10	0	0	0	0	537	313	
11	0	0	0	0	537	313	
12	0	0	0	0	537	313	
13	0	0	0	0	537	313	
14	0	0	0	0	536	313	
15	0	0	0	0	536	313	
0	0	0	0	0	535	313	
1	0	0	0	0	533	314	
2	0	0	0	0	533	314	
3	0	0	0	0	534	313	
4	0	0	0	0	533	313	
5	0	0	0	0	534	314	
6	0	0	0	0	534	313	
7	0	0	0	0	534	314	
8	0	0	0	0	535	314	
9	0	0	0	0	536	314	
10	0	0	0	0	537	314	
11	0	0	0	0	538	314	
12	0	0	0	0	539	314	
13	0	0	0	0	538	314	
14	0	0	0	0	537	314	
15	0	0	0	0	536	314	
0	0	0	0	0	535	314	
1	0	0	0	0	534	314	
2	0	0	0	0	533	314	
3	0	0	0	0	532	314	
4	0	0	0	0	531	314	
5	0	0	0	0	530	314	
6	0	0	0	0	530	314	
7	0	0	0	0	529	314	
8	0	0	0	0	529	314	
9	0	0	0	0	529	314	
10	0	0	0	0	530	314	
11	0	0	0	0	530	315	
12	0	0	0	0	530	314	
13	0	0	0	0	529	314	
14	0	0	0	0	528	315	
15	0	0	0	0	527	315	
0	0	0	0	0	527	314	
1	0	0	0	0	526	315	
2	0	0	0	0	525	315	
3	0	0	0	0	525	315	
4	0	0	0	0	524	314	
5	0	0	0	0	523	315	
6	0	0	0	0	523	315	
7	0	0	0	0	523	314	
8	0	0	0	0	523	314	
9	0	0	0	0	523	315	
10	0	0	0	0	523	315	
11	0	0	0	0	524	315	
12	0	0	0	0	524	315	
13	0	0	0	0	524	315	
14	0	0	0	0	524	315	
15	0	0	0	0	524	315	
0	0	0	0	0	524	315	
1	0	0	0	0	523	315	
2	0	0	0	0	523	315	
3	0	0	0	0	521	315	
4	0	0	0	0	520	315	
5	0	0	0	0	520	315	
6	0	0	0	0	519	315	
7	0	0	0	0	519	315	
8	0	0	0	0	519	315	
9	0	0	0	0	520	315	
10	0	0	0	0	520	315	
11	0	0	0	0	521	315	
12	0	0	0	0	522	315	
13	0	0	0	0	523	315	
14	0	0	0	0	523	316	
15	0	0	0	0	523	315	
0	0	0	0	0	522	315	
1	0	0	0	0	522	315	
2	0	0	0	0	521	315	
3	0	0	0	0	520	315	
4	0	0	0	0	519	316	
5	0	0	0	0	519	315	
6	0	0	0	0	519	315	
7	0	0	0	0	519	315	
8	0	0	0	0	519	316	
9	0	0	0	0	519	315	
10	0	0	0	0	520	315	
11	0	0	0	0	522	316	
12	0	0	0	0	523	316	
13	0	0	0	0	522	315	
14	0	0	0	0	523	316	
15	0	0	0	0	522	316	
0	0	0	0	0	521	316	
1	0	0	0	0	520	316	
2	0	0	0	0	520	316	
3	0	0	0	0	519	316	
4	0	0	0	0	518	316	
5	0	0	0	0	517	316	
6	0	0	0	0	516	316	
7	0	0	0	0	515	316	
8	0	0	0	0	515	316	
9	0	0	0	0	515	316	
10	0	0	0	0	515	316	
11	0	0	0	0	515	316	
12	0	0	0	0	515	316	
13	0	0	0	0	515	316	
14	0	0	0	0	515	316	
15	0	0	0	0	515	316	
0	0	0	0	0	515	316	
1	0	0	0	0	515	316	
2	0	0	0	0	514	316	
3	0	0	0	0	513	316	
4	0	0	0	0	513	316	
5	0	0	0	0	512	316	
6	0	0	0	0	512	316	
7	0	0	0	0	512	316	
8	0	0	0	0	511	316	
9	0	0	0	0	511	316	
10	0	0	0	0	511	317	
11	0	0	0	0	512	316	
12	0	0	0	0	512	316	
13	0	0	0	0	512	316	
14	0	0	0	0	513	317	
15	0	0	0	0	513	317	
0	0	0	0	0	513	316	
1	0	0	0	0	513	317	
2	0	0	0	0	512	317	
3	0	0	0	0	512	317	
4	0	0	0	0	512	317	
5	0	0	0	0	512	317	
6	0	0	0	0	513	317	
7	0	0	0	0	513	317	
8	0	0	0	0	513	317	
9	0	0	0	0	513	317	
10	0	0	0	0	513	317	
11	0	0	0	0	515	317	
12	0	0	0	0	516	317	
13	0	0	0	0	517	317	
14	0	0	0	0	518	317	
15	0	0	0	0	518	317	
0	0	0	0	0	518	317	
1	0	0	0	0	517	317	
2	0	0	0	0	517	317	
3	0	0	0	0	518	317	
4	0	0	0	0	517	317	
5	0	0	0	0	516	318	
6	0	0	0	0	515	317	
7	0	0	0	0	515	318	
8	0	0	0	0	514	318	
9	0	0	0	0	513	317	
10	0	0	0	0	514	317	
11	0	0	0	0	513	318	
12	0	0	0	0	514	318	
13	0	0	0	0	514	317	
14	0	0	0	0	514	318	
15	0	0	0	0	515	318	
0	0	0	0	0	516	318	
1	0	0	0	0	517	318	
2	0	0	0	0	517	318	
3	0	0	0	0	517	318	
4	0	0	0	0	516	318	
5	0	0	0	0	515	318	
6	0	0	0	0	515	318	
7	0	0	0	0	515	318	
8	0	0	0	0	515	318	
9	0	0	0	0	514	318	
10	0	0	0	0	513	318	
11	0	0	0	0	513	318	
12	0	0	0	0	512	318	
13	0	0	0	0	512	318	
14	0	0	0	0	512	318	
15	0	0	0	0	512	318	
0	0	0	0	0	512	318	
1	0	0	0	0	512	318	
2	0	0	0	0	513	318	
3	0	0	0	0	513	318	
4	0	0	0	0	513	318	
5	0	0	0	0	512	318	
6	0	0	0	0	512	318	
7	0	0	0	0	512	318	
8	0	0	0	0	512	318	
9	0	0	0	0	511	319	
10	0	0	0	0	511	318	
11	0	0	0	0	511	318	
12	0	0	0	0	510	319	
13	0	0	0	0	511	319	
14	0	0	0	0	511	319	
15	0	0	0	0	511	318	
0	0	0	0	0	511	319	
1	0	0	0	0	511	319	
2	0	0	0	0	511	319	
3	0	0	0	0	511	319	
4	0	0	0	0	511	319	
5	0	0	0	0	511	319	
6	0	0	0	0	512	319	
7	0	0	0	0	512	319	
8	0	0	0	0	511	319	
9	0	0	0	0	511	319	
10	0	0	0	0	510	319	
11	0	0	0	0	509	319	
12	0	0	0	0	509	319	
13	0	0	0	0	508	319	
14	0	0	0	0	508	319	
15	0	0	0	0	508	319	
0	0	0	0	0	508	319	
1	0	0	0	0	509	319	
2	0	0	0	0	509	319	
3	0	0	0	0	510	319	
4	0	0	0	0	511	319	
5	0	0	0	0	511	319	
6	0	0	0	0	511	319	
7	0	0	0	0	510	319	
8	0	0	0	0	510	319	
9	0	0	0	0	510	319	
10	0	0	0	0	509	319	
11	0	0	0	0	509	319	
12	0	0	0	0	508	319	
13	0	0	0	0	508	319	
14	0	0	0	0	508	319	
15	0	0	0	0	508	319	
0	0	0	0	0	508	319	
1	0	0	0	0	508	319	
2	0	0	0	0	510	320	
3	0	0	0	0	510	319	
4	0	0	0	0	511	320	
5	0	0	0	0	511	320	
6	0	0	0	0	511	320	
7	0	0	0	0	511	319	
8	0	0	0	0	512	320	
9	0	0	0	0	512	320	
10	0	0	0	0	511	320	
11	0	0	0	0	511	320	
12	0	0	0	0	511	320	
13	0	0	0	0	510	320	
14	0	0	0	0	510	320	
15	0	0	0	0	510	320	
0	0	0	0	0	510	320	
1	0	0	0	0	511	320	
2	0	0	0	0	511	320	
3	0	0	0	0	511	320	
4	0	0	0	0	511	320	
5	0	0	0	0	512	320	
6	0	0	0	0	511	320	
7	0	0	0	0	511	320	
8	0	0	0	0	510	320	
9	0	0	0	0	510	320	
10	0	0	0	0	509	320	
11	0	0	0	0	507	320	
12	0	0	0	0	506	321	
13	0	0	0	0	505	320	
14	0	0	0	0	505	321	
15	0	0	0	0	506	321	
0	0	0	0	0	507	321	
1	0	0	0	0	507	320	
2	0	0	0	0	507	321	
3	0	0	0	0	508	321	
4	0	0	0	0	508	320	
5	0	0	0	0	509	321	
6	0	0	0	0	508	321	
7	0	0	0	0	509	321	
8	0	0	0	0	509	321	
9	0	0	0	0	508	321	
10	0	0	0	0	508	321	
11	0	0	0	0	507	321	
12	0	0	0	0	507	321	
13	0	0	0	0	506	321	
14	0	0	0	0	505	321	
15	0	0	0	0	505	321	
0	0	0	0	0	505	321	
1	0	0	0	0	505	321	
2	0	0	0	0	506	321	
3	0	0	0	0	506	321	
4	0	0	0	0	508	321	
5	0	0	0	0	508	321	
6	0	0	0	0	508	321	
7	0	0	0	0	508	321	
8	0	0	0	0	508	321	
9	0	0	0	0	508	321	
10	0	0	0	0	507	321	
11	0	0	0	0	506	321	
12	0	0	0	0	506	321	
13	0	0	0	0	505	321	
14	0	0	0	0	505	322	
15	0	0	0	0	504	321	
0	0	0	0	0	504	322	
1	0	0	0	0	504	322	
2	0	0	0	0	504	321	
3	0	0	0	0	505	321	
4	0	0	0	0	506	322	
5	0	0	0	0	506	322	
6	0	0	0	0	507	322	
7	0	0	0	0	508	322	
8	0	0	0	0	508	322	
9	0	0	0	0	507	322	
10	0	0	0	0	507	322	
11	0	0	0	0	507	322	
12	0	0	0	0	507	322	
13	0	0	0	0	507	322	
14	0	0	0	0	507	322	
15	0	0	0	0	508	322	
0	0	0	0	0	508	322	
1	0	0	0	0	508	322	
2	0	0	0	0	509	322	
3	0	0	0	0	509	322	
4	0	0	0	0	509	322	
5	0	0	0	0	510	322	
6	0	0	0	0	509	322	
7	0	0	0	0	509	323	
8	0	0	0	0	509	323	
9	0	0	0	0	508	322	
10	0	0	0	0	509	323	
11	0	0	0	0	509	323	
12	0	0	0	0	508	323	
13	0	0	0	0	507	323	
14	0	0	0	0	507	323	
15	0	0	0	0	507	323	
0	0	0	0	0	507	322	
1	0	0	0	0	508	323	
2	0	0	0	0	508	323	
3	0	0	0	0	508	323	
4	0	0	0	0	509	323	
5	0	0	0	0	509	323	
6	0	0	0	0	510	323	
7	0	0	0	0	510	323	
8	0	0	0	0	510	323	
9	0	0	0	0	510	323	
10	0	0	0	0	510	323	
11	0	0	0	0	511	323	
12	0	0	0	0	512	323	
13	0	0	0	0	512	323	
14	0	0	0	0	511	323	
15	0	0	0	0	511	323	
0	0	0	0	0	512	323	
1	0	0	0	0	511	323	
2	0	0	0	0	512	323	
3	0	0	0	0	512	323	
4	0	0	0	0	513	323	
5	0	0	0	0	514	323	
6	0	0	0	0	515	323	
7	0	0	0	0	516	323	
8	0	0	0	0	517	323	
9	0	0	0	0	518	323	
10	0	0	0	0	517	323	
11	0	0	0	0	517	323	
12	0	0	0	0	517	323	
13	0	0	0	0	517	324	
14	0	0	0	0	517	324	
15	0	0	0	0	517	324	
0	0	0	0	0	517	323	
1	0	0	0	0	517	324	
2	0	0	0	0	517	324	
3	0	0	0	0	516	323	
4	0	0	0	0	517	324	
5	0	0	0	0	519	324	
6	0	0	0	0	520	324	
7	0	0	0	0	521	324	
8	0	0	0	0	521	324	
9	0	0	0	0	521	324	
10	0	0	0	0	520	324	
11	0	0	0	0	520	324	
12	0	0	0	0	519	324	
13	0	0	0	0	519	324	
14	0	0	0	0	518	324	
15	0	0	0	0	517	324	
0	0	0	0	0	516	324	
1	0	0	0	0	515	324	
2	0	0	0	0	515	324	
3	0	0	0	0	515	324	
4	0	0	0	0	514	324	
5	0	0	0	0	514	324	
6	0	0	0	0	515	324	
7	0	0	0	0	516	324	
8	0	0	0	0	517	324	
9	0	0	0	0	517	324	
10	0	0	0	0	518	324	
11	0	0	0	0	518	324	
12	0	0	0	0	518	324	
13	0	0	0	0	518	324	
14	0	0	0	0	517	325	
15	0	0	0	0	516	325	
0	0	0	0	0	515	325	
1	0	0	0	0	514	324	
2	0	0	0	0	513	325	
3	0	0	0	0	513	325	
4	0	0	0	0	514	325	
5	0	0	0	0	514	325	
6	0	0	0	0	515	324	
7	0	0	0	0	515	325	
8	0	0	0	0	516	325	
9	0	0	0	0	516	325	
10	0	0	0	0	517	325	
11	0	0	0	0	517	325	
12	0	0	0	0	517	325	
13	0	0	0	0	516	325	
14	0	0	0	0	516	325	
15	0	0	0	0	516	325	
0	0	0	0	0	515	325	
1	0	0	0	0	514	325	
2	0	0	0	0	513	325	
3	0	0	0	0	512	325	
4	0	0	0	0	511	325	
5	0	0	0	0	511	325	
6	0	0	0	0	513	326	
7	0	0	0	0	514	326	
8	0	0	0	0	515	326	
9	0	0	0	0	516	325	
10	0	0	0	0	517	326	
11	0	0	0	0	518	326	
12	0	0	0	0	518	326	
13	0	0	0	0	518	326	
14	0	0	0	0	518	326	
15	0	0	0	0	518	326	
0	0	0	0	0	517	326	
1	0	0	0	0	516	326	
2	0	0	0	0	515	326	
3	0	0	0	0	513	326	
4	0	0	0	0	512	326	
5	0	0	0	0	512	326	
6	0	0	0	0	511	326	
7	0	0	0	0	512	326	
8	0	0	0	0	513	326	
9	0	0	0	0	513	326	
10	0	0	0	0	515	326	
11	0	0	0	0	515	326	
12	0	0	0	0	515	326	
13	0	0	0	0	515	326	
14	0	0	0	0	515	326	
15	0	0	0	0	515	326	
0	0	0	0	0	515	326	
1	0	0	0	0	515	326	
2	0	0	0	0	516	326	
3	0	0	0	0	515	326	
4	0	0	0	0	515	327	
5	0	0	0	0	515	326	
6	0	0	0	0	515	326	
7	0	0	0	0	515	326	
8	0	0	0	0	515	326	
9	0	0	0	0	516	326	
10	0	0	0	0	518	327	
11	0	0	0	0	519	327	
12	0	0	0	0	519	327	
13	0	0	0	0	519	327	
14	0	0	0	0	520	327	
15	0	0	0	0	521	327	
0	0	0	0	0	521	327	
1	0	0	0	0	521	327	
2	0	0	0	0	520	327	
3	0	0	0	0	520	327	
4	0	0	0	0	520	327	
5	0	0	0	0	520	327	
6	0	0	0	0	520	327	
7	0	0	0	0	520	327	
8	0	0	0	0	520	327	
9	0	0	0	0	520	327	
10	0	0	0	0	520	327	
11	0	0	0	0	521	327	
12	0	0	0	0	521	327	
13	0	0	0	0	521	327	
14	0	0	0	0	520	327	
15	0	0	0	0	521	327	
0	0	0	0	0	521	327	
1	0	0	0	0	520	327	
2	0	0	0	0	520	327	
3	0	0	0	0	519	327	
4	0	0	0	0	518	327	
5	0	0	0	0	517	327	
6	0	0	0	0	516	327	
7	0	0	0	0	515	327	
8	0	0	0	0	515	327	
9	0	0	0	0	515	327	
10	0	0	0	0	516	327	
11	0	0	0	0	517	327	
12	0	0	0	0	518	327	
13	0	0	0	0	518	327	
14	0	0	0	0	518	327	
15	0	0	0	0	518	327	
0	0	0	0	0	518	327	
1	0	0	0	0	518	327	
2	0	0	0	0	518	327	
3	0	0	0	0	518	328	
4	0	0	0	0	518	328	
5	0	0	0	0	517	327	
6	0	0	0	0	517	328	
7	0	0	0	0	516	327	
8	0	0	0	0	516	328	
9	0	0	0	0	515	328	
10	0	0	0	0	516	328	
11	0	0	0	0	516	328	
12	0	0	0	0	516	327	
13	0	0	0	0	516	328	
14	0	0	0	0	517	328	
15	0	0	0	0	517	328	
0	0	0	0	0	518	328	
1	0	0	0	0	517	328	
2	0	0	0	0	518	328	
3	0	0	0	0	518	328	
4	0	0	0	0	518	328	
5	0	0	0	0	516	328	
6	0	0	0	0	515	328	
7	0	0	0	0	513	328	
8	0	0	0	0	513	328	
9	0	0	0	0	513	328	
10	0	0	0	0	514	328	
11	0	0	0	0	514	328	
12	0	0	0	0	515	328	
13	0	0	0	0	515	328	
14	0	0	0	0	516	328	
15	0	0	0	0	517	328	
0	0	0	0	0	516	328	
1	0	0	0	0	516	328	
2	0	0	0	0	515	329	
3	0	0	0	0	515	329	
4	0	0	0	0	515	329	
5	0	0	0	0	515	328	
6	0	0	0	0	514	329	
7	0	0	0	0	515	329	
8	0	0	0	0	515	329	
9	0	0	0	0	515	329	
10	0	0	0	0	515	329	
11	0	0	0	0	516	329	
12	0	0	0	0	516	329	
13	0	0	0	0	517	329	
14	0	0	0	0	518	329	
15	0	0	0	0	519	329	
0	0	0	0	0	518	329	
1	0	0	0	0	518	329	
2	0	0	0	0	518	329	
3	0	0	0	0	519	329	
4	0	0	0	0	518	329	
5	0	0	0	0	517	329	
6	0	0	0	0	516	329	
7	0	0	0	0	515	329	
8	0	0	0	0	515	329	
9	0	0	0	0	515	329	
10	0	0	0	0	515	329	
11	0	0	0	0	515	329	
12	0	0	0	0	515	329	
13	0	0	0	0	517	329	
14	0	0	0	0	518	329	
15	0	0	0	0	519	329	
0	0	0	0	0	519	329	
1	0	0	0	0	518	329	
2	0	0	0	0	518	329	
3	0	0	0	0	518	329	
4	0	0	0	0	517	329	
5	0	0	0	0	516	329	
6	0	0	0	0	516	329	
7	0	0	0	0	516	330	
8	0	0	0	0	515	330	
9	0	0	0	0	515	329	
10	0	0	0	0	515	330	
11	0	0	0	0	515	330	
12	0	0	0	0	515	330	
13	0	0	0	0	516	330	
14	0	0	0	0	516	330	
15	0	0	0	0	517	330	
0	0	0	0	0	516	330	
1	0	0	0	0	516	330	
2	0	0	0	0	516	330	
3	0	0	0	0	515	330	
4	0	0	0	0	515	330	
5	0	0	0	0	515	330	
6	0	0	0	0	515	330	
7	0	0	0	0	514	330	
8	0	0	0	0	515	330	
9	0	0	0	0	514	330	
10	0	0	0	0	513	330	
11	0	0	0	0	512	330	
12	0	0	0	0	512	330	
13	0	0	0	0	512	330	
14	0	0	0	0	512	330	
15	0	0	0	0	512	331	
0	0	0	0	0	512	330	
1	0	0	0	0	512	331	
2	0	0	0	0	511	330	
3	0	0	0	0	510	330	
4	0	0	0	0	509	330	
5	0	0	0	0	508	331	
6	0	0	0	0	508	331	
7	0	0	0	0	507	331	
8	0	0	0	0	507	331	
9	0	0	0	0	506	331	
10	0	0	0	0	505	331	
11	0	0	0	0	504	331	
12	0	0	0	0	504	331	
13	0	0	0	0	504	331	
14	0	0	0	0	504	331	
15	0	0	0	0	505	331	
0	0	0	0	0	505	331	
1	0	0	0	0	506	331	
2	0	0	0	0	507	331	
3	0	0	0	0	507	331	
4	0	0	0	0	507	331	
5	0	0	0	0	507	331	
6	0	0	0	0	507	331	
7	0	0	0	0	506	331	
8	0	0	0	0	505	331	
9	0	0	0	0	506	331	
10	0	0	0	0	505	331	
11	0	0	0	0	504	331	
12	0	0	0	0	504	331	
13	0	0	0	0	504	331	
14	0	0	0	0	505	331	
15	0	0	0	0	506	331	
0	0	0	0	0	507	331	
1	0	0	0	0	508	331	
2	0	0	0	0	508	331	
3	0	0	0	0	508	331	
4	0	0	0	0	507	331	
5	0	0	0	0	504	331	
6	0	0	0	0	502	332	
7	0	0	0	0	500	331	
8	0	0	0	0	498	332	
9	0	0	0	0	496	332	
10	0	0	0	0	495	331	
11	0	0	0	0	492	332	
12	0	0	0	0	490	332	
13	0	0	0	0	487	331	
14	0	0	0	0	486	332	
15	0	0	0	0	484	332	
0	0	0	0	0	483	332	
1	0	0	0	0	481	332	
2	0	0	0	0	479	332	
3	0	0	0	0	477	332	
4	0	0	0	0	476	332	
5	0	0	0	0	476	332	
6	0	0	0	0	476	332	
7	0	0	0	0	478	332	
8	0	0	0	0	478	332	
9	0	0	0	0	480	332	
10	0	0	0	0	480	332	
11	0	0	0	0	480	332	
12	0	0	0	0	480	332	
13	0	0	0	0	482	332	
14	0	0	0	0	483	332	
15	0	0	0	0	483	332	
0	0	0	0	0	483	332	
1	0	0	0	0	485	332	
2	0	0	0	0	485	332	
3	0	0	0	0	486	332	
4	0	0	0	0	486	332	
5	0	0	0	0	486	332	
6	0	0	0	0	487	332	
7	0	0	0	0	489	332	
8	0	0	0	0	492	332	
9	0	0	0	0	494	332	
10	0	0	0	0	496	332	
11	0	0	0	0	499	332	
12	0	0	0	0	500	332	
13	0	0	0	0	501	332	
14	0	0	0	0	503	332	
15	0	0	0	0	504	332	
0	0	0	0	0	505	332	
1	0	0	0	0	507	332	
2	0	0	0	0	509	332	
3	0	0	0	0	511	332	
4	0	0	0	0	512	332	
5	0	0	0	0	514	332	
6	0	0	0	0	515	332	
7	0	0	0	0	515	332	
8	0	0	0	0	515	333	
9	0	0	0	0	515	332	
10	0	0	0	0	515	332	
11	0	0	0	0	515	333	
12	0	0	0	0	515	333	
13	0	0	0	0	514	333	
14	0	0	0	0	514	333	
15	0	0	0	0	514	333	
0	0	0	0	0	513	333	
1	0	0	0	0	512	332	
2	0	0	0	0	513	333	
3	0	0	0	0	513	333	
4	0	0	0	0	514	333	
5	0	0	0	0	513	333	
6	0	0	0	0	513	333	
7	0	0	0	0	512	333	
8	0	0	0	0	512	333	
9	0	0	0	0	511	333	
10	0	0	0	0	510	333	
11	0	0	0	0	509	333	
12	0	0	0	0	508	333	
13	0	0	0	0	507	333	
14	0	0	0	0	506	333	
15	0	0	0	0	505	333	
0	0	0	0	0	504	333	
1	0	0	0	0	504	333	
2	0	0	0	0	504	333	
3	0	0	0	0	504	333	
4	0	0	0	0	504	333	
5	0	0	0	0	504	333	
6	0	0	0	0	504	333	
7	0	0	0	0	504	333	
8	0	0	0	0	504	334	
9	0	0	0	0	505	334	
10	0	0	0	0	505	334	
11	0	0	0	0	505	334	
12	0	0	0	0	504	334	
13	0	0	0	0	504	334	
14	0	0	0	0	504	333	
15	0	0	0	0	503	334	
0	0	0	0	0	503	334	
1	0	0	0	0	502	333	
2	0	0	0	0	502	334	
3	0	0	0	0	502	334	
4	0	0	0	0	503	334	
5	0	0	0	0	504	334	
6	0	0	0	0	504	334	
7	0	0	0	0	505	334	
8	0	0	0	0	506	334	
9	0	0	0	0	507	334	
10	0	0	0	0	506	334	
11	0	0	0	0	505	334	
12	0	0	0	0	505	334	
13	0	0	0	0	504	334	
14	0	0	0	0	504	334	
15	0	0	0	0	503	334	
0	0	0	0	0	503	334	
1	0	0	0	0	502	334	
2	0	0	0	0	503	334	
3	0	0	0	0	502	334	
4	0	0	0	0	503	334	
5	0	0	0	0	503	334	
6	0	0	0	0	504	334	
7	0	0	0	0	504	334	
8	0	0	0	0	504	334	
9	0	0	0	0	504	334	
10	0	0	0	0	504	334	
11	0	0	0	0	503	334	
12	0	0	0	0	503	334	
13	0	0	0	0	503	334	
14	0	0	0	0	502	334	
15	0	0	0	0	501	334	
0	0	0	0	0	501	334	
1	0	0	0	0	501	334	
2	0	0	0	0	499	334	
3	0	0	0	0	500	334	
4	0	0	0	0	500	334	
5	0	0	0	0	500	334	
6	0	0	0	0	502	334	
7	0	0	0	0	502	334	
8	0	0	0	0	503	335	
9	0	0	0	0	503	335	
10	0	0	0	0	503	335	
11	0	0	0	0	502	335	
12	0	0	0	0	502	335	
13	0	0	0	0	502	335	
14	0	0	0	0	501	335	
15	0	0	0	0	501	335	
0	0	0	0	0	499	335	
1	0	0	0	0	499	335	
2	0	0	0	0	498	335	
3	0	0	0	0	497	335	
4	0	0	0	0	497	335	
5	0	0	0	0	498	335	
6	0	0	0	0	498	335	
7	0	0	0	0	499	335	
8	0	0	0	0	499	335	
9	0	0	0	0	499	335	
10	0	0	0	0	499	335	
11	0	0	0	0	498	335	
12	0	0	0	0	498	335	
13	0	0	0	0	497	335	
14	0	0	0	0	497	335	
15	0	0	0	0	497	335	
0	0	0	0	0	497	335	
1	0	0	0	0	496	335	
2	0	0	0	0	496	335	
3	0	0	0	0	496	335	
4	0	0	0	0	495	335	
5	0	0	0	0	495	335	
6	0	0	0	0	495	335	
7	0	0	0	0	496	335	
8	0	0	0	0	497	335	
9	0	0	0	0	496	335	
10	0	0	0	0	497	335	
11	0	0	0	0	497	335	
12	0	0	0	0	497	335	
13	0	0	0	0	497	335	
14	0	0	0	0	496	335	
15	0	0	0	0	497	335	
0	0	0	0	0	496	335	
1	0	0	0	0	496	335	
2	0	0	0	0	495	335	
3	0	0	0	0	495	335	
4	0	0	0	0	495	335	
5	0	0	0	0	496	335	
6	0	0	0	0	497	335	
7	0	0	0	0	498	336	
8	0	0	0	0	498	335	
9	0	0	0	0	499	336	
10	0	0	0	0	500	335	
11	0	0	0	0	500	335	
12	0	0	0	0	500	336	
13	0	0	0	0	499	336	
14	0	0	0	0	499	336	
15	0	0	0	0	498	336	
0	0	0	0	0	497	335	
1	0	0	0	0	497	336	
2	0	0	0	0	497	336	
3	0	0	0	0	497	336	
4	0	0	0	0	497	336	
5	0	0	0	0	496	336	
6	0	0	0	0	497	336	
7	0	0	0	0	497	336	
8	0	0	0	0	498	336	
9	0	0	0	0	499	336	
10	0	0	0	0	500	336	
11	0	0	0	0	500	336	
12	0	0	0	0	500	336	
13	0	0	0	0	500	336	
14	0	0	0	0	500	336	
15	0	0	0	0	500	336	
0	0	0	0	0	499	336	
1	0	0	0	0	499	336	
2	0	0	0	0	497	336	
3	0	0	0	0	495	336	
4	0	0	0	0	494	336	
5	0	0	0	0	493	336	
6	0	0	0	0	493	336	
7	0	0	0	0	492	336	
8	0	0	0	0	492	336	
9	0	0	0	0	492	336	
10	0	0	0	0	492	336	
11	0	0	0	0	492	336	
12	0	0	0	0	493	336	
13	0	0	0	0	493	336	
14	0	0	0	0	492	336	
15	0	0	0	0	492	336	
0	0	0	0	0	492	336	
1	0	0	0	0	492	336	
2	0	0	0	0	492	336	
3	0	0	0	0	492	336	
4	0	0	0	0	492	336	
5	0	0	0	0	492	336	
6	0	0	0	0	493	336	
7	0	0	0	0	494	337	
8	0	0	0	0	494	336	
9	0	0	0	0	495	337	
10	0	0	0	0	496	336	
11	0	0	0	0	497	337	
12	0	0	0	0	499	336	
13	0	0	0	0	499	337	
14	0	0	0	0	499	337	
15	0	0	0	0	499	337	
0	0	0	0	0	499	337	
1	0	0	0	0	499	337	
2	0	0	0	0	499	337	
3	0	0	0	0	499	337	
4	0	0	0	0	499	337	
5	0	0	0	0	499	337	
6	0	0	0	0	498	337	
7	0	0	0	0	498	337	
8	0	0	0	0	499	337	
9	0	0	0	0	499	337	
10	0	0	0	0	500	337	
11	0	0	0	0	501	337	
12	0	0	0	0	502	337	
13	0	0	0	0	503	337	
14	0	0	0	0	504	337	
15	0	0	0	0	504	337	
0	0	0	0	0	504	337	
1	0	0	0	0	504	337	
2	0	0	0	0	503	337	
3	0	0	0	0	503	337	
4	0	0	0	0	504	337	
5	0	0	0	0	504	337	
6	0	0	0	0	505	337	
7	0	0	0	0	505	337	
8	0	0	0	0	506	337	
9	0	0	0	0	506	337	
10	0	0	0	0	507	337	
11	0	0	0	0	508	337	
12	0	0	0	0	509	337	
13	0	0	0	0	510	337	
14	0	0	0	0	511	337	
15	0	0	0	0	511	337	
0	0	0	0	0	511	337	
1	0	0	0	0	512	337	
2	0	0	0	0	512	337	
3	0	0	0	0	512	338	
4	0	0	0	0	512	337	
5	0	0	0	0	511	337	
6	0	0	0	0	511	337	
7	0	0	0	0	511	337	
8	0	0	0	0	510	337	
9	0	0	0	0	511	337	
10	0	0	0	0	511	337	
11	0	0	0	0	512	337	
12	0	0	0	0	513	337	
13	0	0	0	0	514	337	
14	0	0	0	0	515	337	
15	0	0	0	0	515	337	
0	0	0	0	0	516	338	
1	0	0	0	0	516	338	
2	0	0	0	0	516	337	
3	0	0	0	0	516	338	
4	0	0	0	0	516	337	
5	0	0	0	0	516	338	
6	0	0	0	0	517	338	
7	0	0	0	0	518	338	
8	0	0	0	0	518	337	
9	0	0	0	0	518	338	
10	0	0	0	0	519	338	
11	0	0	0	0	519	337	
12	0	0	0	0	521	338	
13	0	0	0	0	521	338	
14	0	0	0	0	522	338	
15	0	0	0	0	524	338	
0	0	0	0	0	524	338	
1	0	0	0	0	524	338	
2	0	0	0	0	524	338	
3	0	0	0	0	524	338	
4	0	0	0	0	525	338	
5	0	0	0	0	524	338	
6	0	0	0	0	524	338	
7	0	0	0	0	524	338	
8	0	0	0	0	524	338	
9	0	0	0	0	526	338	
10	0	0	0	0	527	338	
11	0	0	0	0	527	338	
12	0	0	0	0	528	338	
13	0	0	0	0	529	338	
14	0	0	0	0	529	338	
15	0	0	0	0	530	338	
0	0	0	0	0	530	338	
1	0	0	0	0	530	338	
2	0	0	0	0	530	338	
3	0	0	0	0	530	339	
4	0	0	0	0	530	338	
5	0	0	0	0	529	338	
6	0	0	0	0	529	338	
7	0	0	0	0	528	338	
8	0	0	0	0	528	338	
9	0	0	0	0	528	338	
10	0	0	0	0	528	338	
11	0	0	0	0	528	338	
12	0	0	0	0	528	338	
13	0	0	0	0	528	338	
14	0	0	0	0	529	338	
15	0	0	0	0	529	338	
0	0	0	0	0	529	338	
1	0	0	0	0	529	338	
2	0	0	0	0	529	338	
3	0	0	0	0	529	339	
4	0	0	0	0	528	338	
5	0	0	0	0	528	339	
6	0	0	0	0	527	339	
7	0	0	0	0	527	338	
8	0	0	0	0	526	339	
9	0	0	0	0	526	339	
10	0	0	0	0	525	339	
11	0	0	0	0	525	338	
12	0	0	0	0	526	339	
13	0	0	0	0	526	339	
14	0	0	0	0	526	339	
15	0	0	0	0	526	339	
0	0	0	0	0	526	338	
1	0	0	0	0	527	339	
2	0	0	0	0	526	339	
3	0	0	0	0	526	339	
4	0	0	0	0	526	339	
5	0	0	0	0	525	339	
6	0	0	0	0	524	339	
7	0	0	0	0	524	339	
8	0	0	0	0	523	339	
9	0	0	0	0	522	339	
10	0	0	0	0	521	339	
11	0	0	0	0	520	339	
12	0	0	0	0	520	339	
13	0	0	0	0	519	339	
14	0	0	0	0	520	339	
15	0	0	0	0	521	339	
0	0	0	0	0	522	339	
1	0	0	0	0	522	339	
2	0	0	0	0	522	339	
3	0	0	0	0	521	339	
4	0	0	0	0	520	339	
5	0	0	0	0	520	339	
6	0	0	0	0	519	339	
7	0	0	0	0	518	339	
8	0	0	0	0	517	339	
9	0	0	0	0	516	339	
10	0	0	0	0	515	339	
11	0	0	0	0	514	339	
12	0	0	0	0	514	339	
13	0	0	0	0	513	339	
14	0	0	0	0	513	339	
15	0	0	0	0	513	339	
0	0	0	0	0	513	339	
1	0	0	0	0	514	339	
2	0	0	0	0	513	339	
3	0	0	0	0	512	339	
4	0	0	0	0	512	339	
5	0	0	0	0	512	339	
6	0	0	0	0	511	339	
7	0	0	0	0	511	339	
8	0	0	0	0	510	339	
9	0	0	0	0	510	339	
10	0	0	0	0	510	339	
11	0	0	0	0	509	339	
12	0	0	0	0	508	339	
13	0	0	0	0	508	339	
14	0	0	0	0	508	339	
15	0	0	0	0	508	339	
0	0	0	0	0	508	339	
1	0	0	0	0	508	339	
2	0	0	0	0	509	339	
3	0	0	0	0	510	339	
4	0	0	0	0	510	339	
5	0	0	0	0	510	339	
6	0	0	0	0	508	339	
7	0	0	0	0	507	339	
8	0	0	0	0	506	339	
9	0	0	0	0	505	339	
10	0	0	0	0	504	339	
11	0	0	0	0	504	339	
12	0	0	0	0	503	339	
13	0	0	0	0	503	339	
14	0	0	0	0	503	339	
15	0	0	0	0	503	339	
0	0	0	0	0	504	339	
1	0	0	0	0	504	339	
2	0	0	0	0	506	339	
3	0	0	0	0	506	339	
4	0	0	0	0	506	339	
5	0	0	0	0	506	339	
6	0	0	0	0	505	339	
7	0	0	0	0	505	339	
8	0	0	0	0	504	339	
9	0	0	0	0	504	339	
10	0	0	0	0	504	339	
11	0	0	0	0	504	340	
12	0	0	0	0	504	339	
13	0	0	0	0	503	339	
14	0	0	0	0	503	339	
15	0	0	0	0	503	340	
0	0	0	0	0	503	339	
1	0	0	0	0	504	340	
2	0	0	0	0	505	340	
3	0	0	0	0	505	340	
4	0	0	0	0	505	340	
5	0	0	0	0	506	339	
6	0	0	0	0	506	340	
7	0	0	0	0	506	340	
8	0	0	0	0	505	340	
9	0	0	0	0	505	340	
10	0	0	0	0	505	340	
11	0	0	0	0	505	340	
12	0	0	0	0	504	340	
13	0	0	0	0	504	340	
14	0	0	0	0	504	340	
15	0	0	0	0	504	340	
0	0	0	0	0	503	340	
1	0	0	0	0	503	340	
2	0	0	0	0	504	339	
3	0	0	0	0	504	340	
4	0	0	0	0	504	340	
5	0	0	0	0	504	340	
6	0	0	0	0	504	340	
7	0	0	0	0	504	340	
8	0	0	0	0	504	340	
9	0	0	0	0	504	340	
10	0	0	0	0	503	340	
11	0	0	0	0	503	340	
12	0	0	0	0	503	340	
13	0	0	0	0	503	340	
14	0	0	0	0	502	340	
15	0	0	0	0	502	340	
0	0	0	0	0	503	340	
1	0	0	0	0	503	340	
2	0	0	0	0	502	340	
3	0	0	0	0	503	340	
4	0	0	0	0	504	340	
5	0	0	0	0	504	340	
6	0	0	0	0	504	340	
7	0	0	0	0	505	340	
8	0	0	0	0	504	340	
9	0	0	0	0	504	340	
10	0	0	0	0	503	340	
11	0	0	0	0	503	340	
12	0	0	0	0	502	340	
13	0	0	0	0	501	340	
14	0	0	0	0	500	340	
15	0	0	0	0	499	340	
0	0	0	0	0	500	340	
1	0	0	0	0	500	340	
2	0	0	0	0	499	340	
3	0	0	0	0	501	340	
4	0	0	0	0	502	340	
5	0	0	0	0	503	340	
6	0	0	0	0	504	340	
7	0	0	0	0	504	340	
8	0	0	0	0	504	340	
9	0	0	0	0	504	340	
10	0	0	0	0	504	340	
11	0	0	0	0	504	340	
12	0	0	0	0	504	340	
13	0	0	0	0	504	340	
14	0	0	0	0	504	340	
15	0	0	0	0	504	340	
0	0	0	0	0	504	340	
1	0	0	0	0	503	340	
2	0	0	0	0	503	340	
3	0	0	0	0	504	340	
4	0	0	0	0	504	340	
5	0	0	0	0	505	340	
6	0	0	0	0	505	340	
7	0	0	0	0	506	340	
8	0	0	0	0	506	340	
9	0	0	0	0	507	340	
10	0	0	0	0	506	341	
11	0	0	0	0	505	340	
12	0	0	0	0	504	341	
13	0	0	0	0	503	340	
14	0	0	0	0	502	340	
15	0	0	0	0	502	340	
0	0	0	0	0	501	340	
1	0	0	0	0	501	341	
2	0	0	0	0	502	340	
3	0	0	0	0	502	340	
4	0	0	0	0	502	340	
5	0	0	0	0	503	340	
6	0	0	0	0	504	340	
7	0	0	0	0	504	340	
8	0	0	0	0	504	341	
9	0	0	0	0	504	340	
10	0	0	0	0	504	340	
11	0	0	0	0	505	341	
12	0	0	0	0	504	340	
13	0	0	0	0	503	341	
14	0	0	0	0	503	341	
15	0	0	0	0	502	341	
0	0	0	0	0	501	341	
1	0	0	0	0	500	341	
2	0	0	0	0	500	341	
3	0	0	0	0	499	341	
4	0	0	0	0	499	341	
5	0	0	0	0	499	341	
6	0	0	0	0	499	341	
7	0	0	0	0	500	341	
8	0	0	0	0	500	341	
9	0	0	0	0	499	341	
10	0	0	0	0	499	341	
11	0	0	0	0	499	341	
12	0	0	0	0	499	341	
13	0	0	0	0	498	341	
14	0	0	0	0	498	341	
15	0	0	0	0	498	341	
0	0	0	0	0	498	341	
1	0	0	0	0	498	341	
2	0	0	0	0	497	341	
3	0	0	0	0	497	341	
4	0	0	0	0	497	341	
5	0	0	0	0	497	341	
6	0	0	0	0	499	341	
7	0	0	0	0	499	341	
8	0	0	0	0	499	341	
9	0	0	0	0	500	341	
10	0	0	0	0	500	341	
11	0	0	0	0	501	341	
12	0	0	0	0	501	341	
13	0	0	0	0	501	341	
14	0	0	0	0	501	341	
15	0	0	0	0	501	341	
0	0	0	0	0	500	341	
1	0	0	0	0	501	341	
2	0	0	0	0	500	341	
3	0	0	0	0	500	341	
4	0	0	0	0	501	341	
5	0	0	0	0	502	341	
6	0	0	0	0	502	341	
7	0	0	0	0	502	341	
8	0	0	0	0	504	341	
9	0	0	0	0	504	341	
10	0	0	0	0	504	341	
11	0	0	0	0	504	341	
12	0	0	0	0	504	341	
13	0	0	0	0	505	341	
14	0	0	0	0	505	341	
15	0	0	0	0	505	341	
0	0	0	0	0	505	341	
1	0	0	0	0	504	341	
2	0	0	0	0	504	341	
3	0	0	0	0	504	341	
4	0	0	0	0	504	341	
5	0	0	0	0	504	341	
6	0	0	0	0	504	341	
7	0	0	0	0	504	341	
8	0	0	0	0	505	341	
9	0	0	0	0	504	341	
10	0	0	0	0	505	341	
11	0	0	0	0	505	341	
12	0	0	0	0	504	342	
13	0	0	0	0	504	342	
14	0	0	0	0	504	341	
15	0	0	0	0	503	341	
0	0	0	0	0	501	342	
1	0	0	0	0	501	341	
2	0	0	0	0	500	342	
3	0	0	0	0	500	341	
4	0	0	0	0	499	341	
5	0	0	0	0	499	341	
6	0	0	0	0	499	342	
7	0	0	0	0	500	341	
8	0	0	0	0	500	342	
9	0	0	0	0	501	342	
10	0	0	0	0	502	342	
11	0	0	0	0	503	341	
12	0	0	0	0	503	342	
13	0	0	0	0	504	342	
14	0	0	0	0	503	342	
15	0	0	0	0	502	341	
0	0	0	0	0	502	342	
1	0	0	0	0	502	342	
2	0	0	0	0	502	342	
3	0	0	0	0	502	342	
4	0	0	0	0	502	342	
5	0	0	0	0	502	342	
6	0	0	0	0	502	342	
7	0	0	0	0	503	342	
8	0	0	0	0	504	342	
9	0	0	0	0	504	342	
10	0	0	0	0	505	342	
11	0	0	0	0	506	342	
12	0	0	0	0	507	342	
13	0	0	0	0	508	342	
14	0	0	0	0	508	342	
15	0	0	0	0	508	342	
0	0	0	0	0	508	342	
1	0	0	0	0	507	342	
2	0	0	0	0	507	342	
3	0	0	0	0	507	342	
4	0	0	0	0	507	342	
5	0	0	0	0	507	342	
6	0	0	0	0	507	342	
7	0	0	0	0	507	342	
8	0	0	0	0	508	342	
9	0	0	0	0	509	342	
10	0	0	0	0	510	342	
11	0	0	0	0	512	342	
12	0	0	0	0	512	342	
13	0	0	0	0	512	342	
14	0	0	0	0	513	342	
15	0	0	0	0	513	342	
0	0	0	0	0	512	342	
1	0	0	0	0	512	342	
2	0	0	0	0	512	342	
3	0	0	0	0	513	342	
4	0	0	0	0	513	342	
5	0	0	0	0	512	342	
6	0	0	0	0	512	342	
7	0	0	0	0	513	342	
8	0	0	0	0	514	342	
9	0	0	0	0	515	342	
10	0	0	0	0	516	342	
11	0	0	0	0	518	342	
12	0	0	0	0	519	342	
13	0	0	0	0	519	342	
14	0	0	0	0	520	342	
15	0	0	0	0	520	342	
0	0	0	0	0	520	342	
1	0	0	0	0	520	342	
2	0	0	0	0	519	342	
3	0	0	0	0	519	342	
4	0	0	0	0	518	342	
5	0	0	0	0	518	342	
6	0	0	0	0	517	342	
7	0	0	0	0	517	342	
8	0	0	0	0	516	342	
9	0	0	0	0	516	342	
10	0	0	0	0	516	342	
11	0	0	0	0	517	342	
12	0	0	0	0	519	342	
13	0	0	0	0	520	342	
14	0	0	0	0	521	342	
15	0	0	0	0	521	342	
0	0	0	0	0	521	342	
1	0	0	0	0	521	342	
2	0	0	0	0	521	342	
3	0	0	0	0	520	342	
4	0	0	0	0	519	342	
5	0	0	0	0	519	342	
6	0	0	0	0	519	342	
7	0	0	0	0	518	342	
8	0	0	0	0	517	342	
9	0	0	0	0	517	342	
10	0	0	0	0	517	342	
11	0	0	0	0	518	342	
12	0	0	0	0	519	342	
13	0	0	0	0	520	342	
14	0	0	0	0	521	342	
15	0	0	0	0	520	342	
0	0	0	0	0	520	342	
1	0	0	0	0	519	342	
2	0	0	0	0	519	342	
3	0	0	0	0	519	342	
4	0	0	0	0	518	342	
5	0	0	0	0	518	342	
6	0	0	0	0	517	343	
7	0	0	0	0	517	342	
8	0	0	0	0	517	342	
9	0	0	0	0	516	342	
10	0	0	0	0	516	342	
11	0	0	0	0	516	342	
12	0	0	0	0	518	342	
13	0	0	0	0	519	343	
14	0	0	0	0	519	342	
15	0	0	0	0	520	342	
0	0	0	0	0	520	342	
1	0	0	0	0	519	343	
2	0	0	0	0	519	343	
3	0	0	0	0	519	342	
4	0	0	0	0	519	343	
5	0	0	0	0	518	343	
6	0	0	0	0	517	342	
7	0	0	0	0	516	343	
8	0	0	0	0	515	343	
9	0	0	0	0	515	343	
10	0	0	0	0	515	343	
11	0	0	0	0	516	343	
12	0	0	0	0	516	343	
13	0	0	0	0	516	342	
14	0	0	0	0	517	343	
15	0	0	0	0	516	342	
0	0	0	0	0	516	343	
1	0	0	0	0	516	343	
2	0	0	0	0	516	343	
3	0	0	0	0	516	343	
4	0	0	0	0	515	343	
5	0	0	0	0	515	343	
6	0	0	0	0	515	343	
7	0	0	0	0	514	343	
8	0	0	0	0	513	343	
9	0	0	0	0	513	342	
10	0	0	0	0	513	343	
11	0	0	0	0	512	343	
12	0	0	0	0	512	343	
13	0	0	0	0	513	343	
14	0	0	0	0	513	343	
15	0	0	0	0	514	343	
0	0	0	0	0	515	343	
1	0	0	0	0	515	343	
2	0	0	0	0	515	343	
3	0	0	0	0	515	343	
4	0	0	0	0	516	343	
5	0	0	0	0	516	343	
6	0	0	0	0	515	343	
7	0	0	0	0	514	343	
8	0	0	0	0	513	343	
9	0	0	0	0	512	343	
10	0	0	0	0	512	343	
11	0	0	0	0	512	343	
12	0	0	0	0	512	343	
13	0	0	0	0	512	343	
14	0	0	0	0	513	343	
15	0	0	0	0	514	343	
0	0	0	0	0	514	343	
1	0	0	0	0	515	343	
2	0	0	0	0	515	343	
3	0	0	0	0	515	343	
4	0	0	0	0	515	343	
5	0	0	0	0	515	343	
6	0	0	0	0	514	343	
7	0	0	0	0	513	343	
8	0	0	0	0	513	343	
9	0	0	0	0	512	343	
10	0	0	0	0	511	343	
11	0	0	0	0	511	343	
12	0	0	0	0	512	343	
13	0	0	0	0	512	343	
14	0	0	0	0	512	343	
15	0	0	0	0	513	343	
0	0	0	0	0	514	343	
1	0	0	0	0	514	343	
2	0	0	0	0	514	343	
3	0	0	0	0	514	343	
4	0	0	0	0	513	343	
5	0	0	0	0	512	343	
6	0	0	0	0	511	343	
7	0	0	0	0	511	343	
8	0	0	0	0	511	343	
9	0	0	0	0	510	343	
10	0	0	0	0	511	343	
11	0	0	0	0	510	343	
12	0	0	0	0	509	343	
13	0	0	0	0	509	343	
14	0	0	0	0	509	343	
15	0	0	0	0	510	343	
0	0	0	0	0	510	343	
1	0	0	0	0	511	343	
2	0	0	0	0	512	343	
3	0	0	0	0	512	343	
4	0	0	0	0	512	343	
5	0	0	0	0	512	343	
6	0	0	0	0	512	343	
7	0	0	0	0	510	343	
8	0	0	0	0	509	343	
9	0	0	0	0	509	343	
10	0	0	0	0	508	343	
11	0	0	0	0	507	343	
12	0	0	0	0	507	343	
13	0	0	0	0	507	343	
14	0	0	0	0	508	343	
15	0	0	0	0	510	343	
0	0	0	0	0	510	343	
1	0	0	0	0	511	343	
2	0	0	0	0	512	343	
3	0	0	0	0	512	343	
4	0	0	0	0	513	343	
5	0	0	0	0	513	343	
6	0	0	0	0	514	343	
7	0	0	0	0	514	343	
8	0	0	0	0	514	343	
9	0	0	0	0	514	343	
10	0	0	0	0	515	343	
11	0	0	0	0	515	343	
12	0	0	0	0	515	343	
13	0	0	0	0	514	343	
14	0	0	0	0	513	343	
15	0	0	0	0	512	343	
0	0	0	0	0	513	343	
1	0	0	0	0	513	343	
2	0	0	0	0	514	343	
3	0	0	0	0	514	343	
4	0	0	0	0	515	343	
5	0	0	0	0	514	343	
6	0	0	0	0	514	343	
7	0	0	0	0	514	343	
8	0	0	0	0	513	343	
9	0	0	0	0	513	343	
10	0	0	0	0	512	344	
11	0	0	0	0	511	343	
12	0	0	0	0	510	344	
13	0	0	0	0	510	343	
14	0	0	0	0	509	344	
15	0	0	0	0	509	343	
0	0	0	0	0	509	343	
1	0	0	0	0	510	344	
2	0	0	0	0	511	343	
3	0	0	0	0	512	343	
4	0	0	0	0	512	344	
5	0	0	0	0	512	343	
6	0	0	0	0	513	344	
7	0	0	0	0	512	344	
8	0	0	0	0	512	343	
9	0	0	0	0	512	344	
10	0	0	0	0	511	343	
11	0	0	0	0	512	344	
12	0	0	0	0	511	344	
13	0	0	0	0	511	344	
14	0	0	0	0	511	344	
15	0	0	0	0	511	344	
0	0	0	0	0	511	344	
1	0	0	0	0	511	344	
2	0	0	0	0	512	343	
3	0	0	0	0	513	344	
4	0	0	0	0	513	343	
5	0	0	0	0	513	344	
6	0	0	0	0	513	344	
7	0	0	0	0	513	344	
8	0	0	0	0	513	344	
9	0	0	0	0	513	344	
10	0	0	0	0	513	344	
11	0	0	0	0	512	344	
12	0	0	0	0	512	344	
13	0	0	0	0	511	344	
14	0	0	0	0	511	344	
15	0	0	0	0	511	344	
0	0	0	0	0	510	343	
1	0	0	0	0	510	344	
2	0	0	0	0	510	344	
3	0	0	0	0	511	344	
4	0	0	0	0	512	344	
5	0	0	0	0	512	344	
6	0	0	0	0	512	344	
7	0	0	0	0	512	344	
8	0	0	0	0	511	344	
9	0	0	0	0	511	344	
10	0	0	0	0	510	344	
11	0	0	0	0	510	344	
12	0	0	0	0	510	344	
13	0	0	0	0	509	344	
14	0	0	0	0	509	344	
15	0	0	0	0	509	344	
0	0	0	0	0	509	344	
1	0	0	0	0	510	344	
2	0	0	0	0	511	344	
3	0	0	0	0	511	344	
4	0	0	0	0	512	344	
5	0	0	0	0	513	344	
6	0	0	0	0	513	344	
7	0	0	0	0	513	344	
8	0	0	0	0	514	344	
9	0	0	0	0	513	344	
10	0	0	0	0	513	344	
11	0	0	0	0	513	344	
12	0	0	0	0	513	344	
13	0	0	0	0	513	344	
14	0	0	0	0	513	344	
15	0	0	0	0	513	344	
0	0	0	0	0	513	344	
1	0	0	0	0	513	344	
2	0	0	0	0	514	344	
3	0	0	0	0	515	344	
4	0	0	0	0	515	344	
5	0	0	0	0	515	344	
6	0	0	0	0	515	344	
7	0	0	0	0	516	344	
8	0	0	0	0	516	344	
9	0	0	0	0	517	344	
10	0	0	0	0	518	344	
11	0	0	0	0	518	344	
12	0	0	0	0	518	344	
13	0	0	0	0	517	344	
14	0	0	0	0	516	344	
15	0	0	0	0	516	344	
0	0	0	0	0	516	344	
1	0	0	0	0	516	344	
2	0	0	0	0	516	344	
3	0	0	0	0	517	344	
4	0	0	0	0	518	344	
5	0	0	0	0	519	344	
6	0	0	0	0	519	344	
7	0	0	0	0	519	344	
8	0	0	0	0	520	344	
9	0	0	0	0	520	344	
10	0	0	0	0	520	344	
11	0	0	0	0	521	344	
12	0	0	0	0	521	344	
13	0	0	0	0	519	344	
14	0	0	0	0	519	344	
15	0	0	0	0	519	344	
0	0	0	0	0	519	344	
1	0	0	0	0	518	344	
2	0	0	0	0	517	344	
3	0	0	0	0	517	344	
4	0	0	0	0	517	344	
5	0	0	0	0	518	344	
6	0	0	0	0	519	344	
7	0	0	0	0	520	344	
8	0	0	0	0	520	344	
9	0	0	0	0	521	344	
10	0	0	0	0	521	344	
11	0	0	0	0	521	344	
12	0	0	0	0	521	344	
13	0	0	0	0	519	344	
14	0	0	0	0	519	344	
15	0	0	0	0	519	344	
0	0	0	0	0	518	344	
1	0	0	0	0	517	344	
2	0	0	0	0	516	344	
3	0	0	0	0	516	344	
4	0	0	0	0	516	344	
5	0	0	0	0	517	344	
6	0	0	0	0	517	344	
7	0	0	0	0	518	344	
8	0	0	0	0	518	344	
9	0	0	0	0	519	344	
10	0	0	0	0	519	344	
11	0	0	0	0	520	344	
12	0	0	0	0	520	344	
13	0	0	0	0	519	344	
14	0	0	0	0	519	344	
15	0	0	0	0	519	344	
0	0	0	0	0	519	344	
1	0	0	0	0	519	344	
2	0	0	0	0	519	344	
3	0	0	0	0	519	344	
4	0	0	0	0	519	344	
5	0	0	0	0	520	344	
6	0	0	0	0	521	344	
7	0	0	0	0	522	344	
8	0	0	0	0	523	344	
9	0	0	0	0	524	344	
10	0	0	0	0	524	344	
11	0	0	0	0	525	344	
12	0	0	0	0	524	344	
13	0	0	0	0	524	344	
14	0	0	0	0	523	344	
15	0	0	0	0	522	344	
0	0	0	0	0	521	344	
1	0	0	0	0	520	344	
2	0	0	0	0	519	344	
3	0	0	0	0	519	344	
4	0	0	0	0	519	344	
5	0	0	0	0	519	344	
6	0	0	0	0	519	344	
7	0	0	0	0	519	344	
8	0	0	0	0	519	344	
9	0	0	0	0	520	344	
10	0	0	0	0	520	344	
11	0	0	0	0	519	344	
12	0	0	0	0	519	344	
13	0	0	0	0	519	344	
14	0	0	0	0	519	344	
15	0	0	0	0	519	344	
0	0	0	0	0	519	344	
1	0	0	0	0	520	344	
2	0	0	0	0	519	344	
3	0	0	0	0	519	344	
4	0	0	0	0	519	344	
5	0	0	0	0	520	344	
6	0	0	0	0	521	344	
7	0	0	0	0	521	344	
8	0	0	0	0	521	344	
9	0	0	0	0	523	344	
10	0	0	0	0	523	344	
11	0	0	0	0	524	344	
12	0	0	0	0	525	344	
13	0	0	0	0	525	344	
14	0	0	0	0	527	344	
15	0	0	0	0	527	344	
0	0	0	0	0	527	344	
1	0	0	0	0	527	344	
2	0	0	0	0	526	344	
3	0	0	0	0	525	344	
4	0	0	0	0	524	344	
5	0	0	0	0	523	345	
6	0	0	0	0	521	344	
7	0	0	0	0	520	344	
8	0	0	0	0	519	344	
9	0	0	0	0	518	344	
10	0	0	0	0	517	344	
11	0	0	0	0	515	344	
12	0	0	0	0	512	344	
13	0	0	0	0	511	344	
14	0	0	0	0	509	344	
15	0	0	0	0	508	345	
0	0	0	0	0	506	345	
1	0	0	0	0	503	344	
2	0	0	0	0	500	344	
3	0	0	0	0	497	345	
4	0	0	0	0	496	345	
5	0	0	0	0	496	344	
6	0	0	0	0	497	344	
7	0	0	0	0	499	345	
8	0	0	0	0	501	344	
9	0	0	0	0	503	344	
10	0	0	0	0	504	344	
11	0	0	0	0	505	345	
12	0	0	0	0	506	345	
13	0	0	0	0	507	344	
14	0	0	0	0	508	345	
15	0	0	0	0	508	345	
0	0	0	0	0	508	344	
1	0	0	0	0	507	345	
2	0	0	0	0	506	345	
3	0	0	0	0	504	345	
4	0	0	0	0	503	345	
5	0	0	0	0	503	344	
6	0	0	0	0	503	345	
7	0	0	0	0	505	344	
8	0	0	0	0	507	345	
9	0	0	0	0	509	344	
10	0	0	0	0	512	345	
11	0	0	0	0	515	344	
12	0	0	0	0	517	344	
13	0	0	0	0	520	345	
14	0	0	0	0	521	345	
15	0	0	0	0	522	344	
0	0	0	0	0	524	344	
1	0	0	0	0	523	344	
2	0	0	0	0	524	345	
3	0	0	0	0	524	344	
4	0	0	0	0	524	345	
5	0	0	0	0	524	345	
6	0	0	0	0	524	345	
7	0	0	0	0	526	345	
8	0	0	0	0	526	344	
9	0	0	0	0	526	344	
10	0	0	0	0	526	345	
11	0	0	0	0	526	344	
12	0	0	0	0	527	344	
13	0	0	0	0	527	344	
14	0	0	0	0	527	345	
15	0	0	0	0	527	344	
0	0	0	0	0	527	345	
1	0	0	0	0	525	345	
2	0	0	0	0	524	345	
3	0	0	0	0	523	345	
4	0	0	0	0	522	345	
5	0	0	0	0	521	344	
6	0	0	0	0	520	345	
7	0	0	0	0	519	344	
8	0	0	0	0	519	345	
9	0	0	0	0	518	344	
10	0	0	0	0	518	345	
11	0	0	0	0	518	345	
12	0	0	0	0	519	344	
13	0	0	0	0	519	345	
14	0	0	0	0	520	345	
15	0	0	0	0	520	345	
0	0	0	0	0	520	345	
1	0	0	0	0	520	345	
2	0	0	0	0	519	345	
3	0	0	0	0	519	345	
4	0	0	0	0	519	345	
5	0	0	0	0	518	345	
6	0	0	0	0	518	345	
7	0	0	0	0	516	345	
8	0	0	0	0	516	344	
9	0	0	0	0	515	345	
10	0	0	0	0	516	345	
11	0	0	0	0	516	344	
12	0	0	0	0	517	345	
13	0	0	0	0	518	345	
14	0	0	0	0	518	345	
15	0	0	0	0	519	345	
0	0	0	0	0	519	345	
1	0	0	0	0	520	345	
2	0	0	0	0	521	345	
3	0	0	0	0	521	345	
4	0	0	0	0	521	345	
5	0	0	0	0	520	345	
6	0	0	0	0	520	345	
7	0	0	0	0	520	345	
8	0	0	0	0	519	344	
9	0	0	0	0	519	345	
10	0	0	0	0	518	345	
11	0	0	0	0	518	345	
12	0	0	0	0	518	345	
13	0	0	0	0	519	345	
14	0	0	0	0	520	345	
15	0	0	0	0	519	345	
0	0	0	0	0	519	345	
1	0	0	0	0	519	345	
2	0	0	0	0	519	345	
3	0	0	0	0	519	345	
4	0	0	0	0	519	345	
5	0	0	0	0	518	345	
6	0	0	0	0	518	345	
7	0	0	0	0	517	345	
8	0	0	0	0	516	345	
9	0	0	0	0	516	345	
10	0	0	0	0	516	345	
11	0	0	0	0	517	345	
12	0	0	0	0	518	345	
13	0	0	0	0	518	345	
14	0	0	0	0	519	345	
15	0	0	0	0	520	345	
0	0	0	0	0	521	345	
1	0	0	0	0	521	345	
2	0	0	0	0	520	345	
3	0	0	0	0	519	345	
4	0	0	0	0	519	345	
5	0	0	0	0	519	345	
6	0	0	0	0	518	345	
7	0	0	0	0	518	345	
8	0	0	0	0	517	345	
9	0	0	0	0	516	345	
10	0	0	0	0	516	345	
11	0	0	0	0	516	345	
12	0	0	0	0	517	345	
13	0	0	0	0	518	345	
14	0	0	0	0	519	345	
15	0	0	0	0	521	345	
0	0	0	0	0	521	345	
1	0	0	0	0	522	345	
2	0	0	0	0	522	345	
3	0	0	0	0	522	345	
4	0	0	0	0	521	345	
5	0	0	0	0	520	345	
6	0	0	0	0	521	345	
7	0	0	0	0	520	345	
8	0	0	0	0	519	345	
9	0	0	0	0	519	345	
10	0	0	0	0	519	345	
11	0	0	0	0	519	345	
12	0	0	0	0	519	345	
13	0	0	0	0	518	345	
14	0	0	0	0	519	345	
15	0	0	0	0	519	345	
0	0	0	0	0	519	345	
1	0	0	0	0	520	345	
2	0	0	0	0	520	345	
3	0	0	0	0	519	345	
4	0	0	0	0	519	345	
5	0	0	0	0	518	345	
6	0	0	0	0	518	345	
7	0	0	0	0	518	345	
8	0	0	0	0	517	345	
9	0	0	0	0	516	345	
10	0	0	0	0	517	345	
11	0	0	0	0	517	345	
12	0	0	0	0	516	345	
13	0	0	0	0	515	345	
14	0	0	0	0	515	345	
15	0	0	0	0	516	345	
0	0	0	0	0	517	345	
1	0	0	0	0	519	345	
2	0	0	0	0	518	345	
3	0	0	0	0	518	345	
4	0	0	0	0	518	345	
5	0	0	0	0	518	345	
6	0	0	0	0	518	345	
7	0	0	0	0	518	345	
8	0	0	0	0	517	345	
9	0	0	0	0	516	345	
10	0	0	0	0	515	345	
11	0	0	0	0	515	345	
12	0	0	0	0	515	345	
13	0	0	0	0	515	345	
14	0	0	0	0	514	345	
15	0	0	0	0	513	345	
0	0	0	0	0	513	345	
1	0	0	0	0	513	345	
2	0	0	0	0	513	345	
3	0	0	0	0	513	345	
4	0	0	0	0	513	345	
5	0	0	0	0	512	345	
6	0	0	0	0	511	345	
7	0	0	0	0	510	345	
8	0	0	0	0	509	345	
9	0	0	0	0	508	345	
10	0	0	0	0	507	345	
11	0	0	0	0	507	345	
12	0	0	0	0	506	345	
13	0	0	0	0	506	345	
14	0	0	0	0	505	345	
15	0	0	0	0	505	345	
0	0	0	0	0	505	345	
1	0	0	0	0	507	345	
2	0	0	0	0	508	345	
3	0	0	0	0	509	345	
4	0	0	0	0	509	345	
5	0	0	0	0	510	345	
6	0	0	0	0	510	345	
7	0	0	0	0	510	345	
8	0	0	0	0	509	345	
9	0	0	0	0	509	345	
10	0	0	0	0	509	345	
11	0	0	0	0	508	345	
12	0	0	0	0	508	345	
13	0	0	0	0	507	345	
14	0	0	0	0	507	345	
15	0	0	0	0	507	345	
0	0	0	0	0	507	345	
1	0	0	0	0	507	345	
2	0	0	0	0	508	345	
3	0	0	0	0	509	345	
4	0	0	0	0	509	345	
5	0	0	0	0	509	345	
6	0	0	0	0	509	345	
7	0	0	0	0	508	345	
8	0	0	0	0	509	345	
9	0	0	0	0	509	345	
10	0	0	0	0	508	345	
11	0	0	0	0	508	345	
12	0	0	0	0	508	345	
13	0	0	0	0	508	345	
14	0	0	0	0	508	345	
15	0	0	0	0	508	345	
0	0	0	0	0	509	345	
1	0	0	0	0	509	345	
2	0	0	0	0	510	345	
3	0	0	0	0	510	345	
4	0	0	0	0	511	345	
5	0	0	0	0	511	345	
6	0	0	0	0	511	345	
7	0	0	0	0	512	345	
8	0	0	0	0	512	345	
9	0	0	0	0	512	345	
10	0	0	0	0	513	345	
11	0	0	0	0	512	345	
12	0	0	0	0	512	345	
13	0	0	0	0	512	345	
14	0	0	0	0	512	345	
15	0	0	0	0	512	345	
0	0	0	0	0	512	345	
1	0	0	0	0	512	345	
2	0	0	0	0	513	345	
3	0	0	0	0	513	345	
4	0	0	0	0	515	345	
5	0	0	0	0	516	345	
6	0	0	0	0	517	345	
7	0	0	0	0	517	345	
8	0	0	0	0	517	345	
9	0	0	0	0	518	345	
10	0	0	0	0	519	345	
11	0	0	0	0	519	345	
12	0	0	0	0	518	345	
13	0	0	0	0	519	345	
14	0	0	0	0	518	345	
15	0	0	0	0	518	345	
0	0	0	0	0	518	345	
1	0	0	0	0	518	345	
2	0	0	0	0	518	345	
3	0	0	0	0	519	345	
4	0	0	0	0	520	345	
5	0	0	0	0	522	345	
6	0	0	0	0	524	345	
7	0	0	0	0	524	345	
8	0	0	0	0	524	345	
9	0	0	0	0	525	345	
10	0	0	0	0	526	345	
11	0	0	0	0	525	345	
12	0	0	0	0	524	345	
13	0	0	0	0	524	345	
14	0	0	0	0	524	345	
15	0	0	0	0	524	345	
0	0	0	0	0	525	345	
1	0	0	0	0	526	345	
2	0	0	0	0	527	345	
3	0	0	0	0	529	345	
4	0	0	0	0	531	345	
5	0	0	0	0	532	345	
6	0	0	0	0	534	345	
7	0	0	0	0	534	345	
8	0	0	0	0	536	345	
9	0	0	0	0	537	345	
10	0	0	0	0	538	345	
11	0	0	0	0	540	345	
12	0	0	0	0	540	345	
13	0	0	0	0	541	345	
14	0	0	0	0	541	345	
15	0	0	0	0	542	345	
0	0	0	0	0	543	345	
1	0	0	0	0	543	345	
2	0	0	0	0	544	345	
3	0	0	0	0	545	345	
4	0	0	0	0	547	345	
5	0	0	0	0	548	345	
6	0	0	0	0	550	345	
7	0	0	0	0	551	345	
8	0	0	0	0	552	345	
9	0	0	0	0	552	345	
10	0	0	0	0	552	345	
11	0	0	0	0	551	345	
12	0	0	0	0	551	345	
13	0	0	0	0	551	345	
14	0	0	0	0	551	345	
15	0	0	0	0	550	345	
0	0	0	0	0	551	345	
1	0	0	0	0	550	345	
2	0	0	0	0	550	345	
3	0	0	0	0	550	345	
4	0	0	0	0	550	345	
5	0	0	0	0	551	345	
6	0	0	0	0	551	345	
7	0	0	0	0	552	345	
8	0	0	0	0	552	345	
9	0	0	0	0	552	345	
10	0	0	0	0	551	345	
11	0	0	0	0	550	345	
12	0	0	0	0	549	345	
13	0	0	0	0	548	345	
14	0	0	0	0	547	345	
15	0	0	0	0	547	345	
0	0	0	0	0	546	345	
1	0	0	0	0	546	345	
2	0	0	0	0	545	345	
3	0	0	0	0	545	345	
4	0	0	0	0	546	345	
5	0	0	0	0	545	345	
6	0	0	0	0	546	345	
7	0	0	0	0	546	345	
8	0	0	0	0	546	345	
9	0	0	0	0	547	345	
10	0	0	0	0	547	345	
11	0	0	0	0	546	345	
12	0	0	0	0	545	345	
13	0	0	0	0	545	345	
14	0	0	0	0	544	345	
15	0	0	0	0	542	345	
0	0	0	0	0	541	345	
1	0	0	0	0	540	345	
2	0	0	0	0	540	345	
3	0	0	0	0	540	345	
4	0	0	0	0	540	345	
5	0	0	0	0	540	345	
6	0	0	0	0	540	345	
7	0	0	0	0	541	345	
8	0	0	0	0	541	345	
9	0	0	0	0	541	345	
10	0	0	0	0	540	345	
11	0	0	0	0	540	345	
12	0	0	0	0	540	345	
13	0	0	0	0	540	345	
14	0	0	0	0	539	345	
15	0	0	0	0	538	345	
0	0	0	0	0	537	345	
1	0	0	0	0	536	345	
2	0	0	0	0	536	345	
3	0	0	0	0	535	345	
4	0	0	0	0	535	345	
5	0	0	0	0	535	345	
6	0	0	0	0	535	345	
7	0	0	0	0	536	345	
8	0	0	0	0	536	345	
9	0	0	0	0	536	345	
10	0	0	0	0	536	345	
11	0	0	0	0	536	345	
12	0	0	0	0	536	345	
13	0	0	0	0	535	345	
14	0	0	0	0	534	345	
15	0	0	0	0	533	345	
0	0	0	0	0	532	345	
1	0	0	0	0	532	345	
2	0	0	0	0	531	345	
3	0	0	0	0	530	345	
4	0	0	0	0	529	345	
5	0	0	0	0	529	345	
6	0	0	0	0	528	345	
7	0	0	0	0	528	345	
8	0	0	0	0	528	345	
9	0	0	0	0	529	345	
10	0	0	0	0	529	345	
11	0	0	0	0	530	345	
12	0	0	0	0	528	345	
13	0	0	0	0	527	345	
14	0	0	0	0	527	345	
15	0	0	0	0	526	345	
0	0	0	0	0	525	345	
1	0	0	0	0	524	345	
2	0	0	0	0	523	345	
3	0	0	0	0	521	345	
4	0	0	0	0	521	345	
5	0	0	0	0	520	345	
6	0	0	0	0	519	345	
7	0	0	0	0	519	345	
8	0	0	0	0	520	345	
9	0	0	0	0	520	345	
10	0	0	0	0	521	345	
11	0	0	0	0	521	345	
12	0	0	0	0	521	345	
13	0	0	0	0	521	345	
14	0	0	0	0	520	345	
15	0	0	0	0	519	345	
0	0	0	0	0	519	345	
1	0	0	0	0	519	345	
2	0	0	0	0	518	345	
3	0	0	0	0	517	345	
4	0	0	0	0	517	345	
5	0	0	0	0	516	345	
6	0	0	0	0	516	345	
7	0	0	0	0	515	345	
8	0	0	0	0	515	345	
9	0	0	0	0	517	345	
10	0	0	0	0	518	345	
11	0	0	0	0	519	345	
12	0	0	0	0	519	345	
13	0	0	0	0	519	345	
14	0	0	0	0	519	345	
15	0	0	0	0	519	345	
0	0	0	0	0	519	345	
1	0	0	0	0	518	345	
2	0	0	0	0	517	345	
3	0	0	0	0	517	345	
4	0	0	0	0	515	345	
5	0	0	0	0	514	345	
6	0	0	0	0	513	345	
7	0	0	0	0	513	345	
8	0	0	0	0	513	345	
9	0	0	0	0	513	345	
10	0	0	0	0	513	345	
11	0	0	0	0	515	345	
12	0	0	0	0	517	345	
13	0	0	0	0	518	345	
14	0	0	0	0	519	345	
15	0	0	0	0	518	345	
0	0	0	0	0	518	345	
1	0	0	0	0	518	345	
2	0	0	0	0	518	345	
3	0	0	0	0	518	345	
4	0	0	0	0	518	345	
5	0	0	0	0	518	345	
6	0	0	0	0	517	345	
7	0	0	0	0	517	345	
8	0	0	0	0	517	345	
9	0	0	0	0	517	345	
10	0	0	0	0	517	345	
11	0	0	0	0	517	345	
12	0	0	0	0	518	345	
13	0	0	0	0	519	344	
14	0	0	0	0	519	345	
15	0	0	0	0	519	345	
0	0	0	0	0	519	345	
1	0	0	0	0	518	345	
2	0	0	0	0	518	345	
3	0	0	0	0	518	345	
4	0	0	0	0	517	345	
5	0	0	0	0	517	345	
6	0	0	0	0	517	345	
7	0	0	0	0	517	345	
8	0	0	0	0	518	345	
9	0	0	0	0	517	345	
10	0	0	0	0	518	344	
11	0	0	0	0	519	345	
12	0	0	0	0	519	345	
13	0	0	0	0	521	345	
14	0	0	0	0	521	344	
15	0	0	0	0	521	345	
0	0	0	0	0	521	345	
1	0	0	0	0	522	345	
2	0	0	0	0	522	345	
3	0	0	0	0	521	345	
4	0	0	0	0	520	345	
5	0	0	0	0	520	345	
6	0	0	0	0	520	344	
7	0	0	0	0	519	345	
8	0	0	0	0	519	345	
9	0	0	0	0	519	345	
10	0	0	0	0	519	345	
11	0	0	0	0	519	345	
12	0	0	0	0	520	344	
13	0	0	0	0	521	344	
14	0	0	0	0	521	344	
15	0	0	0	0	521	345	
0	0	0	0	0	521	345	
1	0	0	0	0	521	344	
2	0	0	0	0	521	345	
3	0	0	0	0	521	345	
4	0	0	0	0	520	345	
5	0	0	0	0	519	345	
6	0	0	0	0	518	345	
7	0	0	0	0	516	345	
8	0	0	0	0	516	345	
9	0	0	0	0	515	344	
10	0	0	0	0	513	345	
11	0	0	0	0	514	345	
12	0	0	0	0	515	344	
13	0	0	0	0	514	344	
14	0	0	0	0	515	345	
15	0	0	0	0	514	345	
0	0	0	0	0	514	345	
1	0	0	0	0	514	344	
2	0	0	0	0	513	344	
3	0	0	0	0	513	345	
4	0	0	0	0	512	345	
5	0	0	0	0	511	345	
6	0	0	0	0	510	345	
7	0	0	0	0	508	344	
8	0	0	0	0	508	344	
9	0	0	0	0	508	345	
10	0	0	0	0	508	345	
11	0	0	0	0	508	345	
12	0	0	0	0	508	344	
13	0	0	0	0	508	345	
14	0	0	0	0	508	345	
15	0	0	0	0	509	344	
0	0	0	0	0	508	344	
1	0	0	0	0	508	344	
2	0	0	0	0	508	345	
3	0	0	0	0	508	344	
4	0	0	0	0	508	344	
5	0	0	0	0	507	344	
6	0	0	0	0	506	345	
7	0	0	0	0	506	344	
8	0	0	0	0	505	344	
9	0	0	0	0	504	344	
10	0	0	0	0	504	344	
11	0	0	0	0	504	344	
12	0	0	0	0	504	344	
13	0	0	0	0	504	344	
14	0	0	0	0	504	344	
15	0	0	0	0	504	344	
0	0	0	0	0	505	344	
1	0	0	0	0	505	344	
2	0	0	0	0	504	344	
3	0	0	0	0	503	344	
4	0	0	0	0	503	344	
5	0	0	0	0	504	345	
6	0	0	0	0	503	344	
7	0	0	0	0	502	344	
8	0	0	0	0	502	345	
9	0	0	0	0	501	344	
10	0	0	0	0	500	344	
11	0	0	0	0	500	344	
12	0	0	0	0	500	344	
13	0	0	0	0	500	344	
14	0	0	0	0	500	344	
15	0	0	0	0	500	344	
0	0	0	0	0	501	344	
1	0	0	0	0	501	344	
2	0	0	0	0	501	345	
3	0	0	0	0	501	344	
4	0	0	0	0	501	344	
5	0	0	0	0	501	344	
6	0	0	0	0	501	344	
7	0	0	0	0	501	344	
8	0	0	0	0	501	344	
9	0	0	0	0	500	344	
10	0	0	0	0	499	344	
11	0	0	0	0	498	344	
12	0	0	0	0	497	344	
13	0	0	0	0	498	344	
14	0	0	0	0	498	344	
15	0	0	0	0	499	344	
0	0	0	0	0	500	344	
1	0	0	0	0	500	344	
2	0	0	0	0	502	344	
3	0	0	0	0	501	344	
4	0	0	0	0	502	344	
5	0	0	0	0	502	344	
6	0	0	0	0	502	344	
7	0	0	0	0	502	344	
8	0	0	0	0	502	344	
9	0	0	0	0	502	344	
10	0	0	0	0	502	344	
11	0	0	0	0	502	344	
12	0	0	0	0	501	344	
13	0	0	0	0	500	344	
14	0	0	0	0	500	344	
15	0	0	0	0	501	344	
0	0	0	0	0	502	344	
1	0	0	0	0	503	344	
2	0	0	0	0	503	344	
3	0	0	0	0	504	344	
4	0	0	0	0	504	344	
5	0	0	0	0	503	344	
6	0	0	0	0	502	344	
7	0	0	0	0	500	344	
8	0	0	0	0	500	344	
9	0	0	0	0	499	344	
10	0	0	0	0	499	344	
11	0	0	0	0	498	344	
12	0	0	0	0	497	344	
13	0	0	0	0	497	344	
14	0	0	0	0	496	344	
15	0	0	0	0	496	344	
0	0	0	0	0	497	344	
1	0	0	0	0	498	344	
2	0	0	0	0	499	344	
3	0	0	0	0	499	344	
4	0	0	0	0	500	344	
5	0	0	0	0	501	344	
6	0	0	0	0	500	344	
7	0	0	0	0	501	344	
8	0	0	0	0	501	344	
9	0	0	0	0	501	344	
10	0	0	0	0	501	344	
11	0	0	0	0	499	344	
12	0	0	0	0	498	344	
13	0	0	0	0	498	344	
14	0	0	0	0	497	344	
15	0	0	0	0	496	344	
0	0	0	0	0	497	344	
1	0	0	0	0	498	344	
2	0	0	0	0	499	344	
3	0	0	0	0	500	344	
4	0	0	0	0	500	344	
5	0	0	0	0	500	344	
6	0	0	0	0	499	344	
7	0	0	0	0	499	344	
8	0	0	0	0	499	344	
9	0	0	0	0	498	344	
10	0	0	0	0	496	344	
11	0	0	0	0	496	344	
12	0	0	0	0	495	344	
13	0	0	0	0	496	344	
14	0	0	0	0	495	344	
15	0	0	0	0	494	344	
0	0	0	0	0	495	344	
1	0	0	0	0	495	344	
2	0	0	0	0	495	344	
3	0	0	0	0	496	344	
4	0	0	0	0	497	344	
5	0	0	0	0	498	344	
6	0	0	0	0	498	344	
7	0	0	0	0	497	344	
8	0	0	0	0	497	344	
9	0	0	0	0	496	344	
10	0	0	0	0	496	344	
11	0	0	0	0	496	344	
12	0	0	0	0	496	344	
13	0	0	0	0	495	344	
14	0	0	0	0	494	344	
15	0	0	0	0	494	344	
0	0	0	0	0	493	344	
1	0	0	0	0	493	344	
2	0	0	0	0	494	344	
3	0	0	0	0	494	344	
4	0	0	0	0	495	344	
5	0	0	0	0	495	344	
6	0	0	0	0	495	344	
7	0	0	0	0	496	344	
8	0	0	0	0	495	344	
9	0	0	0	0	495	344	
10	0	0	0	0	494	344	
11	0	0	0	0	494	344	
12	0	0	0	0	494	344	
13	0	0	0	0	493	344	
14	0	0	0	0	492	344	
15	0	0	0	0	492	344	
0	0	0	0	0	492	344	
1	0	0	0	0	493	344	
2	0	0	0	0	492	344	
3	0	0	0	0	494	344	
4	0	0	0	0	494	344	
5	0	0	0	0	495	344	
6	0	0	0	0	496	344	
7	0	0	0	0	497	344	
8	0	0	0	0	496	344	
9	0	0	0	0	496	344	
10	0	0	0	0	495	344	
11	0	0	0	0	495	344	
12	0	0	0	0	495	344	
13	0	0	0	0	495	344	
14	0	0	0	0	494	344	
15	0	0	0	0	494	344	
0	0	0	0	0	495	344	
1	0	0	0	0	494	344	
2	0	0	0	0	494	344	
3	0	0	0	0	495	344	
4	0	0	0	0	496	344	
5	0	0	0	0	496	344	
6	0	0	0	0	497	344	
7	0	0	0	0	498	344	
8	0	0	0	0	499	344	
9	0	0	0	0	499	344	
10	0	0	0	0	500	344	
11	0	0	0	0	500	344	
12	0	0	0	0	499	344	
13	0	0	0	0	499	344	
14	0	0	0	0	499	344	
15	0	0	0	0	500	344	
0	0	0	0	0	499	344	
1	0	0	0	0	499	344	
2	0	0	0	0	500	344	
3	0	0	0	0	501	344	
4	0	0	0	0	502	344	
5	0	0	0	0	502	344	
6	0	0	0	0	504	344	
7	0	0	0	0	504	344	
8	0	0	0	0	504	344	
9	0	0	0	0	505	344	
10	0	0	0	0	505	344	
11	0	0	0	0	507	344	
12	0	0	0	0	506	344	
13	0	0	0	0	505	344	
14	0	0	0	0	504	344	
15	0	0	0	0	503	344	
0	0	0	0	0	502	344	
1	0	0	0	0	502	344	
2	0	0	0	0	502	344	
3	0	0	0	0	502	344	
4	0	0	0	0	503	344	
5	0	0	0	0	504	344	
6	0	0	0	0	505	344	
7	0	0	0	0	506	344	
8	0	0	0	0	507	344	
9	0	0	0	0	506	344	
10	0	0	0	0	505	344	
11	0	0	0	0	505	344	
12	0	0	0	0	505	344	
13	0	0	0	0	504	344	
14	0	0	0	0	504	344	
15	0	0	0	0	504	344	
0	0	0	0	0	503	344	
1	0	0	0	0	502	344	
2	0	0	0	0	500	344	
3	0	0	0	0	500	344	
4	0	0	0	0	499	344	
5	0	0	0	0	499	344	
6	0	0	0	0	499	344	
7	0	0	0	0	499	344	
8	0	0	0	0	500	344	
9	0	0	0	0	500	344	
10	0	0	0	0	500	344	
11	0	0	0	0	500	344	
12	0	0	0	0	500	344	
13	0	0	0	0	499	344	
14	0	0	0	0	499	344	
15	0	0	0	0	498	344	
0	0	0	0	0	497	344	
1	0	0	0	0	496	343	
2	0	0	0	0	496	344	
3	0	0	0	0	496	344	
4	0	0	0	0	496	344	
5	0	0	0	0	496	344	
6	0	0	0	0	497	343	
7	0	0	0	0	498	343	
8	0	0	0	0	499	344	
9	0	0	0	0	499	344	
10	0	0	0	0	499	343	
11	0	0	0	0	499	344	
12	0	0	0	0	499	344	
13	0	0	0	0	500	344	
14	0	0	0	0	500	344	
15	0	0	0	0	499	344	
0	0	0	0	0	498	344	
1	0	0	0	0	498	343	
2	0	0	0	0	498	344	
3	0	0	0	0	497	343	
4	0	0	0	0	496	343	
5	0	0	0	0	496	343	
6	0	0	0	0	497	343	
7	0	0	0	0	498	344	
8	0	0	0	0	499	343	
9	0	0	0	0	499	343	
10	0	0	0	0	500	344	
11	0	0	0	0	501	343	
12	0	0	0	0	502	344	
13	0	0	0	0	502	343	
14	0	0	0	0	502	343	
15	0	0	0	0	502	343	
0	0	0	0	0	503	343	
1	0	0	0	0	504	344	
2	0	0	0	0	503	343	
3	0	0	0	0	504	343	
4	0	0	0	0	504	343	
5	0	0	0	0	504	343	
6	0	0	0	0	504	343	
7	0	0	0	0	504	343	
8	0	0	0	0	504	343	
9	0	0	0	0	505	343	
10	0	0	0	0	505	343	
11	0	0	0	0	505	343	
12	0	0	0	0	505	343	
13	0	0	0	0	504	343	
14	0	0	0	0	504	343	
15	0	0	0	0	504	343	
0	0	0	0	0	504	344	
1	0	0	0	0	503	343	
2	0	0	0	0	503	343	
3	0	0	0	0	503	343	
4	0	0	0	0	502	343	
5	0	0	0	0	502	343	
6	0	0	0	0	502	343	
7	0	0	0	0	502	343	
8	0	0	0	0	502	343	
9	0	0	0	0	503	343	
10	0	0	0	0	504	343	
11	0	0	0	0	504	343	
12	0	0	0	0	505	343	
13	0	0	0	0	505	343	
14	0	0	0	0	506	343	
15	0	0	0	0	507	343	
0	0	0	0	0	506	343	
1	0	0	0	0	505	343	
2	0	0	0	0	505	343	
3	0	0	0	0	504	343	
4	0	0	0	0	504	343	
5	0	0	0	0	504	343	
6	0	0	0	0	505	343	
7	0	0	0	0	505	343	
8	0	0	0	0	506	343	
9	0	0	0	0	507	343	
10	0	0	0	0	507	343	
11	0	0	0	0	507	343	
12	0	0	0	0	507	343	
13	0	0	0	0	507	343	
14	0	0	0	0	508	343	
15	0	0	0	0	508	343	
0	0	0	0	0	507	343	
1	0	0	0	0	507	343	
2	0	0	0	0	507	343	
3	0	0	0	0	507	343	
4	0	0	0	0	507	343	
5	0	0	0	0	506	343	
6	0	0	0	0	506	343	
7	0	0	0	0	507	343	
8	0	0	0	0	507	343	
9	0	0	0	0	507	343	
10	0	0	0	0	508	343	
11	0	0	0	0	510	343	
12	0	0	0	0	511	343	
13	0	0	0	0	512	343	
14	0	0	0	0	512	343	
15	0	0	0	0	512	343	
0	0	0	0	0	512	343	
1	0	0	0	0	511	343	
2	0	0	0	0	510	343	
3	0	0	0	0	509	343	
4	0	0	0	0	508	343	
5	0	0	0	0	508	343	
6	0	0	0	0	507	343	
7	0	0	0	0	507	343	
8	0	0	0	0	507	343	
9	0	0	0	0	507	343	
10	0	0	0	0	507	343	
11	0	0	0	0	507	343	
12	0	0	0	0	508	343	
13	0	0	0	0	508	343	
14	0	0	0	0	508	343	
15	0	0	0	0	508	343	
0	0	0	0	0	508	343	
1	0	0	0	0	508	343	
2	0	0	0	0	508	343	
3	0	0	0	0	507	343	
4	0	0	0	0	506	343	
5	0	0	0	0	505	343	
6	0	0	0	0	504	343	
7	0	0	0	0	503	343	
8	0	0	0	0	502	343	
9	0	0	0	0	502	343	
10	0	0	0	0	501	342	
11	0	0	0	0	501	343	
12	0	0	0	0	502	343	
13	0	0	0	0	502	343	
14	0	0	0	0	502	343	
15	0	0	0	0	502	343	
0	0	0	0	0	502	343	
1	0	0	0	0	502	343	
2	0	0	0	0	502	343	
3	0	0	0	0	501	343	
4	0	0	0	0	500	343	
5	0	0	0	0	499	343	
6	0	0	0	0	499	343	
7	0	0	0	0	498	343	
8	0	0	0	0	497	343	
9	0	0	0	0	496	343	
10	0	0	0	0	496	342	
11	0	0	0	0	496	343	
12	0	0	0	0	497	343	
13	0	0	0	0	497	343	
14	0	0	0	0	497	342	
15	0	0	0	0	498	343	
0	0	0	0	0	499	343	
1	0	0	0	0	497	342	
2	0	0	0	0	497	343	
3	0	0	0	0	497	343	
4	0	0	0	0	497	343	
5	0	0	0	0	496	343	
6	0	0	0	0	496	343	
7	0	0	0	0	496	343	
8	0	0	0	0	495	342	
9	0	0	0	0	496	343	
10	0	0	0	0	495	343	
11	0	0	0	0	495	343	
12	0	0	0	0	494	343	
13	0	0	0	0	494	342	
14	0	0	0	0	494	343	
15	0	0	0	0	494	343	
0	0	0	0	0	496	342	
1	0	0	0	0	497	342	
2	0	0	0	0	497	342	
3	0	0	0	0	498	343	
4	0	0	0	0	498	342	
5	0	0	0	0	498	343	
6	0	0	0	0	498	342	
7	0	0	0	0	498	342	
8	0	0	0	0	498	342	
9	0	0	0	0	498	342	
10	0	0	0	0	499	342	
11	0	0	0	0	499	342	
12	0	0	0	0	500	342	
13	0	0	0	0	500	343	
14	0	0	0	0	502	342	
15	0	0	0	0	503	342	
0	0	0	0	0	503	342	
1	0	0	0	0	503	342	
2	0	0	0	0	504	342	
3	0	0	0	0	505	342	
4	0	0	0	0	504	342	
5	0	0	0	0	505	342	
6	0	0	0	0	504	343	
7	0	0	0	0	504	343	
8	0	0	0	0	503	342	
9	0	0	0	0	502	342	
10	0	0	0	0	502	342	
11	0	0	0	0	502	342	
12	0	0	0	0	503	342	
13	0	0	0	0	504	342	
14	0	0	0	0	505	342	
15	0	0	0	0	505	342	
0	0	0	0	0	505	342	
1	0	0	0	0	507	342	
2	0	0	0	0	508	342	
3	0	0	0	0	508	342	
4	0	0	0	0	508	342	
5	0	0	0	0	508	342	
6	0	0	0	0	508	342	
7	0	0	0	0	508	342	
8	0	0	0	0	507	342	
9	0	0	0	0	507	342	
10	0	0	0	0	507	342	
11	0	0	0	0	508	342	
12	0	0	0	0	508	342	
13	0	0	0	0	507	342	
14	0	0	0	0	508	342	
15	0	0	0	0	510	342	
0	0	0	0	0	510	342	
1	0	0	0	0	510	342	
2	0	0	0	0	511	342	
3	0	0	0	0	510	342	
4	0	0	0	0	510	342	
5	0	0	0	0	510	342	
6	0	0	0	0	509	342	
7	0	0	0	0	508	342	
8	0	0	0	0	508	342	
9	0	0	0	0	508	342	
10	0	0	0	0	507	342	
11	0	0	0	0	506	342	
12	0	0	0	0	506	342	
13	0	0	0	0	505	342	
14	0	0	0	0	506	342	
15	0	0	0	0	508	342	
0	0	0	0	0	509	342	
1	0	0	0	0	509	342	
2	0	0	0	0	509	342	
3	0	0	0	0	509	342	
4	0	0	0	0	510	342	
5	0	0	0	0	511	342	
6	0	0	0	0	511	342	
7	0	0	0	0	511	342	
8	0	0	0	0	510	342	
9	0	0	0	0	509	342	
10	0	0	0	0	507	342	
11	0	0	0	0	507	342	
12	0	0	0	0	507	342	
13	0	0	0	0	506	342	
14	0	0	0	0	507	342	
15	0	0	0	0	508	342	
0	0	0	0	0	508	342	
1	0	0	0	0	508	342	
2	0	0	0	0	509	342	
3	0	0	0	0	508	342	
4	0	0	0	0	508	342	
5	0	0	0	0	509	342	
6	0	0	0	0	508	342	
7	0	0	0	0	507	342	
8	0	0	0	0	507	342	
9	0	0	0	0	506	342	
10	0	0	0	0	505	342	
11	0	0	0	0	504	342	
12	0	0	0	0	504	342	
13	0	0	0	0	503	342	
14	0	0	0	0	503	342	
15	0	0	0	0	503	342	
0	0	0	0	0	503	342	
1	0	0	0	0	504	342	
2	0	0	0	0	504	342	
3	0	0	0	0	504	342	
4	0	0	0	0	505	342	
5	0	0	0	0	505	342	
6	0	0	0	0	504	342	
7	0	0	0	0	504	342	
8	0	0	0	0	504	342	
9	0	0	0	0	503	342	
10	0	0	0	0	502	342	
11	0	0	0	0	501	342	
12	0	0	0	0	501	342	
13	0	0	0	0	501	342	
14	0	0	0	0	500	342	
15	0	0	0	0	501	342	
0	0	0	0	0	502	341	
1	0	0	0	0	503	341	
2	0	0	0	0	504	342	
3	0	0	0	0	504	342	
4	0	0	0	0	504	342	
5	0	0	0	0	505	341	
6	0	0	0	0	505	341	
7	0	0	0	0	504	342	
8	0	0	0	0	504	341	
9	0	0	0	0	504	341	
10	0	0	0	0	504	342	
11	0	0	0	0	504	342	
12	0	0	0	0	503	341	
13	0	0	0	0	504	341	
14	0	0	0	0	504	341	
15	0	0	0	0	504	341	
0	0	0	0	0	504	341	
1	0	0	0	0	504	341	
2	0	0	0	0	504	341	
3	0	0	0	0	503	341	
4	0	0	0	0	502	341	
5	0	0	0	0	500	341	
6	0	0	0	0	499	341	
7	0	0	0	0	498	341	
8	0	0	0	0	495	341	
9	0	0	0	0	492	341	
10	0	0	0	0	490	342	
11	0	0	0	0	487	341	
12	0	0	0	0	484	341	
13	0	0	0	0	481	341	
14	0	0	0	0	479	341	
15	0	0	0	0	477	341	
0	0	0	0	0	476	341	
1	0	0	0	0	473	341	
2	0	0	0	0	472	341	
3	0	0	0	0	471	341	
4	0	0	0	0	471	341	
5	0	0	0	0	472	341	
6	0	0	0	0	473	341	
7	0	0	0	0	475	341	
8	0	0	0	0	478	341	
9	0	0	0	0	479	341	
10	0	0	0	0	479	341	
11	0	0	0	0	480	341	
12	0	0	0	0	482	341	
13	0	0	0	0	483	341	
14	0	0	0	0	483	341	
15	0	0	0	0	483	341	
0	0	0	0	0	482	341	
1	0	0	0	0	481	341	
2	0	0	0	0	481	341	
3	0	0	0	0	483	341	
4	0	0	0	0	484	341	
5	0	0	0	0	486	341	
6	0	0	0	0	489	341	
7	0	0	0	0	492	341	
8	0	0	0	0	494	341	
9	0	0	0	0	496	341	
10	0	0	0	0	498	341	
11	0	0	0	0	500	341	
12	0	0	0	0	502	341	
13	0	0	0	0	503	341	
14	0	0	0	0	503	341	
15	0	0	0	0	504	341	
0	0	0	0	0	504	341	
1	0	0	0	0	505	341	
2	0	0	0	0	507	341	
3	0	0	0	0	508	341	
4	0	0	0	0	510	341	
5	0	0	0	0	512	341	
6	0	0	0	0	513	341	
7	0	0	0	0	514	341	
8	0	0	0	0	514	341	
9	0	0	0	0	514	341	
10	0	0	0	0	515	341	
11	0	0	0	0	515	341	
12	0	0	0	0	514	341	
13	0	0	0	0	514	341	
14	0	0	0	0	513	341	
15	0	0	0	0	512	341	
0	0	0	0	0	511	341	
1	0	0	0	0	511	340	
2	0	0	0	0	510	341	
3	0	0	0	0	510	341	
4	0	0	0	0	510	341	
5	0	0	0	0	511	340	
6	0	0	0	0	512	341	
7	0	0	0	0	511	341	
8	0	0	0	0	511	341	
9	0	0	0	0	510	340	
10	0	0	0	0	509	340	
11	0	0	0	0	508	341	
12	0	0	0	0	507	341	
13	0	0	0	0	505	341	
14	0	0	0	0	503	340	
15	0	0	0	0	502	340	
0	0	0	0	0	502	341	
1	0	0	0	0	500	340	
2	0	0	0	0	499	340	
3	0	0	0	0	499	341	
4	0	0	0	0	499	340	
5	0	0	0	0	499	340	
6	0	0	0	0	499	340	
7	0	0	0	0	500	340	
8	0	0	0	0	500	340	
9	0	0	0	0	501	340	
10	0	0	0	0	503	340	
11	0	0	0	0	504	340	
12	0	0	0	0	504	341	
13	0	0	0	0	504	340	
14	0	0	0	0	504	340	
15	0	0	0	0	504	340	
0	0	0	0	0	504	340	
1	0	0	0	0	505	340	
2	0	0	0	0	505	340	
3	0	0	0	0	505	340	
4	0	0	0	0	506	340	
5	0	0	0	0	507	340	
6	0	0	0	0	507	340	
7	0	0	0	0	508	340	
8	0	0	0	0	509	340	
9	0	0	0	0	509	340	
10	0	0	0	0	509	340	
11	0	0	0	0	510	340	
12	0	0	0	0	510	340	
13	0	0	0	0	510	340	
14	0	0	0	0	509	340	
15	0	0	0	0	508	340	
0	0	0	0	0	507	340	
1	0	0	0	0	507	340	
2	0	0	0	0	506	340	
3	0	0	0	0	507	340	
4	0	0	0	0	507	340	
5	0	0	0	0	507	340	
6	0	0	0	0	508	340	
7	0	0	0	0	508	340	
8	0	0	0	0	508	340	
9	0	0	0	0	508	340	
10	0	0	0	0	509	340	
11	0	0	0	0	508	340	
12	0	0	0	0	507	340	
13	0	0	0	0	507	340	
14	0	0	0	0	507	340	
15	0	0	0	0	506	340	
0	0	0	0	0	506	340	
1	0	0	0	0	506	340	
2	0	0	0	0	506	340	
3	0	0	0	0	505	340	
4	0	0	0	0	504	340	
5	0	0	0	0	504	340	
6	0	0	0	0	504	340	
7	0	0	0	0	505	340	
8	0	0	0	0	506	340	
9	0	0	0	0	507	340	
10	0	0	0	0	507	340	
11	0	0	0	0	507	340	
12	0	0	0	0	507	340	
13	0	0	0	0	507	340	
14	0	0	0	0	508	340	
15	0	0	0	0	507	340	
0	0	0	0	0	506	340	
1	0	0	0	0	507	340	
2	0	0	0	0	505	340	
3	0	0	0	0	505	340	
4	0	0	0	0	505	340	
5	0	0	0	0	506	340	
6	0	0	0	0	506	340	
7	0	0	0	0	506	340	
8	0	0	0	0	507	340	
9	0	0	0	0	508	340	
10	0	0	0	0	508	340	
11	0	0	0	0	507	340	
12	0	0	0	0	507	340	
13	0	0	0	0	508	340	
14	0	0	0	0	508	340	
15	0	0	0	0	508	340	
0	0	0	0	0	507	340	
1	0	0	0	0	507	340	
2	0	0	0	0	507	340	
3	0	0	0	0	506	340	
4	0	0	0	0	505	339	
5	0	0	0	0	506	340	
6	0	0	0	0	505	340	
7	0	0	0	0	506	340	
8	0	0	0	0	506	340	
9	0	0	0	0	506	339	
10	0	0	0	0	506	340	
11	0	0	0	0	507	340	
12	0	0	0	0	507	339	
13	0	0	0	0	506	340	
14	0	0	0	0	505	340	
15	0	0	0	0	505	340	
0	0	0	0	0	505	340	
1	0	0	0	0	504	339	
2	0	0	0	0	503	339	
3	0	0	0	0	503	339	
4	0	0	0	0	502	340	
5	0	0	0	0	501	340	
6	0	0	0	0	500	339	
7	0	0	0	0	500	339	
8	0	0	0	0	501	339	
9	0	0	0	0	501	339	
10	0	0	0	0	501	339	
11	0	0	0	0	501	339	
12	0	0	0	0	500	339	
13	0	0	0	0	499	339	
14	0	0	0	0	499	339	
15	0	0	0	0	499	339	
0	0	0	0	0	499	339	
1	0	0	0	0	499	339	
2	0	0	0	0	498	339	
3	0	0	0	0	498	339	
4	0	0	0	0	497	339	
5	0	0	0	0	497	339	
6	0	0	0	0	497	339	
7	0	0	0	0	496	339	
8	0	0	0	0	496	339	
9	0	0	0	0	496	339	
10	0	0	0	0	497	339	
11	0	0	0	0	497	339	
12	0	0	0	0	498	339	
13	0	0	0	0	498	339	
14	0	0	0	0	499	339	
15	0	0	0	0	499	339	
0	0	0	0	0	499	339	
1	0	0	0	0	499	339	
2	0	0	0	0	498	339	
3	0	0	0	0	497	339	
4	0	0	0	0	497	339	
5	0	0	0	0	497	339	
6	0	0	0	0	497	339	
7	0	0	0	0	496	339	
8	0	0	0	0	495	339	
9	0	0	0	0	494	339	
10	0	0	0	0	495	339	
11	0	0	0	0	495	339	
12	0	0	0	0	495	339	
13	0	0	0	0	496	339	
14	0	0	0	0	497	339	
15	0	0	0	0	497	339	
0	0	0	0	0	496	339	
1	0	0	0	0	496	339	
2	0	0	0	0	496	339	
3	0	0	0	0	495	339	
4	0	0	0	0	493	339	
5	0	0	0	0	493	339	
6	0	0	0	0	493	339	
7	0	0	0	0	491	339	
8	0	0	0	0	491	339	
9	0	0	0	0	491	339	
10	0	0	0	0	492	339	
11	0	0	0	0	494	339	
12	0	0	0	0	495	339	
13	0	0	0	0	495	339	
14	0	0	0	0	496	339	
15	0	0	0	0	496	339	
0	0	0	0	0	496	339	
1	0	0	0	0	496	339	
2	0	0	0	0	496	339	
3	0	0	0	0	496	339	
4	0	0	0	0	496	339	
5	0	0	0	0	497	339	
6	0	0	0	0	497	339	
7	0	0	0	0	498	339	
8	0	0	0	0	497	339	
9	0	0	0	0	496	339	
10	0	0	0	0	497	339	
11	0	0	0	0	497	339	
12	0	0	0	0	498	339	
13	0	0	0	0	499	339	
14	0	0	0	0	500	339	
15	0	0	0	0	500	339	
0	0	0	0	0	500	339	
1	0	0	0	0	499	339	
2	0	0	0	0	499	339	
3	0	0	0	0	498	339	
4	0	0	0	0	497	339	
5	0	0	0	0	497	339	
6	0	0	0	0	496	339	
7	0	0	0	0	497	339	
8	0	0	0	0	497	339	
9	0	0	0	0	498	339	
10	0	0	0	0	497	339	
11	0	0	0	0	497	339	
12	0	0	0	0	497	339	
13	0	0	0	0	498	339	
14	0	0	0	0	500	339	
15	0	0	0	0	501	339	
0	0	0	0	0	503	339	
1	0	0	0	0	504	338	
2	0	0	0	0	504	339	
3	0	0	0	0	504	339	
4	0	0	0	0	504	339	
5	0	0	0	0	504	339	
6	0	0	0	0	503	339	
7	0	0	0	0	504	338	
8	0	0	0	0	503	339	
9	0	0	0	0	503	339	
10	0	0	0	0	504	338	
11	0	0	0	0	504	339	
12	0	0	0	0	505	338	
13	0	0	0	0	507	339	
14	0	0	0	0	507	339	
15	0	0	0	0	508	338	
0	0	0	0	0	509	339	
1	0	0	0	0	511	339	
2	0	0	0	0	512	338	
3	0	0	0	0	512	339	
4	0	0	0	0	513	339	
5	0	0	0	0	513	338	
6	0	0	0	0	513	338	
7	0	0	0	0	513	339	
8	0	0	0	0	513	338	
9	0	0	0	0	513	338	
10	0	0	0	0	513	338	
11	0	0	0	0	514	338	
12	0	0	0	0	515	338	
13	0	0	0	0	516	338	
14	0	0	0	0	516	338	
15	0	0	0	0	518	338	
0	0	0	0	0	519	338	
1	0	0	0	0	521	338	
2	0	0	0	0	522	338	
3	0	0	0	0	523	338	
4	0	0	0	0	524	338	
5	0	0	0	0	524	338	
6	0	0	0	0	524	338	
7	0	0	0	0	524	338	
8	0	0	0	0	524	338	
9	0	0	0	0	525	338	
10	0	0	0	0	524	338	
11	0	0	0	0	525	338	
12	0	0	0	0	526	338	
13	0	0	0	0	527	338	
14	0	0	0	0	529	338	
15	0	0	0	0	530	338	
0	0	0	0	0	532	338	
1	0	0	0	0	532	338	
2	0	0	0	0	533	338	
3	0	0	0	0	533	338	
4	0	0	0	0	533	338	
5	0	0	0	0	534	338	
6	0	0	0	0	534	338	
7	0	0	0	0	533	338	
8	0	0	0	0	532	338	
9	0	0	0	0	532	338	
10	0	0	0	0	532	338	
11	0	0	0	0	531	338	
12	0	0	0	0	532	338	
13	0	0	0	0	532	338	
14	0	0	0	0	532	338	
15	0	0	0	0	533	338	
0	0	0	0	0	534	338	
1	0	0	0	0	535	338	
2	0	0	0	0	536	338	
3	0	0	0	0	536	338	
4	0	0	0	0	536	338	
5	0	0	0	0	536	338	
6	0	0	0	0	536	338	
7	0	0	0	0	535	338	
8	0	0	0	0	534	338	
9	0	0	0	0	534	338	
10	0	0	0	0	532	338	
11	0	0	0	0	531	338	
12	0	0	0	0	531	338	
13	0	0	0	0	531	338	
14	0	0	0	0	531	338	
15	0	0	0	0	532	338	
0	0	0	0	0	533	338	
1	0	0	0	0	533	338	
2	0	0	0	0	532	338	
3	0	0	0	0	532	338	
4	0	0	0	0	532	338	
5	0	0	0	0	532	337	
6	0	0	0	0	532	338	
7	0	0	0	0	531	338	
8	0	0	0	0	530	338	
9	0	0	0	0	529	337	
10	0	0	0	0	528	338	
11	0	0	0	0	527	338	
12	0	0	0	0	526	337	
13	0	0	0	0	524	337	
14	0	0	0	0	523	337	
15	0	0	0	0	523	338	
0	0	0	0	0	522	337	
1	0	0	0	0	523	337	
2	0	0	0	0	523	337	
3	0	0	0	0	523	338	
4	0	0	0	0	524	337	
5	0	0	0	0	524	337	
6	0	0	0	0	523	337	
7	0	0	0	0	523	338	
8	0	0	0	0	522	337	
9	0	0	0	0	521	337	
10	0	0	0	0	520	337	
11	0	0	0	0	519	337	
12	0	0	0	0	519	337	
13	0	0	0	0	518	337	
14	0	0	0	0	517	337	
15	0	0	0	0	517	337	
0	0	0	0	0	518	337	
1	0	0	0	0	519	337	
2	0	0	0	0	519	337	
3	0	0	0	0	520	337	
4	0	0	0	0	520	337	
5	0	0	0	0	520	337	
6	0	0	0	0	520	337	
7	0	0	0	0	521	337	
8	0	0	0	0	520	337	
9	0	0	0	0	519	337	
10	0	0	0	0	519	337	
11	0	0	0	0	518	338	
12	0	0	0	0	517	337	
13	0	0	0	0	516	337	
14	0	0	0	0	516	337	
15	0	0	0	0	516	337	
0	0	0	0	0	515	337	
1	0	0	0	0	516	337	
2	0	0	0	0	516	337	
3	0	0	0	0	516	337	
4	0	0	0	0	517	337	
5	0	0	0	0	518	337	
6	0	0	0	0	517	337	
7	0	0	0	0	516	337	
8	0	0	0	0	516	337	
9	0	0	0	0	516	337	
10	0	0	0	0	516	337	
11	0	0	0	0	515	337	
12	0	0	0	0	515	337	
13	0	0	0	0	515	337	
14	0	0	0	0	514	337	
15	0	0	0	0	514	337	
0	0	0	0	0	513	337	
1	0	0	0	0	513	337	
2	0	0	0	0	512	337	
3	0	0	0	0	512	337	
4	0	0	0	0	514	337	
5	0	0	0	0	514	337	
6	0	0	0	0	515	337	
7	0	0	0	0	515	337	
8	0	0	0	0	514	337	
9	0	0	0	0	515	337	
10	0	0	0	0	515	337	
11	0	0	0	0	514	337	
12	0	0	0	0	515	337	
13	0	0	0	0	515	337	
14	0	0	0	0	514	337	
15	0	0	0	0	514	337	
0	0	0	0	0	513	337	
1	0	0	0	0	513	337	
2	0	0	0	0	513	337	
3	0	0	0	0	514	337	
4	0	0	0	0	514	337	
5	0	0	0	0	514	337	
6	0	0	0	0	515	337	
7	0	0	0	0	515	337	
8	0	0	0	0	516	337	
9	0	0	0	0	516	337	
10	0	0	0	0	515	337	
11	0	0	0	0	515	337	
12	0	0	0	0	515	337	
13	0	0	0	0	515	337	
14	0	0	0	0	514	337	
15	0	0	0	0	515	337	
0	0	0	0	0	514	337	
1	0	0	0	0	515	337	
2	0	0	0	0	516	337	
3	0	0	0	0	517	337	
4	0	0	0	0	518	337	
5	0	0	0	0	519	337	
6	0	0	0	0	519	337	
7	0	0	0	0	520	337	
8	0	0	0	0	520	337	
9	0	0	0	0	519	337	
10	0	0	0	0	519	337	
11	0	0	0	0	519	337	
12	0	0	0	0	519	337	
13	0	0	0	0	518	337	
14	0	0	0	0	518	337	
15	0	0	0	0	516	337	
0	0	0	0	0	516	337	
1	0	0	0	0	516	336	
2	0	0	0	0	516	337	
3	0	0	0	0	517	337	
4	0	0	0	0	518	336	
5	0	0	0	0	518	336	
6	0	0	0	0	519	337	
7	0	0	0	0	519	336	
8	0	0	0	0	519	337	
9	0	0	0	0	519	337	
10	0	0	0	0	518	336	
11	0	0	0	0	519	337	
12	0	0	0	0	518	337	
13	0	0	0	0	518	336	
14	0	0	0	0	517	336	
15	0	0	0	0	516	336	
0	0	0	0	0	515	337	
1	0	0	0	0	515	336	
2	0	0	0	0	515	336	
3	0	0	0	0	514	336	
4	0	0	0	0	514	336	
5	0	0	0	0	514	336	
6	0	0	0	0	515	336	
7	0	0	0	0	516	336	
8	0	0	0	0	516	336	
9	0	0	0	0	516	336	
10	0	0	0	0	516	336	
11	0	0	0	0	516	336	
12	0	0	0	0	515	336	
13	0	0	0	0	516	336	
14	0	0	0	0	515	336	
15	0	0	0	0	515	336	
0	0	0	0	0	515	336	
1	0	0	0	0	514	336	
2	0	0	0	0	513	336	
3	0	0	0	0	513	336	
4	0	0	0	0	512	336	
5	0	0	0	0	512	336	
6	0	0	0	0	513	336	
7	0	0	0	0	513	336	
8	0	0	0	0	513	336	
9	0	0	0	0	513	336	
10	0	0	0	0	513	336	
11	0	0	0	0	513	336	
12	0	0	0	0	513	336	
13	0	0	0	0	512	336	
14	0	0	0	0	512	336	
15	0	0	0	0	512	336	
0	0	0	0	0	511	336	
1	0	0	0	0	510	336	
2	0	0	0	0	509	336	
3	0	0	0	0	509	336	
4	0	0	0	0	509	336	
5	0	0	0	0	509	336	
6	0	0	0	0	510	336	
7	0	0	0	0	510	336	
8	0	0	0	0	511	336	
9	0	0	0	0	511	336	
10	0	0	0	0	511	336	
11	0	0	0	0	511	336	
12	0	0	0	0	510	336	
13	0	0	0	0	510	336	
14	0	0	0	0	509	336	
15	0	0	0	0	509	336	
0	0	0	0	0	509	336	
1	0	0	0	0	509	336	
2	0	0	0	0	509	336	
3	0	0	0	0	509	336	
4	0	0	0	0	509	336	
5	0	0	0	0	510	336	
6	0	0	0	0	510	336	
7	0	0	0	0	510	336	
8	0	0	0	0	511	336	
9	0	0	0	0	512	336	
10	0	0	0	0	511	336	
11	0	0	0	0	511	336	
12	0	0	0	0	512	336	
13	0	0	0	0	512	336	
14	0	0	0	0	512	336	
15	0	0	0	0	511	336	
0	0	0	0	0	511	336	
1	0	0	0	0	510	336	
2	0	0	0	0	509	336	
3	0	0	0	0	509	336	
4	0	0	0	0	509	336	
5	0	0	0	0	510	336	
6	0	0	0	0	510	336	
7	0	0	0	0	511	335	
8	0	0	0	0	511	336	
9	0	0	0	0	511	336	
10	0	0	0	0	512	336	
11	0	0	0	0	512	336	
12	0	0	0	0	512	336	
13	0	0	0	0	512	336	
14	0	0	0	0	512	335	
15	0	0	0	0	511	336	
0	0	0	0	0	511	336	
1	0	0	0	0	510	336	
2	0	0	0	0	509	336	
3	0	0	0	0	508	336	
4	0	0	0	0	508	336	
5	0	0	0	0	508	336	
6	0	0	0	0	508	336	
7	0	0	0	0	508	335	
8	0	0	0	0	509	336	
9	0	0	0	0	509	335	
10	0	0	0	0	510	336	
11	0	0	0	0	510	335	
12	0	0	0	0	510	335	
13	0	0	0	0	509	336	
14	0	0	0	0	510	335	
15	0	0	0	0	510	336	
0	0	0	0	0	510	336	
1	0	0	0	0	509	335	
2	0	0	0	0	509	336	
3	0	0	0	0	508	335	
4	0	0	0	0	509	335	
5	0	0	0	0	510	335	
6	0	0	0	0	510	335	
7	0	0	0	0	510	335	
8	0	0	0	0	510	335	
9	0	0	0	0	511	335	
10	0	0	0	0	512	335	
11	0	0	0	0	512	335	
12	0	0	0	0	512	335	
13	0	0	0	0	512	335	
14	0	0	0	0	512	335	
15	0	0	0	0	511	335	
0	0	0	0	0	511	335	
1	0	0	0	0	511	335	
2	0	0	0	0	511	335	
