# OpenSignals Text File Format. Version 1
# {"98:D3:B1:FD:3D:90": {"position": 0, "device": "bitalino_rev", "device name": "98:D3:B1:FD:3D:90", "device connection": "BTH98:D3:B1:FD:3D:90", "sampling rate": 1000, "resolution": [4, 1, 1, 1, 1, 10, 10], "firmware version": 1281, "comments": "", "keywords": "", "mode": 0, "sync interval": 2, "date": "2022-4-14", "time": "17:46:9.689", "channels": [2, 3], "sensor": ["ECGBIT", "EDABITREV"], "label": ["A2", "A3"], "column": ["nSeq", "I1", "I2", "O1", "O2", "A2", "A3"], "special": [{}, {}], "digital IO": [0, 0, 1, 1]}}
# EndOfHeader
0	0	0	0	0	524	281	
1	0	0	0	0	526	281	
2	0	0	0	0	527	281	
3	0	0	0	0	529	281	
4	0	0	0	0	530	281	
5	0	0	0	0	532	281	
6	0	0	0	0	532	281	
7	0	0	0	0	532	281	
8	0	0	0	0	532	281	
9	0	0	0	0	531	281	
10	0	0	0	0	532	281	
11	0	0	0	0	531	281	
12	0	0	0	0	531	281	
13	0	0	0	0	532	281	
14	0	0	0	0	532	281	
15	0	0	0	0	534	281	
0	0	0	0	0	534	281	
1	0	0	0	0	535	281	
2	0	0	0	0	536	281	
3	0	0	0	0	536	281	
4	0	0	0	0	537	281	
5	0	0	0	0	536	281	
6	0	0	0	0	537	281	
7	0	0	0	0	537	281	
8	0	0	0	0	537	281	
9	0	0	0	0	537	281	
10	0	0	0	0	536	281	
11	0	0	0	0	536	281	
12	0	0	0	0	535	281	
13	0	0	0	0	534	281	
14	0	0	0	0	534	281	
15	0	0	0	0	534	281	
0	0	0	0	0	534	281	
1	0	0	0	0	535	281	
2	0	0	0	0	535	281	
3	0	0	0	0	535	281	
4	0	0	0	0	535	281	
5	0	0	0	0	536	281	
6	0	0	0	0	536	281	
7	0	0	0	0	535	281	
8	0	0	0	0	534	281	
9	0	0	0	0	534	281	
10	0	0	0	0	533	281	
11	0	0	0	0	532	281	
12	0	0	0	0	531	281	
13	0	0	0	0	530	281	
14	0	0	0	0	531	281	
15	0	0	0	0	531	281	
0	0	0	0	0	531	281	
1	0	0	0	0	531	281	
2	0	0	0	0	533	281	
3	0	0	0	0	532	281	
4	0	0	0	0	533	281	
5	0	0	0	0	534	281	
6	0	0	0	0	534	281	
7	0	0	0	0	534	281	
8	0	0	0	0	534	281	
9	0	0	0	0	533	281	
10	0	0	0	0	532	281	
11	0	0	0	0	531	281	
12	0	0	0	0	531	281	
13	0	0	0	0	531	281	
14	0	0	0	0	531	281	
15	0	0	0	0	531	281	
0	0	0	0	0	530	281	
1	0	0	0	0	531	281	
2	0	0	0	0	531	281	
3	0	0	0	0	532	281	
4	0	0	0	0	532	281	
5	0	0	0	0	532	281	
6	0	0	0	0	532	281	
7	0	0	0	0	533	281	
8	0	0	0	0	532	281	
9	0	0	0	0	532	281	
10	0	0	0	0	531	281	
11	0	0	0	0	531	281	
12	0	0	0	0	531	281	
13	0	0	0	0	531	281	
14	0	0	0	0	530	281	
15	0	0	0	0	529	281	
0	0	0	0	0	529	281	
1	0	0	0	0	529	281	
2	0	0	0	0	529	281	
3	0	0	0	0	529	281	
4	0	0	0	0	528	281	
5	0	0	0	0	528	281	
6	0	0	0	0	529	281	
7	0	0	0	0	528	281	
8	0	0	0	0	528	281	
9	0	0	0	0	528	281	
10	0	0	0	0	528	281	
11	0	0	0	0	527	281	
12	0	0	0	0	526	281	
13	0	0	0	0	526	281	
14	0	0	0	0	524	281	
15	0	0	0	0	523	281	
0	0	0	0	0	522	281	
1	0	0	0	0	522	281	
2	0	0	0	0	523	281	
3	0	0	0	0	523	281	
4	0	0	0	0	523	281	
5	0	0	0	0	523	281	
6	0	0	0	0	523	281	
7	0	0	0	0	523	281	
8	0	0	0	0	523	281	
9	0	0	0	0	523	281	
10	0	0	0	0	521	281	
11	0	0	0	0	521	281	
12	0	0	0	0	521	281	
13	0	0	0	0	519	281	
14	0	0	0	0	519	281	
15	0	0	0	0	518	281	
0	0	0	0	0	517	281	
1	0	0	0	0	516	281	
2	0	0	0	0	517	281	
3	0	0	0	0	518	281	
4	0	0	0	0	519	281	
5	0	0	0	0	519	281	
6	0	0	0	0	518	281	
7	0	0	0	0	518	281	
8	0	0	0	0	519	281	
9	0	0	0	0	519	281	
10	0	0	0	0	519	281	
11	0	0	0	0	519	281	
12	0	0	0	0	518	281	
13	0	0	0	0	518	281	
14	0	0	0	0	518	281	
15	0	0	0	0	517	281	
0	0	0	0	0	517	281	
1	0	0	0	0	517	281	
2	0	0	0	0	516	281	
3	0	0	0	0	515	281	
4	0	0	0	0	515	281	
5	0	0	0	0	516	281	
6	0	0	0	0	517	281	
7	0	0	0	0	517	281	
8	0	0	0	0	516	281	
9	0	0	0	0	516	281	
10	0	0	0	0	517	281	
11	0	0	0	0	516	281	
12	0	0	0	0	515	281	
13	0	0	0	0	514	281	
14	0	0	0	0	513	281	
15	0	0	0	0	512	281	
0	0	0	0	0	512	281	
1	0	0	0	0	512	281	
2	0	0	0	0	512	281	
3	0	0	0	0	512	281	
4	0	0	0	0	513	281	
5	0	0	0	0	513	281	
6	0	0	0	0	514	281	
7	0	0	0	0	515	281	
8	0	0	0	0	514	281	
9	0	0	0	0	514	281	
10	0	0	0	0	514	281	
11	0	0	0	0	513	281	
12	0	0	0	0	514	281	
13	0	0	0	0	514	281	
14	0	0	0	0	514	281	
15	0	0	0	0	513	281	
0	0	0	0	0	513	281	
1	0	0	0	0	513	281	
2	0	0	0	0	514	281	
3	0	0	0	0	514	281	
4	0	0	0	0	514	281	
5	0	0	0	0	515	281	
6	0	0	0	0	515	281	
7	0	0	0	0	515	281	
8	0	0	0	0	516	281	
9	0	0	0	0	516	281	
10	0	0	0	0	516	281	
11	0	0	0	0	516	281	
12	0	0	0	0	516	281	
13	0	0	0	0	516	281	
14	0	0	0	0	515	281	
15	0	0	0	0	514	281	
0	0	0	0	0	513	281	
1	0	0	0	0	513	281	
2	0	0	0	0	512	281	
3	0	0	0	0	511	281	
4	0	0	0	0	511	281	
5	0	0	0	0	512	281	
6	0	0	0	0	512	281	
7	0	0	0	0	513	281	
8	0	0	0	0	513	281	
9	0	0	0	0	513	281	
10	0	0	0	0	513	281	
11	0	0	0	0	513	281	
12	0	0	0	0	512	281	
13	0	0	0	0	512	281	
14	0	0	0	0	511	281	
15	0	0	0	0	511	281	
0	0	0	0	0	510	281	
1	0	0	0	0	509	281	
2	0	0	0	0	508	281	
3	0	0	0	0	509	281	
4	0	0	0	0	509	281	
5	0	0	0	0	510	281	
6	0	0	0	0	511	281	
7	0	0	0	0	511	281	
8	0	0	0	0	511	281	
9	0	0	0	0	512	281	
10	0	0	0	0	512	281	
11	0	0	0	0	512	281	
12	0	0	0	0	511	281	
13	0	0	0	0	511	281	
14	0	0	0	0	511	281	
15	0	0	0	0	510	281	
0	0	0	0	0	509	281	
1	0	0	0	0	508	281	
2	0	0	0	0	507	281	
3	0	0	0	0	507	281	
4	0	0	0	0	506	281	
5	0	0	0	0	505	281	
6	0	0	0	0	505	281	
7	0	0	0	0	507	281	
8	0	0	0	0	507	281	
9	0	0	0	0	508	281	
10	0	0	0	0	509	281	
11	0	0	0	0	508	281	
12	0	0	0	0	509	281	
13	0	0	0	0	509	281	
14	0	0	0	0	509	281	
15	0	0	0	0	508	281	
0	0	0	0	0	507	281	
1	0	0	0	0	507	281	
2	0	0	0	0	507	281	
3	0	0	0	0	505	281	
4	0	0	0	0	505	281	
5	0	0	0	0	504	281	
6	0	0	0	0	503	281	
7	0	0	0	0	503	281	
8	0	0	0	0	504	281	
9	0	0	0	0	505	281	
10	0	0	0	0	506	281	
11	0	0	0	0	507	281	
12	0	0	0	0	507	281	
13	0	0	0	0	508	281	
14	0	0	0	0	508	281	
15	0	0	0	0	509	281	
0	0	0	0	0	508	281	
1	0	0	0	0	506	281	
2	0	0	0	0	504	281	
3	0	0	0	0	503	281	
4	0	0	0	0	503	281	
5	0	0	0	0	504	281	
6	0	0	0	0	504	281	
7	0	0	0	0	503	281	
8	0	0	0	0	504	281	
9	0	0	0	0	504	281	
10	0	0	0	0	506	281	
11	0	0	0	0	506	281	
12	0	0	0	0	506	281	
13	0	0	0	0	507	281	
14	0	0	0	0	507	281	
15	0	0	0	0	507	281	
0	0	0	0	0	507	281	
1	0	0	0	0	506	281	
2	0	0	0	0	505	281	
3	0	0	0	0	505	281	
4	0	0	0	0	504	281	
5	0	0	0	0	503	281	
6	0	0	0	0	502	281	
7	0	0	0	0	503	281	
8	0	0	0	0	503	281	
9	0	0	0	0	504	281	
10	0	0	0	0	505	281	
11	0	0	0	0	505	281	
12	0	0	0	0	505	281	
13	0	0	0	0	505	281	
14	0	0	0	0	506	281	
15	0	0	0	0	507	281	
0	0	0	0	0	507	281	
1	0	0	0	0	507	281	
2	0	0	0	0	507	281	
3	0	0	0	0	505	281	
4	0	0	0	0	505	281	
5	0	0	0	0	504	281	
6	0	0	0	0	504	281	
7	0	0	0	0	504	281	
8	0	0	0	0	503	281	
9	0	0	0	0	504	281	
10	0	0	0	0	504	281	
11	0	0	0	0	505	281	
12	0	0	0	0	505	281	
13	0	0	0	0	505	281	
14	0	0	0	0	505	281	
15	0	0	0	0	505	281	
0	0	0	0	0	505	281	
1	0	0	0	0	505	281	
2	0	0	0	0	505	281	
3	0	0	0	0	504	281	
4	0	0	0	0	504	281	
5	0	0	0	0	503	281	
6	0	0	0	0	502	281	
7	0	0	0	0	501	281	
8	0	0	0	0	501	281	
9	0	0	0	0	503	281	
10	0	0	0	0	503	281	
11	0	0	0	0	504	281	
12	0	0	0	0	505	281	
13	0	0	0	0	505	281	
14	0	0	0	0	506	281	
15	0	0	0	0	506	281	
0	0	0	0	0	507	281	
1	0	0	0	0	506	281	
2	0	0	0	0	506	281	
3	0	0	0	0	504	281	
4	0	0	0	0	504	281	
5	0	0	0	0	502	281	
6	0	0	0	0	502	281	
7	0	0	0	0	501	281	
8	0	0	0	0	501	281	
9	0	0	0	0	502	281	
10	0	0	0	0	502	281	
11	0	0	0	0	503	281	
12	0	0	0	0	503	281	
13	0	0	0	0	504	281	
14	0	0	0	0	503	281	
15	0	0	0	0	504	281	
0	0	0	0	0	504	281	
1	0	0	0	0	505	281	
2	0	0	0	0	505	281	
3	0	0	0	0	505	281	
4	0	0	0	0	505	281	
5	0	0	0	0	504	281	
6	0	0	0	0	504	281	
7	0	0	0	0	503	281	
8	0	0	0	0	502	281	
9	0	0	0	0	502	281	
10	0	0	0	0	502	281	
11	0	0	0	0	502	281	
12	0	0	0	0	503	281	
13	0	0	0	0	504	281	
14	0	0	0	0	505	281	
15	0	0	0	0	506	281	
0	0	0	0	0	507	281	
1	0	0	0	0	507	281	
2	0	0	0	0	507	281	
3	0	0	0	0	505	281	
4	0	0	0	0	505	281	
5	0	0	0	0	505	281	
6	0	0	0	0	505	281	
7	0	0	0	0	504	281	
8	0	0	0	0	504	281	
9	0	0	0	0	504	281	
10	0	0	0	0	504	281	
11	0	0	0	0	503	281	
12	0	0	0	0	503	281	
13	0	0	0	0	503	281	
14	0	0	0	0	503	281	
15	0	0	0	0	504	281	
0	0	0	0	0	504	281	
1	0	0	0	0	503	281	
2	0	0	0	0	503	281	
3	0	0	0	0	503	281	
4	0	0	0	0	503	281	
5	0	0	0	0	503	281	
6	0	0	0	0	503	281	
7	0	0	0	0	502	281	
8	0	0	0	0	501	281	
9	0	0	0	0	500	281	
10	0	0	0	0	501	281	
11	0	0	0	0	500	281	
12	0	0	0	0	501	281	
13	0	0	0	0	502	281	
14	0	0	0	0	502	281	
15	0	0	0	0	503	281	
0	0	0	0	0	503	281	
1	0	0	0	0	504	281	
2	0	0	0	0	505	281	
3	0	0	0	0	505	281	
4	0	0	0	0	506	281	
5	0	0	0	0	506	281	
6	0	0	0	0	506	281	
7	0	0	0	0	505	281	
8	0	0	0	0	504	281	
9	0	0	0	0	504	281	
10	0	0	0	0	504	281	
11	0	0	0	0	504	281	
12	0	0	0	0	505	281	
13	0	0	0	0	505	281	
14	0	0	0	0	506	281	
15	0	0	0	0	506	281	
0	0	0	0	0	506	281	
1	0	0	0	0	506	281	
2	0	0	0	0	505	281	
3	0	0	0	0	506	281	
4	0	0	0	0	507	281	
5	0	0	0	0	506	281	
6	0	0	0	0	505	281	
7	0	0	0	0	504	281	
8	0	0	0	0	504	281	
9	0	0	0	0	503	281	
10	0	0	0	0	502	281	
11	0	0	0	0	503	281	
12	0	0	0	0	503	281	
13	0	0	0	0	504	281	
14	0	0	0	0	505	281	
15	0	0	0	0	506	281	
0	0	0	0	0	506	281	
1	0	0	0	0	505	281	
2	0	0	0	0	506	281	
3	0	0	0	0	507	281	
4	0	0	0	0	507	281	
5	0	0	0	0	507	281	
6	0	0	0	0	507	281	
7	0	0	0	0	507	281	
8	0	0	0	0	507	281	
9	0	0	0	0	507	281	
10	0	0	0	0	506	281	
11	0	0	0	0	505	281	
12	0	0	0	0	505	281	
13	0	0	0	0	505	281	
14	0	0	0	0	504	281	
15	0	0	0	0	505	281	
0	0	0	0	0	505	281	
1	0	0	0	0	506	281	
2	0	0	0	0	505	281	
3	0	0	0	0	506	281	
4	0	0	0	0	506	281	
5	0	0	0	0	507	281	
6	0	0	0	0	507	281	
7	0	0	0	0	506	281	
8	0	0	0	0	505	281	
9	0	0	0	0	505	281	
10	0	0	0	0	504	281	
11	0	0	0	0	504	281	
12	0	0	0	0	505	281	
13	0	0	0	0	505	281	
14	0	0	0	0	506	281	
15	0	0	0	0	506	281	
0	0	0	0	0	507	281	
1	0	0	0	0	508	281	
2	0	0	0	0	509	281	
3	0	0	0	0	509	281	
4	0	0	0	0	510	281	
5	0	0	0	0	510	281	
6	0	0	0	0	510	281	
7	0	0	0	0	509	281	
8	0	0	0	0	508	281	
9	0	0	0	0	508	281	
10	0	0	0	0	508	281	
11	0	0	0	0	507	281	
12	0	0	0	0	507	281	
13	0	0	0	0	508	281	
14	0	0	0	0	508	281	
15	0	0	0	0	508	281	
0	0	0	0	0	508	281	
1	0	0	0	0	509	281	
2	0	0	0	0	510	281	
3	0	0	0	0	511	281	
4	0	0	0	0	511	281	
5	0	0	0	0	512	281	
6	0	0	0	0	512	281	
7	0	0	0	0	513	281	
8	0	0	0	0	513	281	
9	0	0	0	0	513	281	
10	0	0	0	0	512	281	
11	0	0	0	0	511	281	
12	0	0	0	0	512	281	
13	0	0	0	0	511	281	
14	0	0	0	0	511	281	
15	0	0	0	0	511	281	
0	0	0	0	0	510	281	
1	0	0	0	0	511	281	
2	0	0	0	0	511	281	
3	0	0	0	0	511	281	
4	0	0	0	0	512	281	
5	0	0	0	0	511	281	
6	0	0	0	0	512	281	
7	0	0	0	0	512	281	
8	0	0	0	0	512	281	
9	0	0	0	0	512	281	
10	0	0	0	0	511	281	
11	0	0	0	0	510	281	
12	0	0	0	0	509	281	
13	0	0	0	0	508	281	
14	0	0	0	0	508	281	
15	0	0	0	0	509	281	
0	0	0	0	0	509	281	
1	0	0	0	0	510	281	
2	0	0	0	0	510	281	
3	0	0	0	0	511	281	
4	0	0	0	0	512	281	
5	0	0	0	0	512	281	
6	0	0	0	0	512	281	
7	0	0	0	0	512	281	
8	0	0	0	0	512	281	
9	0	0	0	0	512	281	
10	0	0	0	0	512	281	
11	0	0	0	0	511	281	
12	0	0	0	0	510	281	
13	0	0	0	0	510	281	
14	0	0	0	0	509	281	
15	0	0	0	0	508	281	
0	0	0	0	0	508	281	
1	0	0	0	0	508	281	
2	0	0	0	0	509	281	
3	0	0	0	0	510	281	
4	0	0	0	0	510	281	
5	0	0	0	0	510	281	
6	0	0	0	0	510	281	
7	0	0	0	0	511	281	
8	0	0	0	0	511	281	
9	0	0	0	0	510	281	
10	0	0	0	0	510	281	
11	0	0	0	0	509	281	
12	0	0	0	0	508	281	
13	0	0	0	0	507	281	
14	0	0	0	0	506	281	
15	0	0	0	0	505	281	
0	0	0	0	0	505	281	
1	0	0	0	0	504	281	
2	0	0	0	0	505	281	
3	0	0	0	0	505	281	
4	0	0	0	0	505	281	
5	0	0	0	0	506	281	
6	0	0	0	0	506	281	
7	0	0	0	0	506	281	
8	0	0	0	0	506	281	
9	0	0	0	0	506	281	
10	0	0	0	0	506	281	
11	0	0	0	0	506	281	
12	0	0	0	0	504	281	
13	0	0	0	0	504	281	
14	0	0	0	0	502	281	
15	0	0	0	0	502	281	
0	0	0	0	0	501	281	
1	0	0	0	0	501	281	
2	0	0	0	0	502	281	
3	0	0	0	0	502	281	
4	0	0	0	0	503	281	
5	0	0	0	0	504	281	
6	0	0	0	0	504	281	
7	0	0	0	0	504	281	
8	0	0	0	0	504	281	
9	0	0	0	0	504	281	
10	0	0	0	0	504	281	
11	0	0	0	0	504	281	
12	0	0	0	0	504	281	
13	0	0	0	0	503	281	
14	0	0	0	0	503	281	
15	0	0	0	0	502	281	
0	0	0	0	0	503	281	
1	0	0	0	0	503	281	
2	0	0	0	0	502	281	
3	0	0	0	0	502	281	
4	0	0	0	0	502	281	
5	0	0	0	0	502	281	
6	0	0	0	0	503	281	
7	0	0	0	0	504	281	
8	0	0	0	0	504	281	
9	0	0	0	0	504	281	
10	0	0	0	0	504	281	
11	0	0	0	0	504	281	
12	0	0	0	0	502	281	
13	0	0	0	0	503	281	
14	0	0	0	0	502	281	
15	0	0	0	0	502	281	
0	0	0	0	0	502	281	
1	0	0	0	0	502	281	
2	0	0	0	0	502	281	
3	0	0	0	0	502	281	
4	0	0	0	0	502	281	
5	0	0	0	0	503	281	
6	0	0	0	0	504	281	
7	0	0	0	0	504	281	
8	0	0	0	0	504	281	
9	0	0	0	0	503	281	
10	0	0	0	0	504	281	
11	0	0	0	0	504	281	
12	0	0	0	0	504	281	
13	0	0	0	0	504	281	
14	0	0	0	0	504	281	
15	0	0	0	0	503	281	
0	0	0	0	0	503	281	
1	0	0	0	0	502	281	
2	0	0	0	0	502	281	
3	0	0	0	0	502	281	
4	0	0	0	0	501	281	
5	0	0	0	0	502	281	
6	0	0	0	0	503	281	
7	0	0	0	0	503	281	
8	0	0	0	0	504	281	
9	0	0	0	0	505	281	
10	0	0	0	0	506	281	
11	0	0	0	0	504	281	
12	0	0	0	0	504	281	
13	0	0	0	0	504	281	
14	0	0	0	0	504	281	
15	0	0	0	0	503	281	
0	0	0	0	0	502	281	
1	0	0	0	0	501	281	
2	0	0	0	0	500	281	
3	0	0	0	0	499	281	
4	0	0	0	0	499	281	
5	0	0	0	0	499	281	
6	0	0	0	0	500	281	
7	0	0	0	0	501	281	
8	0	0	0	0	502	281	
9	0	0	0	0	503	281	
10	0	0	0	0	504	281	
11	0	0	0	0	504	281	
12	0	0	0	0	504	281	
13	0	0	0	0	504	281	
14	0	0	0	0	504	281	
15	0	0	0	0	503	281	
0	0	0	0	0	502	281	
1	0	0	0	0	501	281	
2	0	0	0	0	500	281	
3	0	0	0	0	501	281	
4	0	0	0	0	501	281	
5	0	0	0	0	501	281	
6	0	0	0	0	501	281	
7	0	0	0	0	501	281	
8	0	0	0	0	501	281	
9	0	0	0	0	501	281	
10	0	0	0	0	500	281	
11	0	0	0	0	500	281	
12	0	0	0	0	501	281	
13	0	0	0	0	500	281	
14	0	0	0	0	500	281	
15	0	0	0	0	500	281	
0	0	0	0	0	500	281	
1	0	0	0	0	500	281	
2	0	0	0	0	499	281	
3	0	0	0	0	499	281	
4	0	0	0	0	499	281	
5	0	0	0	0	498	281	
6	0	0	0	0	497	281	
7	0	0	0	0	497	281	
8	0	0	0	0	497	281	
9	0	0	0	0	496	281	
10	0	0	0	0	496	281	
11	0	0	0	0	496	281	
12	0	0	0	0	496	281	
13	0	0	0	0	496	281	
14	0	0	0	0	495	281	
15	0	0	0	0	495	281	
0	0	0	0	0	496	281	
1	0	0	0	0	495	281	
2	0	0	0	0	495	281	
3	0	0	0	0	494	281	
4	0	0	0	0	494	281	
5	0	0	0	0	493	281	
6	0	0	0	0	493	281	
7	0	0	0	0	494	281	
8	0	0	0	0	495	281	
9	0	0	0	0	497	281	
10	0	0	0	0	499	281	
11	0	0	0	0	500	281	
12	0	0	0	0	502	281	
13	0	0	0	0	503	281	
14	0	0	0	0	504	281	
15	0	0	0	0	504	281	
0	0	0	0	0	504	281	
1	0	0	0	0	504	281	
2	0	0	0	0	504	281	
3	0	0	0	0	502	281	
4	0	0	0	0	501	281	
5	0	0	0	0	500	281	
6	0	0	0	0	500	281	
7	0	0	0	0	500	281	
8	0	0	0	0	502	281	
9	0	0	0	0	502	281	
10	0	0	0	0	503	281	
11	0	0	0	0	504	281	
12	0	0	0	0	505	281	
13	0	0	0	0	506	281	
14	0	0	0	0	507	281	
15	0	0	0	0	507	281	
0	0	0	0	0	508	281	
1	0	0	0	0	509	281	
2	0	0	0	0	509	281	
3	0	0	0	0	509	281	
4	0	0	0	0	509	281	
5	0	0	0	0	509	281	
6	0	0	0	0	508	281	
7	0	0	0	0	508	281	
8	0	0	0	0	508	281	
9	0	0	0	0	507	281	
10	0	0	0	0	508	281	
11	0	0	0	0	510	281	
12	0	0	0	0	512	281	
13	0	0	0	0	513	281	
14	0	0	0	0	513	281	
15	0	0	0	0	514	281	
0	0	0	0	0	515	281	
1	0	0	0	0	515	281	
2	0	0	0	0	514	281	
3	0	0	0	0	513	281	
4	0	0	0	0	512	281	
5	0	0	0	0	512	281	
6	0	0	0	0	511	281	
7	0	0	0	0	511	281	
8	0	0	0	0	510	281	
9	0	0	0	0	510	281	
10	0	0	0	0	511	281	
11	0	0	0	0	511	281	
12	0	0	0	0	512	281	
13	0	0	0	0	513	281	
14	0	0	0	0	514	281	
15	0	0	0	0	513	281	
0	0	0	0	0	513	281	
1	0	0	0	0	513	281	
2	0	0	0	0	512	281	
3	0	0	0	0	512	281	
4	0	0	0	0	513	281	
5	0	0	0	0	512	281	
6	0	0	0	0	512	281	
7	0	0	0	0	512	281	
8	0	0	0	0	511	281	
9	0	0	0	0	510	281	
10	0	0	0	0	511	281	
11	0	0	0	0	511	281	
12	0	0	0	0	512	281	
13	0	0	0	0	512	281	
14	0	0	0	0	512	281	
15	0	0	0	0	512	281	
0	0	0	0	0	512	281	
1	0	0	0	0	511	281	
2	0	0	0	0	511	281	
3	0	0	0	0	511	281	
4	0	0	0	0	511	281	
5	0	0	0	0	510	281	
6	0	0	0	0	509	281	
7	0	0	0	0	508	281	
8	0	0	0	0	508	281	
9	0	0	0	0	508	281	
10	0	0	0	0	508	281	
11	0	0	0	0	508	281	
12	0	0	0	0	508	281	
13	0	0	0	0	509	281	
14	0	0	0	0	511	281	
15	0	0	0	0	512	281	
0	0	0	0	0	512	281	
1	0	0	0	0	512	281	
2	0	0	0	0	512	281	
3	0	0	0	0	511	281	
4	0	0	0	0	511	281	
5	0	0	0	0	511	281	
6	0	0	0	0	509	281	
7	0	0	0	0	509	281	
8	0	0	0	0	509	281	
9	0	0	0	0	510	281	
10	0	0	0	0	510	281	
11	0	0	0	0	510	281	
12	0	0	0	0	510	281	
13	0	0	0	0	511	281	
14	0	0	0	0	511	281	
15	0	0	0	0	512	281	
0	0	0	0	0	512	281	
1	0	0	0	0	512	281	
2	0	0	0	0	512	281	
3	0	0	0	0	511	281	
4	0	0	0	0	512	281	
5	0	0	0	0	511	281	
6	0	0	0	0	512	281	
7	0	0	0	0	512	281	
8	0	0	0	0	512	281	
9	0	0	0	0	511	281	
10	0	0	0	0	511	281	
11	0	0	0	0	511	281	
12	0	0	0	0	512	281	
13	0	0	0	0	513	281	
14	0	0	0	0	513	281	
15	0	0	0	0	514	281	
0	0	0	0	0	514	281	
1	0	0	0	0	515	281	
2	0	0	0	0	515	281	
3	0	0	0	0	515	281	
4	0	0	0	0	514	281	
5	0	0	0	0	513	281	
6	0	0	0	0	513	281	
7	0	0	0	0	513	281	
8	0	0	0	0	513	281	
9	0	0	0	0	513	281	
10	0	0	0	0	513	281	
11	0	0	0	0	514	281	
12	0	0	0	0	514	281	
13	0	0	0	0	513	281	
14	0	0	0	0	513	281	
15	0	0	0	0	514	281	
0	0	0	0	0	513	281	
1	0	0	0	0	512	281	
2	0	0	0	0	511	281	
3	0	0	0	0	509	281	
4	0	0	0	0	507	281	
5	0	0	0	0	504	281	
6	0	0	0	0	502	281	
7	0	0	0	0	499	281	
8	0	0	0	0	498	281	
9	0	0	0	0	496	281	
10	0	0	0	0	494	281	
11	0	0	0	0	490	281	
12	0	0	0	0	487	281	
13	0	0	0	0	487	281	
14	0	0	0	0	486	281	
15	0	0	0	0	487	281	
0	0	0	0	0	489	281	
1	0	0	0	0	492	281	
2	0	0	0	0	495	281	
3	0	0	0	0	497	281	
4	0	0	0	0	500	281	
5	0	0	0	0	501	281	
6	0	0	0	0	503	281	
7	0	0	0	0	504	281	
8	0	0	0	0	504	281	
9	0	0	0	0	504	281	
10	0	0	0	0	504	281	
11	0	0	0	0	504	281	
12	0	0	0	0	503	281	
13	0	0	0	0	504	281	
14	0	0	0	0	504	281	
15	0	0	0	0	505	281	
0	0	0	0	0	506	281	
1	0	0	0	0	508	281	
2	0	0	0	0	510	281	
3	0	0	0	0	511	281	
4	0	0	0	0	512	281	
5	0	0	0	0	512	281	
6	0	0	0	0	512	281	
7	0	0	0	0	513	281	
8	0	0	0	0	512	281	
9	0	0	0	0	512	281	
10	0	0	0	0	511	281	
11	0	0	0	0	510	281	
12	0	0	0	0	510	281	
13	0	0	0	0	511	281	
14	0	0	0	0	511	281	
15	0	0	0	0	511	281	
0	0	0	0	0	512	281	
1	0	0	0	0	512	281	
2	0	0	0	0	512	281	
3	0	0	0	0	513	281	
4	0	0	0	0	512	281	
5	0	0	0	0	512	281	
6	0	0	0	0	512	281	
7	0	0	0	0	512	281	
8	0	0	0	0	512	281	
9	0	0	0	0	511	281	
10	0	0	0	0	510	281	
11	0	0	0	0	509	281	
12	0	0	0	0	508	281	
13	0	0	0	0	506	281	
14	0	0	0	0	505	281	
15	0	0	0	0	503	281	
0	0	0	0	0	503	281	
1	0	0	0	0	502	281	
2	0	0	0	0	502	281	
3	0	0	0	0	501	281	
4	0	0	0	0	500	281	
5	0	0	0	0	500	281	
6	0	0	0	0	500	281	
7	0	0	0	0	500	281	
8	0	0	0	0	501	281	
9	0	0	0	0	500	281	
10	0	0	0	0	500	281	
11	0	0	0	0	500	281	
12	0	0	0	0	499	281	
13	0	0	0	0	499	281	
14	0	0	0	0	499	281	
15	0	0	0	0	499	281	
0	0	0	0	0	499	281	
1	0	0	0	0	499	281	
2	0	0	0	0	500	281	
3	0	0	0	0	502	281	
4	0	0	0	0	503	281	
5	0	0	0	0	505	281	
6	0	0	0	0	505	281	
7	0	0	0	0	505	281	
8	0	0	0	0	506	281	
9	0	0	0	0	506	281	
10	0	0	0	0	505	281	
11	0	0	0	0	505	281	
12	0	0	0	0	507	281	
13	0	0	0	0	507	281	
14	0	0	0	0	508	281	
15	0	0	0	0	508	281	
0	0	0	0	0	509	281	
1	0	0	0	0	509	281	
2	0	0	0	0	511	281	
3	0	0	0	0	512	281	
4	0	0	0	0	513	281	
5	0	0	0	0	512	281	
6	0	0	0	0	512	281	
7	0	0	0	0	512	281	
8	0	0	0	0	513	281	
9	0	0	0	0	514	281	
10	0	0	0	0	514	281	
11	0	0	0	0	514	281	
12	0	0	0	0	513	281	
13	0	0	0	0	512	281	
14	0	0	0	0	511	281	
15	0	0	0	0	511	281	
0	0	0	0	0	511	281	
1	0	0	0	0	511	281	
2	0	0	0	0	511	281	
3	0	0	0	0	512	281	
4	0	0	0	0	513	281	
5	0	0	0	0	513	281	
6	0	0	0	0	513	281	
7	0	0	0	0	513	281	
8	0	0	0	0	513	281	
9	0	0	0	0	513	281	
10	0	0	0	0	515	281	
11	0	0	0	0	515	281	
12	0	0	0	0	514	281	
13	0	0	0	0	513	281	
14	0	0	0	0	512	281	
15	0	0	0	0	512	281	
0	0	0	0	0	511	281	
1	0	0	0	0	510	281	
2	0	0	0	0	510	281	
3	0	0	0	0	510	281	
4	0	0	0	0	510	281	
5	0	0	0	0	511	281	
6	0	0	0	0	511	281	
7	0	0	0	0	512	281	
8	0	0	0	0	512	281	
9	0	0	0	0	512	281	
10	0	0	0	0	512	281	
11	0	0	0	0	511	281	
12	0	0	0	0	511	281	
13	0	0	0	0	510	281	
14	0	0	0	0	509	281	
15	0	0	0	0	508	281	
0	0	0	0	0	508	281	
1	0	0	0	0	509	281	
2	0	0	0	0	510	281	
3	0	0	0	0	510	281	
4	0	0	0	0	510	281	
5	0	0	0	0	511	281	
6	0	0	0	0	512	281	
7	0	0	0	0	512	281	
8	0	0	0	0	512	281	
9	0	0	0	0	512	281	
10	0	0	0	0	511	281	
11	0	0	0	0	511	281	
12	0	0	0	0	511	281	
13	0	0	0	0	511	281	
14	0	0	0	0	511	281	
15	0	0	0	0	510	281	
0	0	0	0	0	509	281	
1	0	0	0	0	509	281	
2	0	0	0	0	509	281	
3	0	0	0	0	508	281	
4	0	0	0	0	508	281	
5	0	0	0	0	508	281	
6	0	0	0	0	509	281	
7	0	0	0	0	509	281	
8	0	0	0	0	509	281	
9	0	0	0	0	509	281	
10	0	0	0	0	509	281	
11	0	0	0	0	508	281	
12	0	0	0	0	508	281	
13	0	0	0	0	508	281	
14	0	0	0	0	507	281	
15	0	0	0	0	507	281	
0	0	0	0	0	507	281	
1	0	0	0	0	507	281	
2	0	0	0	0	506	281	
3	0	0	0	0	505	281	
4	0	0	0	0	504	281	
5	0	0	0	0	504	281	
6	0	0	0	0	505	281	
7	0	0	0	0	506	281	
8	0	0	0	0	506	281	
9	0	0	0	0	505	281	
10	0	0	0	0	506	281	
11	0	0	0	0	505	281	
12	0	0	0	0	504	281	
13	0	0	0	0	504	281	
14	0	0	0	0	503	281	
15	0	0	0	0	502	281	
0	0	0	0	0	502	281	
1	0	0	0	0	502	281	
2	0	0	0	0	502	281	
3	0	0	0	0	501	281	
4	0	0	0	0	500	281	
5	0	0	0	0	500	281	
6	0	0	0	0	501	281	
7	0	0	0	0	502	281	
8	0	0	0	0	502	281	
9	0	0	0	0	503	281	
10	0	0	0	0	503	281	
11	0	0	0	0	503	281	
12	0	0	0	0	503	281	
13	0	0	0	0	503	281	
14	0	0	0	0	503	281	
15	0	0	0	0	501	281	
0	0	0	0	0	501	281	
1	0	0	0	0	500	281	
2	0	0	0	0	500	281	
3	0	0	0	0	500	281	
4	0	0	0	0	500	281	
5	0	0	0	0	502	281	
6	0	0	0	0	502	281	
7	0	0	0	0	501	281	
8	0	0	0	0	502	281	
9	0	0	0	0	503	281	
10	0	0	0	0	502	281	
11	0	0	0	0	502	281	
12	0	0	0	0	502	281	
13	0	0	0	0	502	281	
14	0	0	0	0	502	281	
15	0	0	0	0	502	281	
0	0	0	0	0	501	281	
1	0	0	0	0	501	281	
2	0	0	0	0	500	281	
3	0	0	0	0	500	281	
4	0	0	0	0	499	281	
5	0	0	0	0	499	281	
6	0	0	0	0	500	281	
7	0	0	0	0	500	281	
8	0	0	0	0	500	281	
9	0	0	0	0	501	281	
10	0	0	0	0	502	281	
11	0	0	0	0	502	281	
12	0	0	0	0	502	281	
13	0	0	0	0	502	281	
14	0	0	0	0	501	281	
15	0	0	0	0	501	281	
0	0	0	0	0	501	281	
1	0	0	0	0	500	281	
2	0	0	0	0	500	281	
3	0	0	0	0	500	281	
4	0	0	0	0	500	281	
5	0	0	0	0	499	281	
6	0	0	0	0	499	281	
7	0	0	0	0	499	281	
8	0	0	0	0	500	281	
9	0	0	0	0	500	281	
10	0	0	0	0	501	281	
11	0	0	0	0	501	281	
12	0	0	0	0	501	281	
13	0	0	0	0	502	281	
14	0	0	0	0	502	281	
15	0	0	0	0	501	281	
0	0	0	0	0	500	281	
1	0	0	0	0	499	281	
2	0	0	0	0	499	281	
3	0	0	0	0	499	281	
4	0	0	0	0	498	281	
5	0	0	0	0	497	281	
6	0	0	0	0	496	281	
7	0	0	0	0	496	281	
8	0	0	0	0	496	281	
9	0	0	0	0	497	281	
10	0	0	0	0	498	281	
11	0	0	0	0	500	281	
12	0	0	0	0	501	281	
13	0	0	0	0	502	281	
14	0	0	0	0	503	281	
15	0	0	0	0	503	281	
0	0	0	0	0	503	281	
1	0	0	0	0	503	281	
2	0	0	0	0	502	281	
3	0	0	0	0	502	281	
4	0	0	0	0	503	281	
5	0	0	0	0	502	281	
6	0	0	0	0	502	281	
7	0	0	0	0	503	281	
8	0	0	0	0	504	281	
9	0	0	0	0	505	281	
10	0	0	0	0	507	281	
11	0	0	0	0	509	281	
12	0	0	0	0	510	281	
13	0	0	0	0	510	281	
14	0	0	0	0	510	281	
15	0	0	0	0	511	281	
0	0	0	0	0	511	281	
1	0	0	0	0	511	281	
2	0	0	0	0	512	281	
3	0	0	0	0	512	281	
4	0	0	0	0	513	281	
5	0	0	0	0	513	281	
6	0	0	0	0	514	281	
7	0	0	0	0	515	281	
8	0	0	0	0	516	281	
9	0	0	0	0	518	281	
10	0	0	0	0	520	281	
11	0	0	0	0	520	281	
12	0	0	0	0	521	281	
13	0	0	0	0	522	281	
14	0	0	0	0	523	281	
15	0	0	0	0	523	281	
0	0	0	0	0	523	281	
1	0	0	0	0	523	281	
2	0	0	0	0	524	281	
3	0	0	0	0	524	281	
4	0	0	0	0	524	281	
5	0	0	0	0	524	281	
6	0	0	0	0	524	281	
7	0	0	0	0	523	281	
8	0	0	0	0	523	281	
9	0	0	0	0	523	281	
10	0	0	0	0	525	281	
11	0	0	0	0	525	281	
12	0	0	0	0	526	281	
13	0	0	0	0	526	281	
14	0	0	0	0	526	281	
15	0	0	0	0	527	281	
0	0	0	0	0	528	281	
1	0	0	0	0	529	281	
2	0	0	0	0	529	281	
3	0	0	0	0	528	281	
4	0	0	0	0	527	281	
5	0	0	0	0	528	281	
6	0	0	0	0	527	281	
7	0	0	0	0	527	281	
8	0	0	0	0	527	281	
9	0	0	0	0	528	281	
10	0	0	0	0	529	281	
11	0	0	0	0	529	281	
12	0	0	0	0	530	281	
13	0	0	0	0	531	281	
14	0	0	0	0	531	281	
15	0	0	0	0	531	281	
0	0	0	0	0	532	281	
1	0	0	0	0	532	281	
2	0	0	0	0	533	281	
3	0	0	0	0	533	281	
4	0	0	0	0	533	281	
5	0	0	0	0	532	281	
6	0	0	0	0	531	281	
7	0	0	0	0	531	281	
8	0	0	0	0	530	281	
9	0	0	0	0	531	281	
10	0	0	0	0	531	281	
11	0	0	0	0	530	281	
12	0	0	0	0	531	281	
13	0	0	0	0	531	281	
14	0	0	0	0	531	281	
15	0	0	0	0	531	281	
0	0	0	0	0	531	281	
1	0	0	0	0	532	281	
2	0	0	0	0	532	281	
3	0	0	0	0	531	281	
4	0	0	0	0	531	281	
5	0	0	0	0	531	281	
6	0	0	0	0	530	281	
7	0	0	0	0	529	281	
8	0	0	0	0	529	281	
9	0	0	0	0	529	281	
10	0	0	0	0	528	281	
11	0	0	0	0	528	281	
12	0	0	0	0	529	281	
13	0	0	0	0	530	281	
14	0	0	0	0	531	281	
15	0	0	0	0	532	281	
0	0	0	0	0	531	281	
1	0	0	0	0	531	281	
2	0	0	0	0	531	281	
3	0	0	0	0	530	281	
4	0	0	0	0	530	281	
5	0	0	0	0	530	281	
6	0	0	0	0	529	281	
7	0	0	0	0	528	281	
8	0	0	0	0	528	281	
9	0	0	0	0	528	281	
10	0	0	0	0	528	281	
11	0	0	0	0	529	281	
12	0	0	0	0	529	281	
13	0	0	0	0	529	281	
14	0	0	0	0	530	281	
15	0	0	0	0	531	280	
0	0	0	0	0	531	281	
1	0	0	0	0	532	281	
2	0	0	0	0	532	281	
3	0	0	0	0	533	281	
4	0	0	0	0	532	281	
5	0	0	0	0	532	281	
6	0	0	0	0	531	281	
7	0	0	0	0	531	281	
8	0	0	0	0	531	281	
9	0	0	0	0	529	281	
10	0	0	0	0	529	281	
11	0	0	0	0	529	281	
12	0	0	0	0	528	281	
13	0	0	0	0	528	281	
14	0	0	0	0	527	281	
15	0	0	0	0	528	281	
0	0	0	0	0	528	281	
1	0	0	0	0	528	281	
2	0	0	0	0	529	280	
3	0	0	0	0	529	281	
4	0	0	0	0	530	281	
5	0	0	0	0	530	281	
6	0	0	0	0	530	281	
7	0	0	0	0	528	281	
8	0	0	0	0	527	281	
9	0	0	0	0	526	281	
10	0	0	0	0	524	281	
11	0	0	0	0	524	281	
12	0	0	0	0	524	281	
13	0	0	0	0	523	281	
14	0	0	0	0	523	281	
15	0	0	0	0	524	281	
0	0	0	0	0	524	281	
1	0	0	0	0	525	281	
2	0	0	0	0	525	281	
3	0	0	0	0	525	281	
4	0	0	0	0	526	281	
5	0	0	0	0	526	281	
6	0	0	0	0	525	281	
7	0	0	0	0	525	281	
8	0	0	0	0	524	281	
9	0	0	0	0	524	281	
10	0	0	0	0	523	281	
11	0	0	0	0	521	281	
12	0	0	0	0	521	281	
13	0	0	0	0	520	281	
14	0	0	0	0	520	281	
15	0	0	0	0	519	281	
0	0	0	0	0	519	280	
1	0	0	0	0	519	281	
2	0	0	0	0	519	281	
3	0	0	0	0	520	281	
4	0	0	0	0	520	281	
5	0	0	0	0	520	281	
6	0	0	0	0	520	281	
7	0	0	0	0	519	281	
8	0	0	0	0	519	281	
9	0	0	0	0	518	281	
10	0	0	0	0	517	281	
11	0	0	0	0	516	281	
12	0	0	0	0	516	281	
13	0	0	0	0	516	281	
14	0	0	0	0	516	281	
15	0	0	0	0	516	281	
0	0	0	0	0	517	281	
1	0	0	0	0	517	281	
2	0	0	0	0	519	281	
3	0	0	0	0	519	281	
4	0	0	0	0	519	281	
5	0	0	0	0	519	281	
6	0	0	0	0	518	281	
7	0	0	0	0	517	281	
8	0	0	0	0	516	281	
9	0	0	0	0	516	281	
10	0	0	0	0	515	281	
11	0	0	0	0	514	281	
12	0	0	0	0	513	281	
13	0	0	0	0	513	281	
14	0	0	0	0	514	281	
15	0	0	0	0	513	281	
0	0	0	0	0	513	281	
1	0	0	0	0	513	281	
2	0	0	0	0	514	281	
3	0	0	0	0	515	281	
4	0	0	0	0	515	281	
5	0	0	0	0	514	281	
6	0	0	0	0	513	281	
7	0	0	0	0	513	281	
8	0	0	0	0	513	281	
9	0	0	0	0	512	281	
10	0	0	0	0	512	281	
11	0	0	0	0	512	281	
12	0	0	0	0	512	281	
13	0	0	0	0	511	281	
14	0	0	0	0	509	281	
15	0	0	0	0	508	281	
0	0	0	0	0	508	281	
1	0	0	0	0	508	281	
2	0	0	0	0	509	281	
3	0	0	0	0	510	281	
4	0	0	0	0	511	281	
5	0	0	0	0	511	281	
6	0	0	0	0	511	281	
7	0	0	0	0	511	281	
8	0	0	0	0	511	281	
9	0	0	0	0	511	281	
10	0	0	0	0	511	281	
11	0	0	0	0	510	281	
12	0	0	0	0	509	281	
13	0	0	0	0	508	281	
14	0	0	0	0	507	281	
15	0	0	0	0	506	281	
0	0	0	0	0	507	281	
1	0	0	0	0	507	281	
2	0	0	0	0	508	281	
3	0	0	0	0	508	281	
4	0	0	0	0	508	281	
5	0	0	0	0	509	281	
6	0	0	0	0	509	281	
7	0	0	0	0	510	281	
8	0	0	0	0	510	281	
9	0	0	0	0	510	281	
10	0	0	0	0	509	281	
11	0	0	0	0	508	281	
12	0	0	0	0	508	281	
13	0	0	0	0	508	281	
14	0	0	0	0	508	281	
15	0	0	0	0	508	281	
0	0	0	0	0	507	281	
1	0	0	0	0	508	281	
2	0	0	0	0	508	281	
3	0	0	0	0	508	281	
4	0	0	0	0	509	281	
5	0	0	0	0	510	281	
6	0	0	0	0	510	281	
7	0	0	0	0	510	281	
8	0	0	0	0	510	281	
9	0	0	0	0	509	281	
10	0	0	0	0	508	281	
11	0	0	0	0	508	281	
12	0	0	0	0	508	281	
13	0	0	0	0	508	281	
14	0	0	0	0	509	281	
15	0	0	0	0	509	281	
0	0	0	0	0	508	281	
1	0	0	0	0	508	281	
2	0	0	0	0	508	281	
3	0	0	0	0	508	281	
4	0	0	0	0	508	281	
5	0	0	0	0	509	281	
6	0	0	0	0	509	281	
7	0	0	0	0	509	281	
8	0	0	0	0	510	281	
9	0	0	0	0	509	281	
10	0	0	0	0	510	281	
11	0	0	0	0	509	281	
12	0	0	0	0	509	281	
13	0	0	0	0	508	281	
14	0	0	0	0	508	281	
15	0	0	0	0	509	281	
0	0	0	0	0	509	281	
1	0	0	0	0	508	281	
2	0	0	0	0	508	281	
3	0	0	0	0	508	281	
4	0	0	0	0	508	281	
5	0	0	0	0	508	281	
6	0	0	0	0	509	281	
7	0	0	0	0	510	281	
8	0	0	0	0	510	281	
9	0	0	0	0	510	281	
10	0	0	0	0	510	281	
11	0	0	0	0	510	281	
12	0	0	0	0	510	281	
13	0	0	0	0	511	281	
14	0	0	0	0	511	281	
15	0	0	0	0	510	281	
0	0	0	0	0	510	281	
1	0	0	0	0	511	281	
2	0	0	0	0	511	281	
3	0	0	0	0	511	281	
4	0	0	0	0	511	281	
5	0	0	0	0	512	281	
6	0	0	0	0	513	281	
7	0	0	0	0	515	281	
8	0	0	0	0	516	281	
9	0	0	0	0	516	281	
10	0	0	0	0	517	281	
11	0	0	0	0	517	281	
12	0	0	0	0	517	281	
13	0	0	0	0	516	281	
14	0	0	0	0	515	281	
15	0	0	0	0	515	281	
0	0	0	0	0	515	281	
1	0	0	0	0	514	281	
2	0	0	0	0	513	281	
3	0	0	0	0	513	281	
4	0	0	0	0	514	281	
5	0	0	0	0	515	281	
6	0	0	0	0	516	281	
7	0	0	0	0	516	281	
8	0	0	0	0	516	281	
9	0	0	0	0	517	281	
10	0	0	0	0	518	281	
11	0	0	0	0	518	281	
12	0	0	0	0	517	281	
13	0	0	0	0	516	281	
14	0	0	0	0	516	281	
15	0	0	0	0	516	281	
0	0	0	0	0	515	281	
1	0	0	0	0	514	281	
2	0	0	0	0	514	281	
3	0	0	0	0	514	281	
4	0	0	0	0	514	281	
5	0	0	0	0	515	281	
6	0	0	0	0	514	281	
7	0	0	0	0	515	281	
8	0	0	0	0	515	281	
9	0	0	0	0	515	281	
10	0	0	0	0	515	281	
11	0	0	0	0	515	280	
12	0	0	0	0	516	281	
13	0	0	0	0	516	281	
14	0	0	0	0	516	281	
15	0	0	0	0	515	281	
0	0	0	0	0	515	281	
1	0	0	0	0	515	281	
2	0	0	0	0	515	281	
3	0	0	0	0	514	281	
4	0	0	0	0	514	281	
5	0	0	0	0	515	281	
6	0	0	0	0	515	281	
7	0	0	0	0	515	281	
8	0	0	0	0	516	281	
9	0	0	0	0	518	281	
10	0	0	0	0	519	281	
11	0	0	0	0	519	281	
12	0	0	0	0	519	281	
13	0	0	0	0	519	280	
14	0	0	0	0	519	281	
15	0	0	0	0	519	281	
0	0	0	0	0	517	281	
1	0	0	0	0	515	281	
2	0	0	0	0	515	281	
3	0	0	0	0	514	281	
4	0	0	0	0	515	281	
5	0	0	0	0	514	281	
6	0	0	0	0	514	281	
7	0	0	0	0	515	281	
8	0	0	0	0	515	281	
9	0	0	0	0	516	281	
10	0	0	0	0	518	281	
11	0	0	0	0	518	281	
12	0	0	0	0	518	280	
13	0	0	0	0	518	281	
14	0	0	0	0	518	281	
15	0	0	0	0	518	281	
0	0	0	0	0	516	281	
1	0	0	0	0	515	281	
2	0	0	0	0	515	281	
3	0	0	0	0	515	281	
4	0	0	0	0	514	281	
5	0	0	0	0	513	281	
6	0	0	0	0	513	281	
7	0	0	0	0	513	281	
8	0	0	0	0	514	281	
9	0	0	0	0	514	281	
10	0	0	0	0	514	281	
11	0	0	0	0	515	281	
12	0	0	0	0	515	281	
13	0	0	0	0	515	281	
14	0	0	0	0	515	281	
15	0	0	0	0	515	281	
0	0	0	0	0	515	281	
1	0	0	0	0	514	281	
2	0	0	0	0	513	281	
3	0	0	0	0	512	281	
4	0	0	0	0	512	281	
5	0	0	0	0	512	281	
6	0	0	0	0	513	281	
7	0	0	0	0	512	281	
8	0	0	0	0	513	281	
9	0	0	0	0	515	281	
10	0	0	0	0	515	281	
11	0	0	0	0	516	281	
12	0	0	0	0	516	281	
13	0	0	0	0	517	280	
14	0	0	0	0	518	281	
15	0	0	0	0	517	281	
0	0	0	0	0	516	281	
1	0	0	0	0	515	281	
2	0	0	0	0	514	281	
3	0	0	0	0	513	281	
4	0	0	0	0	513	281	
5	0	0	0	0	512	281	
6	0	0	0	0	512	281	
7	0	0	0	0	511	281	
8	0	0	0	0	511	281	
9	0	0	0	0	512	281	
10	0	0	0	0	513	281	
11	0	0	0	0	514	281	
12	0	0	0	0	514	281	
13	0	0	0	0	515	281	
14	0	0	0	0	515	281	
15	0	0	0	0	515	281	
0	0	0	0	0	515	281	
1	0	0	0	0	514	281	
2	0	0	0	0	513	281	
3	0	0	0	0	512	281	
4	0	0	0	0	512	281	
5	0	0	0	0	512	281	
6	0	0	0	0	511	281	
7	0	0	0	0	511	281	
8	0	0	0	0	511	281	
9	0	0	0	0	512	281	
10	0	0	0	0	512	281	
11	0	0	0	0	513	281	
12	0	0	0	0	514	281	
13	0	0	0	0	514	281	
14	0	0	0	0	514	281	
15	0	0	0	0	515	281	
0	0	0	0	0	515	280	
1	0	0	0	0	515	281	
2	0	0	0	0	514	281	
3	0	0	0	0	513	281	
4	0	0	0	0	512	281	
5	0	0	0	0	511	281	
6	0	0	0	0	511	281	
7	0	0	0	0	511	281	
8	0	0	0	0	510	281	
9	0	0	0	0	510	281	
10	0	0	0	0	511	281	
11	0	0	0	0	511	281	
12	0	0	0	0	512	281	
13	0	0	0	0	512	281	
14	0	0	0	0	513	281	
15	0	0	0	0	513	281	
0	0	0	0	0	513	281	
1	0	0	0	0	513	281	
2	0	0	0	0	513	281	
3	0	0	0	0	512	281	
4	0	0	0	0	511	281	
5	0	0	0	0	511	281	
6	0	0	0	0	510	281	
7	0	0	0	0	508	281	
8	0	0	0	0	508	281	
9	0	0	0	0	507	281	
10	0	0	0	0	507	281	
11	0	0	0	0	507	281	
12	0	0	0	0	507	281	
13	0	0	0	0	508	281	
14	0	0	0	0	509	281	
15	0	0	0	0	509	281	
0	0	0	0	0	509	281	
1	0	0	0	0	508	281	
2	0	0	0	0	508	281	
3	0	0	0	0	508	281	
4	0	0	0	0	507	281	
5	0	0	0	0	507	281	
6	0	0	0	0	506	281	
7	0	0	0	0	505	281	
8	0	0	0	0	504	281	
9	0	0	0	0	503	281	
10	0	0	0	0	504	281	
11	0	0	0	0	504	281	
12	0	0	0	0	504	281	
13	0	0	0	0	504	281	
14	0	0	0	0	504	281	
15	0	0	0	0	504	281	
0	0	0	0	0	504	281	
1	0	0	0	0	504	281	
2	0	0	0	0	504	281	
3	0	0	0	0	504	281	
4	0	0	0	0	503	281	
5	0	0	0	0	503	281	
6	0	0	0	0	502	281	
7	0	0	0	0	500	281	
8	0	0	0	0	499	281	
9	0	0	0	0	499	281	
10	0	0	0	0	500	281	
11	0	0	0	0	499	281	
12	0	0	0	0	499	281	
13	0	0	0	0	500	281	
14	0	0	0	0	501	281	
15	0	0	0	0	501	281	
0	0	0	0	0	502	281	
1	0	0	0	0	502	281	
2	0	0	0	0	503	281	
3	0	0	0	0	501	281	
4	0	0	0	0	501	281	
5	0	0	0	0	501	281	
6	0	0	0	0	500	281	
7	0	0	0	0	499	281	
8	0	0	0	0	498	281	
9	0	0	0	0	496	281	
10	0	0	0	0	497	281	
11	0	0	0	0	496	281	
12	0	0	0	0	495	281	
13	0	0	0	0	496	281	
14	0	0	0	0	496	281	
15	0	0	0	0	497	281	
0	0	0	0	0	499	281	
1	0	0	0	0	500	281	
2	0	0	0	0	500	281	
3	0	0	0	0	499	281	
4	0	0	0	0	499	280	
5	0	0	0	0	499	281	
6	0	0	0	0	498	281	
7	0	0	0	0	497	281	
8	0	0	0	0	497	281	
9	0	0	0	0	496	281	
10	0	0	0	0	495	281	
11	0	0	0	0	494	281	
12	0	0	0	0	494	281	
13	0	0	0	0	494	281	
14	0	0	0	0	495	281	
15	0	0	0	0	495	281	
0	0	0	0	0	495	281	
1	0	0	0	0	496	281	
2	0	0	0	0	497	281	
3	0	0	0	0	497	281	
4	0	0	0	0	499	281	
5	0	0	0	0	499	281	
6	0	0	0	0	498	281	
7	0	0	0	0	497	281	
8	0	0	0	0	496	281	
9	0	0	0	0	497	281	
10	0	0	0	0	496	281	
11	0	0	0	0	496	281	
12	0	0	0	0	496	281	
13	0	0	0	0	496	281	
14	0	0	0	0	497	281	
15	0	0	0	0	497	281	
0	0	0	0	0	497	281	
1	0	0	0	0	499	281	
2	0	0	0	0	498	281	
3	0	0	0	0	499	281	
4	0	0	0	0	499	281	
5	0	0	0	0	499	281	
6	0	0	0	0	499	281	
7	0	0	0	0	499	281	
8	0	0	0	0	499	281	
9	0	0	0	0	498	281	
10	0	0	0	0	498	281	
11	0	0	0	0	497	281	
12	0	0	0	0	497	281	
13	0	0	0	0	496	281	
14	0	0	0	0	496	281	
15	0	0	0	0	496	281	
0	0	0	0	0	497	281	
1	0	0	0	0	498	281	
2	0	0	0	0	498	281	
3	0	0	0	0	498	281	
4	0	0	0	0	498	281	
5	0	0	0	0	499	281	
6	0	0	0	0	498	281	
7	0	0	0	0	497	281	
8	0	0	0	0	497	281	
9	0	0	0	0	498	281	
10	0	0	0	0	497	281	
11	0	0	0	0	496	281	
12	0	0	0	0	495	281	
13	0	0	0	0	495	281	
14	0	0	0	0	494	281	
15	0	0	0	0	496	281	
0	0	0	0	0	496	281	
1	0	0	0	0	497	281	
2	0	0	0	0	498	281	
3	0	0	0	0	498	281	
4	0	0	0	0	498	281	
5	0	0	0	0	498	281	
6	0	0	0	0	497	281	
7	0	0	0	0	497	281	
8	0	0	0	0	497	281	
9	0	0	0	0	496	281	
10	0	0	0	0	496	281	
11	0	0	0	0	496	281	
12	0	0	0	0	495	281	
13	0	0	0	0	495	281	
14	0	0	0	0	495	281	
15	0	0	0	0	495	281	
0	0	0	0	0	496	281	
1	0	0	0	0	497	281	
2	0	0	0	0	498	281	
3	0	0	0	0	499	281	
4	0	0	0	0	500	281	
5	0	0	0	0	500	281	
6	0	0	0	0	500	281	
7	0	0	0	0	499	281	
8	0	0	0	0	499	281	
9	0	0	0	0	498	281	
10	0	0	0	0	498	281	
11	0	0	0	0	497	281	
12	0	0	0	0	496	281	
13	0	0	0	0	495	281	
14	0	0	0	0	494	281	
15	0	0	0	0	494	281	
0	0	0	0	0	493	281	
1	0	0	0	0	494	281	
2	0	0	0	0	496	281	
3	0	0	0	0	497	281	
4	0	0	0	0	498	281	
5	0	0	0	0	499	281	
6	0	0	0	0	499	281	
7	0	0	0	0	499	281	
8	0	0	0	0	500	281	
9	0	0	0	0	500	281	
10	0	0	0	0	500	281	
11	0	0	0	0	499	281	
12	0	0	0	0	498	281	
13	0	0	0	0	498	281	
14	0	0	0	0	497	281	
15	0	0	0	0	496	281	
0	0	0	0	0	497	281	
1	0	0	0	0	498	280	
2	0	0	0	0	498	281	
3	0	0	0	0	499	281	
4	0	0	0	0	499	281	
5	0	0	0	0	500	281	
6	0	0	0	0	501	281	
7	0	0	0	0	501	281	
8	0	0	0	0	501	281	
9	0	0	0	0	501	281	
10	0	0	0	0	502	281	
11	0	0	0	0	502	281	
12	0	0	0	0	502	281	
13	0	0	0	0	501	281	
14	0	0	0	0	502	281	
15	0	0	0	0	502	281	
0	0	0	0	0	502	281	
1	0	0	0	0	502	281	
2	0	0	0	0	503	281	
3	0	0	0	0	503	281	
4	0	0	0	0	503	281	
5	0	0	0	0	503	281	
6	0	0	0	0	504	281	
7	0	0	0	0	503	280	
8	0	0	0	0	503	281	
9	0	0	0	0	504	281	
10	0	0	0	0	504	281	
11	0	0	0	0	503	281	
12	0	0	0	0	502	281	
13	0	0	0	0	503	281	
14	0	0	0	0	502	281	
15	0	0	0	0	501	281	
0	0	0	0	0	501	281	
1	0	0	0	0	501	281	
2	0	0	0	0	502	281	
3	0	0	0	0	502	281	
4	0	0	0	0	502	281	
5	0	0	0	0	503	281	
6	0	0	0	0	504	280	
7	0	0	0	0	504	281	
8	0	0	0	0	504	281	
9	0	0	0	0	504	281	
10	0	0	0	0	504	281	
11	0	0	0	0	504	281	
12	0	0	0	0	504	281	
13	0	0	0	0	503	281	
14	0	0	0	0	503	281	
15	0	0	0	0	502	281	
0	0	0	0	0	501	281	
1	0	0	0	0	501	281	
2	0	0	0	0	501	281	
3	0	0	0	0	500	281	
4	0	0	0	0	500	281	
5	0	0	0	0	500	281	
6	0	0	0	0	499	281	
7	0	0	0	0	499	281	
8	0	0	0	0	498	281	
9	0	0	0	0	497	281	
10	0	0	0	0	496	281	
11	0	0	0	0	495	281	
12	0	0	0	0	494	281	
13	0	0	0	0	493	281	
14	0	0	0	0	492	281	
15	0	0	0	0	492	281	
0	0	0	0	0	492	281	
1	0	0	0	0	492	281	
2	0	0	0	0	492	281	
3	0	0	0	0	492	281	
4	0	0	0	0	492	280	
5	0	0	0	0	493	281	
6	0	0	0	0	492	281	
7	0	0	0	0	494	280	
8	0	0	0	0	496	281	
9	0	0	0	0	496	281	
10	0	0	0	0	499	281	
11	0	0	0	0	499	281	
12	0	0	0	0	499	281	
13	0	0	0	0	499	281	
14	0	0	0	0	498	281	
15	0	0	0	0	497	281	
0	0	0	0	0	497	280	
1	0	0	0	0	498	281	
2	0	0	0	0	498	281	
3	0	0	0	0	499	281	
4	0	0	0	0	500	281	
5	0	0	0	0	501	281	
6	0	0	0	0	502	281	
7	0	0	0	0	502	281	
8	0	0	0	0	503	280	
9	0	0	0	0	504	281	
10	0	0	0	0	505	281	
11	0	0	0	0	505	281	
12	0	0	0	0	506	281	
13	0	0	0	0	505	281	
14	0	0	0	0	504	281	
15	0	0	0	0	504	281	
0	0	0	0	0	505	281	
1	0	0	0	0	505	281	
2	0	0	0	0	505	281	
3	0	0	0	0	505	281	
4	0	0	0	0	505	281	
5	0	0	0	0	507	281	
6	0	0	0	0	507	281	
7	0	0	0	0	508	281	
8	0	0	0	0	509	281	
9	0	0	0	0	509	281	
10	0	0	0	0	510	280	
11	0	0	0	0	510	281	
12	0	0	0	0	511	281	
13	0	0	0	0	512	281	
14	0	0	0	0	512	280	
15	0	0	0	0	512	281	
0	0	0	0	0	512	281	
1	0	0	0	0	511	281	
2	0	0	0	0	511	281	
3	0	0	0	0	510	281	
4	0	0	0	0	509	281	
5	0	0	0	0	510	281	
6	0	0	0	0	511	280	
7	0	0	0	0	512	281	
8	0	0	0	0	512	281	
9	0	0	0	0	513	281	
10	0	0	0	0	514	281	
11	0	0	0	0	513	281	
12	0	0	0	0	513	280	
13	0	0	0	0	513	281	
14	0	0	0	0	512	281	
15	0	0	0	0	512	281	
0	0	0	0	0	512	281	
1	0	0	0	0	511	281	
2	0	0	0	0	511	281	
3	0	0	0	0	511	281	
4	0	0	0	0	511	281	
5	0	0	0	0	511	281	
6	0	0	0	0	510	281	
7	0	0	0	0	511	281	
8	0	0	0	0	512	280	
9	0	0	0	0	513	281	
10	0	0	0	0	513	281	
11	0	0	0	0	513	281	
12	0	0	0	0	513	280	
13	0	0	0	0	513	281	
14	0	0	0	0	513	281	
15	0	0	0	0	512	280	
0	0	0	0	0	512	280	
1	0	0	0	0	511	281	
2	0	0	0	0	511	281	
3	0	0	0	0	510	281	
4	0	0	0	0	510	281	
5	0	0	0	0	510	281	
6	0	0	0	0	511	281	
7	0	0	0	0	511	280	
8	0	0	0	0	512	281	
9	0	0	0	0	512	281	
10	0	0	0	0	513	281	
11	0	0	0	0	513	280	
12	0	0	0	0	514	281	
13	0	0	0	0	515	281	
14	0	0	0	0	515	281	
15	0	0	0	0	515	280	
0	0	0	0	0	515	281	
1	0	0	0	0	513	281	
2	0	0	0	0	514	281	
3	0	0	0	0	513	281	
4	0	0	0	0	513	281	
5	0	0	0	0	513	281	
6	0	0	0	0	512	281	
7	0	0	0	0	513	280	
8	0	0	0	0	513	281	
9	0	0	0	0	514	281	
10	0	0	0	0	515	281	
11	0	0	0	0	514	280	
12	0	0	0	0	515	281	
13	0	0	0	0	515	281	
14	0	0	0	0	515	280	
15	0	0	0	0	515	281	
0	0	0	0	0	515	281	
1	0	0	0	0	514	280	
2	0	0	0	0	513	281	
3	0	0	0	0	511	281	
4	0	0	0	0	511	281	
5	0	0	0	0	512	281	
6	0	0	0	0	512	281	
7	0	0	0	0	512	281	
8	0	0	0	0	512	280	
9	0	0	0	0	513	281	
10	0	0	0	0	513	281	
11	0	0	0	0	514	281	
12	0	0	0	0	514	280	
13	0	0	0	0	515	281	
14	0	0	0	0	515	281	
15	0	0	0	0	515	281	
0	0	0	0	0	516	281	
1	0	0	0	0	516	280	
2	0	0	0	0	516	281	
3	0	0	0	0	515	281	
4	0	0	0	0	513	281	
5	0	0	0	0	513	281	
6	0	0	0	0	513	281	
7	0	0	0	0	513	281	
8	0	0	0	0	512	281	
9	0	0	0	0	512	281	
10	0	0	0	0	512	281	
11	0	0	0	0	513	280	
12	0	0	0	0	515	280	
13	0	0	0	0	515	281	
14	0	0	0	0	515	281	
15	0	0	0	0	514	281	
0	0	0	0	0	512	280	
1	0	0	0	0	510	281	
2	0	0	0	0	508	281	
3	0	0	0	0	506	281	
4	0	0	0	0	503	281	
5	0	0	0	0	501	280	
6	0	0	0	0	499	281	
7	0	0	0	0	496	281	
8	0	0	0	0	493	281	
9	0	0	0	0	492	281	
10	0	0	0	0	492	281	
11	0	0	0	0	491	281	
12	0	0	0	0	490	281	
13	0	0	0	0	488	281	
14	0	0	0	0	487	281	
15	0	0	0	0	487	281	
0	0	0	0	0	487	281	
1	0	0	0	0	487	281	
2	0	0	0	0	488	281	
3	0	0	0	0	490	281	
4	0	0	0	0	492	281	
5	0	0	0	0	493	281	
6	0	0	0	0	495	281	
7	0	0	0	0	496	281	
8	0	0	0	0	498	281	
9	0	0	0	0	500	281	
10	0	0	0	0	502	280	
11	0	0	0	0	502	281	
12	0	0	0	0	503	281	
13	0	0	0	0	504	280	
14	0	0	0	0	504	281	
15	0	0	0	0	504	281	
0	0	0	0	0	504	280	
1	0	0	0	0	504	281	
2	0	0	0	0	504	281	
3	0	0	0	0	504	281	
4	0	0	0	0	505	281	
5	0	0	0	0	506	281	
6	0	0	0	0	508	281	
7	0	0	0	0	509	281	
8	0	0	0	0	510	280	
9	0	0	0	0	511	281	
10	0	0	0	0	512	281	
11	0	0	0	0	511	280	
12	0	0	0	0	512	281	
13	0	0	0	0	514	281	
14	0	0	0	0	515	280	
15	0	0	0	0	515	281	
0	0	0	0	0	515	281	
1	0	0	0	0	516	280	
2	0	0	0	0	517	281	
3	0	0	0	0	517	281	
4	0	0	0	0	517	280	
5	0	0	0	0	516	281	
6	0	0	0	0	516	281	
7	0	0	0	0	515	280	
8	0	0	0	0	515	280	
9	0	0	0	0	514	281	
10	0	0	0	0	513	281	
11	0	0	0	0	513	280	
12	0	0	0	0	512	281	
13	0	0	0	0	512	281	
14	0	0	0	0	513	281	
15	0	0	0	0	512	280	
0	0	0	0	0	512	281	
1	0	0	0	0	512	281	
2	0	0	0	0	512	281	
3	0	0	0	0	512	280	
4	0	0	0	0	511	281	
5	0	0	0	0	510	281	
6	0	0	0	0	510	281	
7	0	0	0	0	508	281	
8	0	0	0	0	507	280	
9	0	0	0	0	505	281	
10	0	0	0	0	505	281	
11	0	0	0	0	504	281	
12	0	0	0	0	505	281	
13	0	0	0	0	505	281	
14	0	0	0	0	506	281	
15	0	0	0	0	508	280	
0	0	0	0	0	509	281	
1	0	0	0	0	510	281	
2	0	0	0	0	510	280	
3	0	0	0	0	510	280	
4	0	0	0	0	509	281	
5	0	0	0	0	508	281	
6	0	0	0	0	508	281	
7	0	0	0	0	508	280	
8	0	0	0	0	509	281	
9	0	0	0	0	509	281	
10	0	0	0	0	509	281	
11	0	0	0	0	509	280	
12	0	0	0	0	510	281	
13	0	0	0	0	511	281	
14	0	0	0	0	511	281	
15	0	0	0	0	512	280	
0	0	0	0	0	513	281	
1	0	0	0	0	514	281	
2	0	0	0	0	515	281	
3	0	0	0	0	515	280	
4	0	0	0	0	516	281	
5	0	0	0	0	517	281	
6	0	0	0	0	517	281	
7	0	0	0	0	518	280	
8	0	0	0	0	518	281	
9	0	0	0	0	516	281	
10	0	0	0	0	517	281	
11	0	0	0	0	518	280	
12	0	0	0	0	518	281	
13	0	0	0	0	518	281	
14	0	0	0	0	518	281	
15	0	0	0	0	519	280	
0	0	0	0	0	520	281	
1	0	0	0	0	520	281	
2	0	0	0	0	520	280	
3	0	0	0	0	521	280	
4	0	0	0	0	521	281	
5	0	0	0	0	521	280	
6	0	0	0	0	521	280	
7	0	0	0	0	520	281	
8	0	0	0	0	519	281	
9	0	0	0	0	518	280	
10	0	0	0	0	518	281	
11	0	0	0	0	517	281	
12	0	0	0	0	518	281	
13	0	0	0	0	519	280	
14	0	0	0	0	519	280	
15	0	0	0	0	519	281	
0	0	0	0	0	520	281	
1	0	0	0	0	521	280	
2	0	0	0	0	521	281	
3	0	0	0	0	522	281	
4	0	0	0	0	521	280	
5	0	0	0	0	522	281	
6	0	0	0	0	522	281	
7	0	0	0	0	520	281	
8	0	0	0	0	519	280	
9	0	0	0	0	518	281	
10	0	0	0	0	517	281	
11	0	0	0	0	517	281	
12	0	0	0	0	517	280	
13	0	0	0	0	517	281	
14	0	0	0	0	517	281	
15	0	0	0	0	518	281	
0	0	0	0	0	518	280	
1	0	0	0	0	519	280	
2	0	0	0	0	519	281	
3	0	0	0	0	519	281	
4	0	0	0	0	520	280	
5	0	0	0	0	520	280	
6	0	0	0	0	520	281	
7	0	0	0	0	521	281	
8	0	0	0	0	520	280	
9	0	0	0	0	518	281	
10	0	0	0	0	516	281	
11	0	0	0	0	515	281	
12	0	0	0	0	515	281	
13	0	0	0	0	515	281	
14	0	0	0	0	515	281	
15	0	0	0	0	515	281	
0	0	0	0	0	515	280	
1	0	0	0	0	516	281	
2	0	0	0	0	517	281	
3	0	0	0	0	517	280	
4	0	0	0	0	518	280	
5	0	0	0	0	518	281	
6	0	0	0	0	518	281	
7	0	0	0	0	518	281	
8	0	0	0	0	517	280	
9	0	0	0	0	516	281	
10	0	0	0	0	516	281	
11	0	0	0	0	515	281	
12	0	0	0	0	515	280	
13	0	0	0	0	515	281	
14	0	0	0	0	515	281	
15	0	0	0	0	515	281	
0	0	0	0	0	515	280	
1	0	0	0	0	515	281	
2	0	0	0	0	515	281	
3	0	0	0	0	515	281	
4	0	0	0	0	516	280	
5	0	0	0	0	517	280	
6	0	0	0	0	517	281	
7	0	0	0	0	517	281	
8	0	0	0	0	517	281	
9	0	0	0	0	517	280	
10	0	0	0	0	516	281	
11	0	0	0	0	515	281	
12	0	0	0	0	513	281	
13	0	0	0	0	513	281	
14	0	0	0	0	512	281	
15	0	0	0	0	511	281	
0	0	0	0	0	511	281	
1	0	0	0	0	511	281	
2	0	0	0	0	512	281	
3	0	0	0	0	513	281	
4	0	0	0	0	513	281	
5	0	0	0	0	513	280	
6	0	0	0	0	513	280	
7	0	0	0	0	513	281	
8	0	0	0	0	513	281	
9	0	0	0	0	513	280	
10	0	0	0	0	512	281	
11	0	0	0	0	512	281	
12	0	0	0	0	511	281	
13	0	0	0	0	509	281	
14	0	0	0	0	509	281	
15	0	0	0	0	508	281	
0	0	0	0	0	508	281	
1	0	0	0	0	508	280	
2	0	0	0	0	509	281	
3	0	0	0	0	509	281	
4	0	0	0	0	509	281	
5	0	0	0	0	509	281	
6	0	0	0	0	509	281	
7	0	0	0	0	510	281	
8	0	0	0	0	510	280	
9	0	0	0	0	509	281	
10	0	0	0	0	509	281	
11	0	0	0	0	509	281	
12	0	0	0	0	508	280	
13	0	0	0	0	507	281	
14	0	0	0	0	505	281	
15	0	0	0	0	505	281	
0	0	0	0	0	505	281	
1	0	0	0	0	505	280	
2	0	0	0	0	505	281	
3	0	0	0	0	505	281	
4	0	0	0	0	504	280	
5	0	0	0	0	505	280	
6	0	0	0	0	506	281	
7	0	0	0	0	506	281	
8	0	0	0	0	506	281	
9	0	0	0	0	506	281	
10	0	0	0	0	505	281	
11	0	0	0	0	505	281	
12	0	0	0	0	504	280	
13	0	0	0	0	504	281	
14	0	0	0	0	503	281	
15	0	0	0	0	502	281	
0	0	0	0	0	501	281	
1	0	0	0	0	500	280	
2	0	0	0	0	500	281	
3	0	0	0	0	500	281	
4	0	0	0	0	500	281	
5	0	0	0	0	500	281	
6	0	0	0	0	501	281	
7	0	0	0	0	500	280	
8	0	0	0	0	501	280	
9	0	0	0	0	501	281	
10	0	0	0	0	500	281	
11	0	0	0	0	499	281	
12	0	0	0	0	499	280	
13	0	0	0	0	498	281	
14	0	0	0	0	498	281	
15	0	0	0	0	496	280	
0	0	0	0	0	496	280	
1	0	0	0	0	495	281	
2	0	0	0	0	495	281	
3	0	0	0	0	496	281	
4	0	0	0	0	496	280	
5	0	0	0	0	497	281	
6	0	0	0	0	497	280	
7	0	0	0	0	498	280	
8	0	0	0	0	498	281	
9	0	0	0	0	498	281	
10	0	0	0	0	499	281	
11	0	0	0	0	498	280	
12	0	0	0	0	499	280	
13	0	0	0	0	499	281	
14	0	0	0	0	498	281	
15	0	0	0	0	497	281	
0	0	0	0	0	497	280	
1	0	0	0	0	498	281	
2	0	0	0	0	499	281	
3	0	0	0	0	499	281	
4	0	0	0	0	500	281	
5	0	0	0	0	501	281	
6	0	0	0	0	502	281	
7	0	0	0	0	503	280	
8	0	0	0	0	504	281	
9	0	0	0	0	505	281	
10	0	0	0	0	505	281	
11	0	0	0	0	506	280	
12	0	0	0	0	507	281	
13	0	0	0	0	508	280	
14	0	0	0	0	508	281	
15	0	0	0	0	508	281	
0	0	0	0	0	510	281	
1	0	0	0	0	509	281	
2	0	0	0	0	509	281	
3	0	0	0	0	509	281	
4	0	0	0	0	510	281	
5	0	0	0	0	511	280	
6	0	0	0	0	512	281	
7	0	0	0	0	514	281	
8	0	0	0	0	515	280	
9	0	0	0	0	516	280	
10	0	0	0	0	516	281	
11	0	0	0	0	516	281	
12	0	0	0	0	516	281	
13	0	0	0	0	518	280	
14	0	0	0	0	519	281	
15	0	0	0	0	519	281	
0	0	0	0	0	519	280	
1	0	0	0	0	519	281	
2	0	0	0	0	519	281	
3	0	0	0	0	519	281	
4	0	0	0	0	520	280	
5	0	0	0	0	521	280	
6	0	0	0	0	522	281	
7	0	0	0	0	523	281	
8	0	0	0	0	524	281	
9	0	0	0	0	525	280	
10	0	0	0	0	527	281	
11	0	0	0	0	527	281	
12	0	0	0	0	528	281	
13	0	0	0	0	528	280	
14	0	0	0	0	527	281	
15	0	0	0	0	527	281	
0	0	0	0	0	527	281	
1	0	0	0	0	526	281	
2	0	0	0	0	526	281	
3	0	0	0	0	526	281	
4	0	0	0	0	526	281	
5	0	0	0	0	525	281	
6	0	0	0	0	526	281	
7	0	0	0	0	526	281	
8	0	0	0	0	526	280	
9	0	0	0	0	527	280	
10	0	0	0	0	528	280	
11	0	0	0	0	528	281	
12	0	0	0	0	529	281	
13	0	0	0	0	530	280	
14	0	0	0	0	531	280	
15	0	0	0	0	531	280	
0	0	0	0	0	531	281	
1	0	0	0	0	531	281	
2	0	0	0	0	531	280	
3	0	0	0	0	529	281	
4	0	0	0	0	528	281	
5	0	0	0	0	528	280	
6	0	0	0	0	529	281	
7	0	0	0	0	530	281	
8	0	0	0	0	531	280	
9	0	0	0	0	532	281	
10	0	0	0	0	532	280	
11	0	0	0	0	533	281	
12	0	0	0	0	533	280	
13	0	0	0	0	533	281	
14	0	0	0	0	534	280	
15	0	0	0	0	534	280	
0	0	0	0	0	533	281	
1	0	0	0	0	532	280	
2	0	0	0	0	533	280	
3	0	0	0	0	532	281	
4	0	0	0	0	531	281	
5	0	0	0	0	530	280	
6	0	0	0	0	529	281	
7	0	0	0	0	528	281	
8	0	0	0	0	528	280	
9	0	0	0	0	528	280	
10	0	0	0	0	529	281	
11	0	0	0	0	529	281	
12	0	0	0	0	529	280	
13	0	0	0	0	529	280	
14	0	0	0	0	528	281	
15	0	0	0	0	528	280	
0	0	0	0	0	528	280	
1	0	0	0	0	528	281	
2	0	0	0	0	528	281	
3	0	0	0	0	527	280	
4	0	0	0	0	527	281	
5	0	0	0	0	526	280	
6	0	0	0	0	526	280	
7	0	0	0	0	525	281	
8	0	0	0	0	526	281	
9	0	0	0	0	526	280	
10	0	0	0	0	526	281	
11	0	0	0	0	526	281	
12	0	0	0	0	526	280	
13	0	0	0	0	525	280	
14	0	0	0	0	525	280	
15	0	0	0	0	524	280	
0	0	0	0	0	524	280	
1	0	0	0	0	522	281	
2	0	0	0	0	522	281	
3	0	0	0	0	522	280	
4	0	0	0	0	521	280	
5	0	0	0	0	521	281	
6	0	0	0	0	520	280	
7	0	0	0	0	519	280	
8	0	0	0	0	519	281	
9	0	0	0	0	520	281	
10	0	0	0	0	521	281	
11	0	0	0	0	521	280	
12	0	0	0	0	522	281	
13	0	0	0	0	522	281	
14	0	0	0	0	522	280	
15	0	0	0	0	523	280	
0	0	0	0	0	523	280	
1	0	0	0	0	521	281	
2	0	0	0	0	519	281	
3	0	0	0	0	519	280	
4	0	0	0	0	517	281	
5	0	0	0	0	516	281	
6	0	0	0	0	516	280	
7	0	0	0	0	516	280	
8	0	0	0	0	516	281	
9	0	0	0	0	516	281	
10	0	0	0	0	517	280	
11	0	0	0	0	517	280	
12	0	0	0	0	517	281	
13	0	0	0	0	518	281	
14	0	0	0	0	518	280	
15	0	0	0	0	519	280	
0	0	0	0	0	519	280	
1	0	0	0	0	519	280	
2	0	0	0	0	519	280	
3	0	0	0	0	519	280	
4	0	0	0	0	518	280	
5	0	0	0	0	516	281	
6	0	0	0	0	515	280	
7	0	0	0	0	514	281	
8	0	0	0	0	514	280	
9	0	0	0	0	514	281	
10	0	0	0	0	515	280	
11	0	0	0	0	516	280	
12	0	0	0	0	517	281	
13	0	0	0	0	518	280	
14	0	0	0	0	519	280	
15	0	0	0	0	519	280	
0	0	0	0	0	519	280	
1	0	0	0	0	519	281	
2	0	0	0	0	519	280	
3	0	0	0	0	518	280	
4	0	0	0	0	518	281	
5	0	0	0	0	516	281	
6	0	0	0	0	516	280	
7	0	0	0	0	516	280	
8	0	0	0	0	515	280	
9	0	0	0	0	515	281	
10	0	0	0	0	515	281	
11	0	0	0	0	515	280	
12	0	0	0	0	515	280	
13	0	0	0	0	515	280	
14	0	0	0	0	516	281	
15	0	0	0	0	516	280	
0	0	0	0	0	516	280	
1	0	0	0	0	515	280	
2	0	0	0	0	516	280	
3	0	0	0	0	516	281	
4	0	0	0	0	516	280	
5	0	0	0	0	515	280	
6	0	0	0	0	514	281	
7	0	0	0	0	513	280	
8	0	0	0	0	512	281	
9	0	0	0	0	512	281	
10	0	0	0	0	512	280	
11	0	0	0	0	511	280	
12	0	0	0	0	511	281	
13	0	0	0	0	511	280	
14	0	0	0	0	512	280	
15	0	0	0	0	513	280	
0	0	0	0	0	514	280	
1	0	0	0	0	513	280	
2	0	0	0	0	513	280	
3	0	0	0	0	513	280	
4	0	0	0	0	512	281	
5	0	0	0	0	512	281	
6	0	0	0	0	511	280	
7	0	0	0	0	511	280	
8	0	0	0	0	510	281	
9	0	0	0	0	510	281	
10	0	0	0	0	510	280	
11	0	0	0	0	509	280	
12	0	0	0	0	510	281	
13	0	0	0	0	511	280	
14	0	0	0	0	512	280	
15	0	0	0	0	512	280	
0	0	0	0	0	513	280	
1	0	0	0	0	514	281	
2	0	0	0	0	514	280	
3	0	0	0	0	513	280	
4	0	0	0	0	514	280	
5	0	0	0	0	514	281	
6	0	0	0	0	513	280	
7	0	0	0	0	513	280	
8	0	0	0	0	512	280	
9	0	0	0	0	512	280	
10	0	0	0	0	511	281	
11	0	0	0	0	510	281	
12	0	0	0	0	510	280	
13	0	0	0	0	511	280	
14	0	0	0	0	511	281	
15	0	0	0	0	512	280	
0	0	0	0	0	514	281	
1	0	0	0	0	514	280	
2	0	0	0	0	515	280	
3	0	0	0	0	514	280	
4	0	0	0	0	514	280	
5	0	0	0	0	513	280	
6	0	0	0	0	513	280	
7	0	0	0	0	512	280	
8	0	0	0	0	511	281	
9	0	0	0	0	510	280	
10	0	0	0	0	510	280	
11	0	0	0	0	509	280	
12	0	0	0	0	510	281	
13	0	0	0	0	511	281	
14	0	0	0	0	511	280	
15	0	0	0	0	512	280	
0	0	0	0	0	512	280	
1	0	0	0	0	512	280	
2	0	0	0	0	512	280	
3	0	0	0	0	512	280	
4	0	0	0	0	512	280	
5	0	0	0	0	513	280	
6	0	0	0	0	513	280	
7	0	0	0	0	513	280	
8	0	0	0	0	512	280	
9	0	0	0	0	511	281	
10	0	0	0	0	511	280	
11	0	0	0	0	510	280	
12	0	0	0	0	510	281	
13	0	0	0	0	509	280	
14	0	0	0	0	509	280	
15	0	0	0	0	510	280	
0	0	0	0	0	511	280	
1	0	0	0	0	512	280	
2	0	0	0	0	513	280	
3	0	0	0	0	514	280	
4	0	0	0	0	514	280	
5	0	0	0	0	514	280	
6	0	0	0	0	514	280	
7	0	0	0	0	513	280	
8	0	0	0	0	514	280	
9	0	0	0	0	513	280	
10	0	0	0	0	512	280	
11	0	0	0	0	511	281	
12	0	0	0	0	511	281	
13	0	0	0	0	511	280	
14	0	0	0	0	511	280	
15	0	0	0	0	512	280	
0	0	0	0	0	512	281	
1	0	0	0	0	513	280	
2	0	0	0	0	514	280	
3	0	0	0	0	514	280	
4	0	0	0	0	515	280	
5	0	0	0	0	515	280	
6	0	0	0	0	516	280	
7	0	0	0	0	515	280	
8	0	0	0	0	514	280	
9	0	0	0	0	513	280	
10	0	0	0	0	513	280	
11	0	0	0	0	511	281	
12	0	0	0	0	510	280	
13	0	0	0	0	509	281	
14	0	0	0	0	509	280	
15	0	0	0	0	509	280	
0	0	0	0	0	509	280	
1	0	0	0	0	509	281	
2	0	0	0	0	511	280	
3	0	0	0	0	511	280	
4	0	0	0	0	512	280	
5	0	0	0	0	512	280	
6	0	0	0	0	511	280	
7	0	0	0	0	511	280	
8	0	0	0	0	509	280	
9	0	0	0	0	508	280	
10	0	0	0	0	509	280	
11	0	0	0	0	508	280	
12	0	0	0	0	507	280	
13	0	0	0	0	508	280	
14	0	0	0	0	508	281	
15	0	0	0	0	508	281	
0	0	0	0	0	508	280	
1	0	0	0	0	509	280	
2	0	0	0	0	509	280	
3	0	0	0	0	510	280	
4	0	0	0	0	511	280	
5	0	0	0	0	511	280	
6	0	0	0	0	511	280	
7	0	0	0	0	512	280	
8	0	0	0	0	512	280	
9	0	0	0	0	511	280	
10	0	0	0	0	511	281	
11	0	0	0	0	511	280	
12	0	0	0	0	511	280	
13	0	0	0	0	510	281	
14	0	0	0	0	510	281	
15	0	0	0	0	509	280	
0	0	0	0	0	508	280	
1	0	0	0	0	507	281	
2	0	0	0	0	507	281	
3	0	0	0	0	507	280	
4	0	0	0	0	508	280	
5	0	0	0	0	508	280	
6	0	0	0	0	509	280	
7	0	0	0	0	510	281	
8	0	0	0	0	510	280	
9	0	0	0	0	509	280	
10	0	0	0	0	508	280	
11	0	0	0	0	508	280	
12	0	0	0	0	507	281	
13	0	0	0	0	506	280	
14	0	0	0	0	505	280	
15	0	0	0	0	504	281	
0	0	0	0	0	504	281	
1	0	0	0	0	504	280	
2	0	0	0	0	505	280	
3	0	0	0	0	505	280	
4	0	0	0	0	507	280	
5	0	0	0	0	507	280	
6	0	0	0	0	507	280	
7	0	0	0	0	507	280	
8	0	0	0	0	507	280	
9	0	0	0	0	507	281	
10	0	0	0	0	506	280	
11	0	0	0	0	505	280	
12	0	0	0	0	505	280	
13	0	0	0	0	505	281	
14	0	0	0	0	503	280	
15	0	0	0	0	502	280	
0	0	0	0	0	502	280	
1	0	0	0	0	501	281	
2	0	0	0	0	502	281	
3	0	0	0	0	503	280	
4	0	0	0	0	504	280	
5	0	0	0	0	505	280	
6	0	0	0	0	507	280	
7	0	0	0	0	507	281	
8	0	0	0	0	506	280	
9	0	0	0	0	506	280	
10	0	0	0	0	506	280	
11	0	0	0	0	506	280	
12	0	0	0	0	507	280	
13	0	0	0	0	507	280	
14	0	0	0	0	507	280	
15	0	0	0	0	507	280	
0	0	0	0	0	507	280	
1	0	0	0	0	507	281	
2	0	0	0	0	505	280	
3	0	0	0	0	505	280	
4	0	0	0	0	505	280	
5	0	0	0	0	506	280	
6	0	0	0	0	507	280	
7	0	0	0	0	507	280	
8	0	0	0	0	507	280	
9	0	0	0	0	508	280	
10	0	0	0	0	508	280	
11	0	0	0	0	507	280	
12	0	0	0	0	507	280	
13	0	0	0	0	506	280	
14	0	0	0	0	505	280	
15	0	0	0	0	505	280	
0	0	0	0	0	505	281	
1	0	0	0	0	505	280	
2	0	0	0	0	504	280	
3	0	0	0	0	504	280	
4	0	0	0	0	504	280	
5	0	0	0	0	504	280	
6	0	0	0	0	504	280	
7	0	0	0	0	505	280	
8	0	0	0	0	505	280	
9	0	0	0	0	506	280	
10	0	0	0	0	507	280	
11	0	0	0	0	507	280	
12	0	0	0	0	507	281	
13	0	0	0	0	506	280	
14	0	0	0	0	506	281	
15	0	0	0	0	506	281	
0	0	0	0	0	506	281	
1	0	0	0	0	505	280	
2	0	0	0	0	505	281	
3	0	0	0	0	506	280	
4	0	0	0	0	506	280	
5	0	0	0	0	505	280	
6	0	0	0	0	506	280	
7	0	0	0	0	508	280	
8	0	0	0	0	508	280	
9	0	0	0	0	508	280	
10	0	0	0	0	508	280	
11	0	0	0	0	508	280	
12	0	0	0	0	508	280	
13	0	0	0	0	509	280	
14	0	0	0	0	509	280	
15	0	0	0	0	508	280	
0	0	0	0	0	508	281	
1	0	0	0	0	508	280	
2	0	0	0	0	507	280	
3	0	0	0	0	507	280	
4	0	0	0	0	507	280	
5	0	0	0	0	508	280	
6	0	0	0	0	508	280	
7	0	0	0	0	509	280	
8	0	0	0	0	510	280	
9	0	0	0	0	510	280	
10	0	0	0	0	511	280	
11	0	0	0	0	511	280	
12	0	0	0	0	511	280	
13	0	0	0	0	511	280	
14	0	0	0	0	510	280	
15	0	0	0	0	510	280	
0	0	0	0	0	509	280	
1	0	0	0	0	508	280	
2	0	0	0	0	509	280	
3	0	0	0	0	508	280	
4	0	0	0	0	508	280	
5	0	0	0	0	508	281	
6	0	0	0	0	508	281	
7	0	0	0	0	508	280	
8	0	0	0	0	508	280	
9	0	0	0	0	508	280	
10	0	0	0	0	509	280	
11	0	0	0	0	510	281	
12	0	0	0	0	510	280	
13	0	0	0	0	511	280	
14	0	0	0	0	511	280	
15	0	0	0	0	511	281	
0	0	0	0	0	511	280	
1	0	0	0	0	511	280	
2	0	0	0	0	510	280	
3	0	0	0	0	509	281	
4	0	0	0	0	509	280	
5	0	0	0	0	508	281	
6	0	0	0	0	508	280	
7	0	0	0	0	509	280	
8	0	0	0	0	510	280	
9	0	0	0	0	511	281	
10	0	0	0	0	512	280	
11	0	0	0	0	512	280	
12	0	0	0	0	513	280	
13	0	0	0	0	514	280	
14	0	0	0	0	515	280	
15	0	0	0	0	513	280	
0	0	0	0	0	513	280	
1	0	0	0	0	512	280	
2	0	0	0	0	511	281	
3	0	0	0	0	510	280	
4	0	0	0	0	510	281	
5	0	0	0	0	510	280	
6	0	0	0	0	509	280	
7	0	0	0	0	508	280	
8	0	0	0	0	509	280	
9	0	0	0	0	510	280	
10	0	0	0	0	511	281	
11	0	0	0	0	512	280	
12	0	0	0	0	513	280	
13	0	0	0	0	513	280	
14	0	0	0	0	513	280	
15	0	0	0	0	513	280	
0	0	0	0	0	512	280	
1	0	0	0	0	512	280	
2	0	0	0	0	511	280	
3	0	0	0	0	510	280	
4	0	0	0	0	510	280	
5	0	0	0	0	510	280	
6	0	0	0	0	510	281	
7	0	0	0	0	510	281	
8	0	0	0	0	510	280	
9	0	0	0	0	511	280	
10	0	0	0	0	512	280	
11	0	0	0	0	512	280	
12	0	0	0	0	512	280	
13	0	0	0	0	512	280	
14	0	0	0	0	512	280	
15	0	0	0	0	513	280	
0	0	0	0	0	513	280	
1	0	0	0	0	512	280	
2	0	0	0	0	512	280	
3	0	0	0	0	512	281	
4	0	0	0	0	511	280	
5	0	0	0	0	510	280	
6	0	0	0	0	509	280	
7	0	0	0	0	509	280	
8	0	0	0	0	509	280	
9	0	0	0	0	509	280	
10	0	0	0	0	511	280	
11	0	0	0	0	512	280	
12	0	0	0	0	512	280	
13	0	0	0	0	512	280	
14	0	0	0	0	512	280	
15	0	0	0	0	512	280	
0	0	0	0	0	512	280	
1	0	0	0	0	512	280	
2	0	0	0	0	513	281	
3	0	0	0	0	513	280	
4	0	0	0	0	513	280	
5	0	0	0	0	512	280	
6	0	0	0	0	512	280	
7	0	0	0	0	512	280	
8	0	0	0	0	512	280	
9	0	0	0	0	512	280	
10	0	0	0	0	513	280	
11	0	0	0	0	514	280	
12	0	0	0	0	514	281	
13	0	0	0	0	515	280	
14	0	0	0	0	514	280	
15	0	0	0	0	514	280	
0	0	0	0	0	513	280	
1	0	0	0	0	513	280	
2	0	0	0	0	512	280	
3	0	0	0	0	511	280	
4	0	0	0	0	510	280	
5	0	0	0	0	509	280	
6	0	0	0	0	508	281	
7	0	0	0	0	508	280	
8	0	0	0	0	508	280	
9	0	0	0	0	508	280	
10	0	0	0	0	508	280	
11	0	0	0	0	509	280	
12	0	0	0	0	509	280	
13	0	0	0	0	510	280	
14	0	0	0	0	510	280	
15	0	0	0	0	510	280	
0	0	0	0	0	510	280	
1	0	0	0	0	510	280	
2	0	0	0	0	510	280	
3	0	0	0	0	510	280	
4	0	0	0	0	509	280	
5	0	0	0	0	508	280	
6	0	0	0	0	507	280	
7	0	0	0	0	505	281	
8	0	0	0	0	505	280	
9	0	0	0	0	504	280	
10	0	0	0	0	505	281	
11	0	0	0	0	505	280	
12	0	0	0	0	506	280	
13	0	0	0	0	507	280	
14	0	0	0	0	508	280	
15	0	0	0	0	508	280	
0	0	0	0	0	508	280	
1	0	0	0	0	508	280	
2	0	0	0	0	507	280	
3	0	0	0	0	507	280	
4	0	0	0	0	505	280	
5	0	0	0	0	504	280	
6	0	0	0	0	504	280	
7	0	0	0	0	503	280	
8	0	0	0	0	503	280	
9	0	0	0	0	503	280	
10	0	0	0	0	503	280	
11	0	0	0	0	503	280	
12	0	0	0	0	504	280	
13	0	0	0	0	504	280	
14	0	0	0	0	504	280	
15	0	0	0	0	504	280	
0	0	0	0	0	504	280	
1	0	0	0	0	505	280	
2	0	0	0	0	505	280	
3	0	0	0	0	505	280	
4	0	0	0	0	505	280	
5	0	0	0	0	504	280	
6	0	0	0	0	503	280	
7	0	0	0	0	503	280	
8	0	0	0	0	502	280	
9	0	0	0	0	501	280	
10	0	0	0	0	500	280	
11	0	0	0	0	501	281	
12	0	0	0	0	500	281	
13	0	0	0	0	502	280	
14	0	0	0	0	504	280	
15	0	0	0	0	505	280	
0	0	0	0	0	505	280	
1	0	0	0	0	506	280	
2	0	0	0	0	508	280	
3	0	0	0	0	508	280	
4	0	0	0	0	507	280	
5	0	0	0	0	507	280	
6	0	0	0	0	507	280	
7	0	0	0	0	506	280	
8	0	0	0	0	505	280	
9	0	0	0	0	504	280	
10	0	0	0	0	504	280	
11	0	0	0	0	503	280	
12	0	0	0	0	503	280	
13	0	0	0	0	503	280	
14	0	0	0	0	504	280	
15	0	0	0	0	504	280	
0	0	0	0	0	504	280	
1	0	0	0	0	504	280	
2	0	0	0	0	504	280	
3	0	0	0	0	504	280	
4	0	0	0	0	503	280	
5	0	0	0	0	502	280	
6	0	0	0	0	502	280	
7	0	0	0	0	500	280	
8	0	0	0	0	499	281	
9	0	0	0	0	497	280	
10	0	0	0	0	497	280	
11	0	0	0	0	497	281	
12	0	0	0	0	496	281	
13	0	0	0	0	497	280	
14	0	0	0	0	497	280	
15	0	0	0	0	498	280	
0	0	0	0	0	498	281	
1	0	0	0	0	499	280	
2	0	0	0	0	499	280	
3	0	0	0	0	499	280	
4	0	0	0	0	499	280	
5	0	0	0	0	499	280	
6	0	0	0	0	500	280	
7	0	0	0	0	500	280	
8	0	0	0	0	500	280	
9	0	0	0	0	500	280	
10	0	0	0	0	499	280	
11	0	0	0	0	499	280	
12	0	0	0	0	499	280	
13	0	0	0	0	499	280	
14	0	0	0	0	500	280	
15	0	0	0	0	501	280	
0	0	0	0	0	502	280	
1	0	0	0	0	503	280	
2	0	0	0	0	503	280	
3	0	0	0	0	504	280	
4	0	0	0	0	504	280	
5	0	0	0	0	504	280	
6	0	0	0	0	504	280	
7	0	0	0	0	504	280	
8	0	0	0	0	503	280	
9	0	0	0	0	503	280	
10	0	0	0	0	503	280	
11	0	0	0	0	503	280	
12	0	0	0	0	503	280	
13	0	0	0	0	504	280	
14	0	0	0	0	505	281	
15	0	0	0	0	505	280	
0	0	0	0	0	507	280	
1	0	0	0	0	507	280	
2	0	0	0	0	508	280	
3	0	0	0	0	508	280	
4	0	0	0	0	509	280	
5	0	0	0	0	509	280	
6	0	0	0	0	508	280	
7	0	0	0	0	509	280	
8	0	0	0	0	510	280	
9	0	0	0	0	509	280	
10	0	0	0	0	508	280	
11	0	0	0	0	509	280	
12	0	0	0	0	509	280	
13	0	0	0	0	509	281	
14	0	0	0	0	509	280	
15	0	0	0	0	510	280	
0	0	0	0	0	510	280	
1	0	0	0	0	511	280	
2	0	0	0	0	512	280	
3	0	0	0	0	512	280	
4	0	0	0	0	512	280	
5	0	0	0	0	513	280	
6	0	0	0	0	513	280	
7	0	0	0	0	513	280	
8	0	0	0	0	513	280	
9	0	0	0	0	513	280	
10	0	0	0	0	513	280	
11	0	0	0	0	512	280	
12	0	0	0	0	512	280	
13	0	0	0	0	511	280	
14	0	0	0	0	512	280	
15	0	0	0	0	512	280	
0	0	0	0	0	512	280	
1	0	0	0	0	514	280	
2	0	0	0	0	514	280	
3	0	0	0	0	514	280	
4	0	0	0	0	515	280	
5	0	0	0	0	516	280	
6	0	0	0	0	516	280	
7	0	0	0	0	517	280	
8	0	0	0	0	516	280	
9	0	0	0	0	516	280	
10	0	0	0	0	515	280	
11	0	0	0	0	515	280	
12	0	0	0	0	515	280	
13	0	0	0	0	515	280	
14	0	0	0	0	516	280	
15	0	0	0	0	516	280	
0	0	0	0	0	516	280	
1	0	0	0	0	518	280	
2	0	0	0	0	518	280	
3	0	0	0	0	518	280	
4	0	0	0	0	519	280	
5	0	0	0	0	519	280	
6	0	0	0	0	519	280	
7	0	0	0	0	520	280	
8	0	0	0	0	520	280	
9	0	0	0	0	520	280	
10	0	0	0	0	520	280	
11	0	0	0	0	519	280	
12	0	0	0	0	519	280	
13	0	0	0	0	519	280	
14	0	0	0	0	519	280	
15	0	0	0	0	518	280	
0	0	0	0	0	517	280	
1	0	0	0	0	518	280	
2	0	0	0	0	517	280	
3	0	0	0	0	517	280	
4	0	0	0	0	518	280	
5	0	0	0	0	519	280	
6	0	0	0	0	518	280	
7	0	0	0	0	518	280	
8	0	0	0	0	518	280	
9	0	0	0	0	517	280	
10	0	0	0	0	516	280	
11	0	0	0	0	515	280	
12	0	0	0	0	515	281	
13	0	0	0	0	514	281	
14	0	0	0	0	514	280	
15	0	0	0	0	513	280	
0	0	0	0	0	514	280	
1	0	0	0	0	515	281	
2	0	0	0	0	515	280	
3	0	0	0	0	517	280	
4	0	0	0	0	518	280	
5	0	0	0	0	518	280	
6	0	0	0	0	518	280	
7	0	0	0	0	519	280	
8	0	0	0	0	518	280	
9	0	0	0	0	518	280	
10	0	0	0	0	518	280	
11	0	0	0	0	517	281	
12	0	0	0	0	517	280	
13	0	0	0	0	516	281	
14	0	0	0	0	515	280	
15	0	0	0	0	513	280	
0	0	0	0	0	512	280	
1	0	0	0	0	511	281	
2	0	0	0	0	510	280	
3	0	0	0	0	509	280	
4	0	0	0	0	508	280	
5	0	0	0	0	507	280	
6	0	0	0	0	506	280	
7	0	0	0	0	504	280	
8	0	0	0	0	502	280	
9	0	0	0	0	500	280	
10	0	0	0	0	498	280	
11	0	0	0	0	497	280	
12	0	0	0	0	496	281	
13	0	0	0	0	494	280	
14	0	0	0	0	491	280	
15	0	0	0	0	488	280	
0	0	0	0	0	487	280	
1	0	0	0	0	485	280	
2	0	0	0	0	485	281	
3	0	0	0	0	486	281	
4	0	0	0	0	488	280	
5	0	0	0	0	491	280	
6	0	0	0	0	493	280	
7	0	0	0	0	496	280	
8	0	0	0	0	498	280	
9	0	0	0	0	500	280	
10	0	0	0	0	502	280	
11	0	0	0	0	504	280	
12	0	0	0	0	504	280	
13	0	0	0	0	503	280	
14	0	0	0	0	502	280	
15	0	0	0	0	501	280	
0	0	0	0	0	500	280	
1	0	0	0	0	499	281	
2	0	0	0	0	499	281	
3	0	0	0	0	499	280	
4	0	0	0	0	500	280	
5	0	0	0	0	503	280	
6	0	0	0	0	504	280	
7	0	0	0	0	505	280	
8	0	0	0	0	506	280	
9	0	0	0	0	507	280	
10	0	0	0	0	509	280	
11	0	0	0	0	509	280	
12	0	0	0	0	509	280	
13	0	0	0	0	508	280	
14	0	0	0	0	508	280	
15	0	0	0	0	508	280	
0	0	0	0	0	509	280	
1	0	0	0	0	508	280	
2	0	0	0	0	509	280	
3	0	0	0	0	508	280	
4	0	0	0	0	508	280	
5	0	0	0	0	508	280	
6	0	0	0	0	509	280	
7	0	0	0	0	510	280	
8	0	0	0	0	510	280	
9	0	0	0	0	510	280	
10	0	0	0	0	510	280	
11	0	0	0	0	511	280	
12	0	0	0	0	510	280	
13	0	0	0	0	509	280	
14	0	0	0	0	508	280	
15	0	0	0	0	507	280	
0	0	0	0	0	505	280	
1	0	0	0	0	504	280	
2	0	0	0	0	503	280	
3	0	0	0	0	502	280	
4	0	0	0	0	500	280	
5	0	0	0	0	499	280	
6	0	0	0	0	499	280	
7	0	0	0	0	498	280	
8	0	0	0	0	498	280	
9	0	0	0	0	498	280	
10	0	0	0	0	498	280	
11	0	0	0	0	498	280	
12	0	0	0	0	497	280	
13	0	0	0	0	497	280	
14	0	0	0	0	496	280	
15	0	0	0	0	496	280	
0	0	0	0	0	496	280	
1	0	0	0	0	496	280	
2	0	0	0	0	496	281	
3	0	0	0	0	495	280	
4	0	0	0	0	495	280	
5	0	0	0	0	495	280	
6	0	0	0	0	495	280	
7	0	0	0	0	496	280	
8	0	0	0	0	497	280	
9	0	0	0	0	499	280	
10	0	0	0	0	500	280	
11	0	0	0	0	500	280	
12	0	0	0	0	500	280	
13	0	0	0	0	499	280	
14	0	0	0	0	499	280	
15	0	0	0	0	498	280	
0	0	0	0	0	498	280	
1	0	0	0	0	499	280	
2	0	0	0	0	498	280	
3	0	0	0	0	498	280	
4	0	0	0	0	498	280	
5	0	0	0	0	499	280	
6	0	0	0	0	499	280	
7	0	0	0	0	500	280	
8	0	0	0	0	500	280	
9	0	0	0	0	501	280	
10	0	0	0	0	501	280	
11	0	0	0	0	501	280	
12	0	0	0	0	501	280	
13	0	0	0	0	502	280	
14	0	0	0	0	502	280	
15	0	0	0	0	502	280	
0	0	0	0	0	502	281	
1	0	0	0	0	502	281	
2	0	0	0	0	501	280	
3	0	0	0	0	500	280	
4	0	0	0	0	500	280	
5	0	0	0	0	500	280	
6	0	0	0	0	499	281	
7	0	0	0	0	500	280	
8	0	0	0	0	500	280	
9	0	0	0	0	502	280	
10	0	0	0	0	503	280	
11	0	0	0	0	504	280	
12	0	0	0	0	504	280	
13	0	0	0	0	505	280	
14	0	0	0	0	505	280	
15	0	0	0	0	505	280	
0	0	0	0	0	507	280	
1	0	0	0	0	506	280	
2	0	0	0	0	507	280	
3	0	0	0	0	506	280	
4	0	0	0	0	505	281	
5	0	0	0	0	505	280	
6	0	0	0	0	504	280	
7	0	0	0	0	504	281	
8	0	0	0	0	505	280	
9	0	0	0	0	505	280	
10	0	0	0	0	507	280	
11	0	0	0	0	508	280	
12	0	0	0	0	508	280	
13	0	0	0	0	508	280	
14	0	0	0	0	508	280	
15	0	0	0	0	508	280	
0	0	0	0	0	507	280	
1	0	0	0	0	506	280	
2	0	0	0	0	505	280	
3	0	0	0	0	504	280	
4	0	0	0	0	504	280	
5	0	0	0	0	504	280	
6	0	0	0	0	504	280	
7	0	0	0	0	504	280	
8	0	0	0	0	504	280	
9	0	0	0	0	504	280	
10	0	0	0	0	504	280	
11	0	0	0	0	504	280	
12	0	0	0	0	504	280	
13	0	0	0	0	504	280	
14	0	0	0	0	504	280	
15	0	0	0	0	504	280	
0	0	0	0	0	504	280	
1	0	0	0	0	503	280	
2	0	0	0	0	503	280	
3	0	0	0	0	502	280	
4	0	0	0	0	502	280	
5	0	0	0	0	502	280	
6	0	0	0	0	502	280	
7	0	0	0	0	503	280	
8	0	0	0	0	503	280	
9	0	0	0	0	504	280	
10	0	0	0	0	504	280	
11	0	0	0	0	504	280	
12	0	0	0	0	505	280	
13	0	0	0	0	505	280	
14	0	0	0	0	505	280	
15	0	0	0	0	505	280	
0	0	0	0	0	506	280	
1	0	0	0	0	506	280	
2	0	0	0	0	505	280	
3	0	0	0	0	504	280	
4	0	0	0	0	504	280	
5	0	0	0	0	503	280	
6	0	0	0	0	503	280	
7	0	0	0	0	502	280	
8	0	0	0	0	501	280	
9	0	0	0	0	500	280	
10	0	0	0	0	500	280	
11	0	0	0	0	501	280	
12	0	0	0	0	501	280	
13	0	0	0	0	501	280	
14	0	0	0	0	501	280	
15	0	0	0	0	500	280	
0	0	0	0	0	499	280	
1	0	0	0	0	499	280	
2	0	0	0	0	499	280	
3	0	0	0	0	499	280	
4	0	0	0	0	498	280	
5	0	0	0	0	497	280	
6	0	0	0	0	496	280	
7	0	0	0	0	496	281	
8	0	0	0	0	495	280	
9	0	0	0	0	495	280	
10	0	0	0	0	496	280	
11	0	0	0	0	496	280	
12	0	0	0	0	496	280	
13	0	0	0	0	496	280	
14	0	0	0	0	496	280	
15	0	0	0	0	497	280	
0	0	0	0	0	498	280	
1	0	0	0	0	498	280	
2	0	0	0	0	499	280	
3	0	0	0	0	499	280	
4	0	0	0	0	499	280	
5	0	0	0	0	498	280	
6	0	0	0	0	497	280	
7	0	0	0	0	496	280	
8	0	0	0	0	496	280	
9	0	0	0	0	496	280	
10	0	0	0	0	496	280	
11	0	0	0	0	496	280	
12	0	0	0	0	496	280	
13	0	0	0	0	496	280	
14	0	0	0	0	497	280	
15	0	0	0	0	498	280	
0	0	0	0	0	497	280	
1	0	0	0	0	497	280	
2	0	0	0	0	498	280	
3	0	0	0	0	497	280	
4	0	0	0	0	496	280	
5	0	0	0	0	496	280	
6	0	0	0	0	495	280	
7	0	0	0	0	494	280	
8	0	0	0	0	494	280	
9	0	0	0	0	494	280	
10	0	0	0	0	493	280	
11	0	0	0	0	493	280	
12	0	0	0	0	492	280	
13	0	0	0	0	493	280	
14	0	0	0	0	494	280	
15	0	0	0	0	495	280	
0	0	0	0	0	496	280	
1	0	0	0	0	497	280	
2	0	0	0	0	497	280	
3	0	0	0	0	497	280	
4	0	0	0	0	498	280	
5	0	0	0	0	497	280	
6	0	0	0	0	496	280	
7	0	0	0	0	495	280	
8	0	0	0	0	495	280	
9	0	0	0	0	495	281	
10	0	0	0	0	494	280	
11	0	0	0	0	494	280	
12	0	0	0	0	496	281	
13	0	0	0	0	496	280	
14	0	0	0	0	497	280	
15	0	0	0	0	498	280	
0	0	0	0	0	499	280	
1	0	0	0	0	499	280	
2	0	0	0	0	499	280	
3	0	0	0	0	499	280	
4	0	0	0	0	499	280	
5	0	0	0	0	499	280	
6	0	0	0	0	500	280	
7	0	0	0	0	500	280	
8	0	0	0	0	500	280	
9	0	0	0	0	500	280	
10	0	0	0	0	500	280	
11	0	0	0	0	499	280	
12	0	0	0	0	500	280	
13	0	0	0	0	500	280	
14	0	0	0	0	502	280	
15	0	0	0	0	503	280	
0	0	0	0	0	504	280	
1	0	0	0	0	504	280	
2	0	0	0	0	504	280	
3	0	0	0	0	504	280	
4	0	0	0	0	505	280	
5	0	0	0	0	505	280	
6	0	0	0	0	505	280	
7	0	0	0	0	505	280	
8	0	0	0	0	505	280	
9	0	0	0	0	505	280	
10	0	0	0	0	505	280	
11	0	0	0	0	505	280	
12	0	0	0	0	505	280	
13	0	0	0	0	505	281	
14	0	0	0	0	506	280	
15	0	0	0	0	508	280	
0	0	0	0	0	509	280	
1	0	0	0	0	510	280	
2	0	0	0	0	511	280	
3	0	0	0	0	512	280	
4	0	0	0	0	514	280	
5	0	0	0	0	515	280	
6	0	0	0	0	515	280	
7	0	0	0	0	513	280	
8	0	0	0	0	513	280	
9	0	0	0	0	512	280	
10	0	0	0	0	512	280	
11	0	0	0	0	512	280	
12	0	0	0	0	512	280	
13	0	0	0	0	512	280	
14	0	0	0	0	513	280	
15	0	0	0	0	514	281	
0	0	0	0	0	515	280	
1	0	0	0	0	516	280	
2	0	0	0	0	518	280	
3	0	0	0	0	520	280	
4	0	0	0	0	521	280	
5	0	0	0	0	522	280	
6	0	0	0	0	522	280	
7	0	0	0	0	522	280	
8	0	0	0	0	523	280	
9	0	0	0	0	522	280	
10	0	0	0	0	521	280	
11	0	0	0	0	521	280	
12	0	0	0	0	521	280	
13	0	0	0	0	520	280	
14	0	0	0	0	520	280	
15	0	0	0	0	521	280	
0	0	0	0	0	522	280	
1	0	0	0	0	524	280	
2	0	0	0	0	526	280	
3	0	0	0	0	527	280	
4	0	0	0	0	528	280	
5	0	0	0	0	529	280	
6	0	0	0	0	529	280	
7	0	0	0	0	528	280	
8	0	0	0	0	527	280	
9	0	0	0	0	526	280	
10	0	0	0	0	526	280	
11	0	0	0	0	524	280	
12	0	0	0	0	525	280	
13	0	0	0	0	524	280	
14	0	0	0	0	524	280	
15	0	0	0	0	523	280	
0	0	0	0	0	524	280	
1	0	0	0	0	525	280	
2	0	0	0	0	526	280	
3	0	0	0	0	527	280	
4	0	0	0	0	527	280	
5	0	0	0	0	527	280	
6	0	0	0	0	527	280	
7	0	0	0	0	527	280	
8	0	0	0	0	526	280	
9	0	0	0	0	526	280	
10	0	0	0	0	525	280	
11	0	0	0	0	525	280	
12	0	0	0	0	524	280	
13	0	0	0	0	524	280	
14	0	0	0	0	524	280	
15	0	0	0	0	524	280	
0	0	0	0	0	524	280	
1	0	0	0	0	524	280	
2	0	0	0	0	526	280	
3	0	0	0	0	526	280	
4	0	0	0	0	527	280	
5	0	0	0	0	527	280	
6	0	0	0	0	527	280	
7	0	0	0	0	527	280	
8	0	0	0	0	527	280	
9	0	0	0	0	526	280	
10	0	0	0	0	527	280	
11	0	0	0	0	527	280	
12	0	0	0	0	527	280	
13	0	0	0	0	526	280	
14	0	0	0	0	524	280	
15	0	0	0	0	524	280	
0	0	0	0	0	524	280	
1	0	0	0	0	524	280	
2	0	0	0	0	524	280	
3	0	0	0	0	525	280	
4	0	0	0	0	525	280	
5	0	0	0	0	526	280	
6	0	0	0	0	525	280	
7	0	0	0	0	525	280	
8	0	0	0	0	524	280	
9	0	0	0	0	523	280	
10	0	0	0	0	523	280	
11	0	0	0	0	521	280	
12	0	0	0	0	520	280	
13	0	0	0	0	519	280	
14	0	0	0	0	517	280	
15	0	0	0	0	516	280	
0	0	0	0	0	516	280	
1	0	0	0	0	516	280	
2	0	0	0	0	515	280	
3	0	0	0	0	516	280	
4	0	0	0	0	515	280	
5	0	0	0	0	516	280	
6	0	0	0	0	515	280	
7	0	0	0	0	516	280	
8	0	0	0	0	517	280	
9	0	0	0	0	517	280	
10	0	0	0	0	517	280	
11	0	0	0	0	517	280	
12	0	0	0	0	516	280	
13	0	0	0	0	516	280	
14	0	0	0	0	515	280	
15	0	0	0	0	515	280	
0	0	0	0	0	515	280	
1	0	0	0	0	515	280	
2	0	0	0	0	515	280	
3	0	0	0	0	515	280	
4	0	0	0	0	516	280	
5	0	0	0	0	516	280	
6	0	0	0	0	516	280	
7	0	0	0	0	516	280	
8	0	0	0	0	516	280	
9	0	0	0	0	517	280	
10	0	0	0	0	516	280	
11	0	0	0	0	515	280	
12	0	0	0	0	514	280	
13	0	0	0	0	514	280	
14	0	0	0	0	513	280	
15	0	0	0	0	512	280	
0	0	0	0	0	511	280	
1	0	0	0	0	511	280	
2	0	0	0	0	512	280	
3	0	0	0	0	512	280	
4	0	0	0	0	513	280	
5	0	0	0	0	513	280	
6	0	0	0	0	514	280	
7	0	0	0	0	515	280	
8	0	0	0	0	515	280	
9	0	0	0	0	515	280	
10	0	0	0	0	516	280	
11	0	0	0	0	516	280	
12	0	0	0	0	515	280	
13	0	0	0	0	515	280	
14	0	0	0	0	514	280	
15	0	0	0	0	513	280	
0	0	0	0	0	512	280	
1	0	0	0	0	512	280	
2	0	0	0	0	512	280	
3	0	0	0	0	512	280	
4	0	0	0	0	513	280	
5	0	0	0	0	514	280	
6	0	0	0	0	514	280	
7	0	0	0	0	515	280	
8	0	0	0	0	516	280	
9	0	0	0	0	517	280	
10	0	0	0	0	516	280	
11	0	0	0	0	516	280	
12	0	0	0	0	516	280	
13	0	0	0	0	516	280	
14	0	0	0	0	514	280	
15	0	0	0	0	513	280	
0	0	0	0	0	513	280	
1	0	0	0	0	512	280	
2	0	0	0	0	513	280	
3	0	0	0	0	513	280	
4	0	0	0	0	512	280	
5	0	0	0	0	513	280	
6	0	0	0	0	514	280	
7	0	0	0	0	514	280	
8	0	0	0	0	515	280	
9	0	0	0	0	514	280	
10	0	0	0	0	514	280	
11	0	0	0	0	515	280	
12	0	0	0	0	515	280	
13	0	0	0	0	515	280	
14	0	0	0	0	514	280	
15	0	0	0	0	514	280	
0	0	0	0	0	513	280	
1	0	0	0	0	513	280	
2	0	0	0	0	513	280	
3	0	0	0	0	512	280	
4	0	0	0	0	512	280	
5	0	0	0	0	512	280	
6	0	0	0	0	512	280	
7	0	0	0	0	512	280	
8	0	0	0	0	513	280	
9	0	0	0	0	512	280	
10	0	0	0	0	513	280	
11	0	0	0	0	514	280	
12	0	0	0	0	515	280	
13	0	0	0	0	515	280	
14	0	0	0	0	515	280	
15	0	0	0	0	514	280	
0	0	0	0	0	513	280	
1	0	0	0	0	512	280	
2	0	0	0	0	512	280	
3	0	0	0	0	511	280	
4	0	0	0	0	511	280	
5	0	0	0	0	511	280	
6	0	0	0	0	512	280	
7	0	0	0	0	513	280	
8	0	0	0	0	514	280	
9	0	0	0	0	514	280	
10	0	0	0	0	515	280	
11	0	0	0	0	516	280	
12	0	0	0	0	517	280	
13	0	0	0	0	518	280	
14	0	0	0	0	518	280	
15	0	0	0	0	517	280	
0	0	0	0	0	517	280	
1	0	0	0	0	515	280	
2	0	0	0	0	515	280	
3	0	0	0	0	513	280	
4	0	0	0	0	512	280	
5	0	0	0	0	512	280	
6	0	0	0	0	512	280	
7	0	0	0	0	512	280	
8	0	0	0	0	512	280	
9	0	0	0	0	512	280	
10	0	0	0	0	513	280	
11	0	0	0	0	513	280	
12	0	0	0	0	513	280	
13	0	0	0	0	513	280	
14	0	0	0	0	512	280	
15	0	0	0	0	512	280	
0	0	0	0	0	512	280	
1	0	0	0	0	512	280	
2	0	0	0	0	512	280	
3	0	0	0	0	512	280	
4	0	0	0	0	512	280	
5	0	0	0	0	512	280	
6	0	0	0	0	512	280	
7	0	0	0	0	512	280	
8	0	0	0	0	512	280	
9	0	0	0	0	513	280	
10	0	0	0	0	513	280	
11	0	0	0	0	514	280	
12	0	0	0	0	514	280	
13	0	0	0	0	515	280	
14	0	0	0	0	514	280	
15	0	0	0	0	514	280	
0	0	0	0	0	513	280	
1	0	0	0	0	512	280	
2	0	0	0	0	512	280	
3	0	0	0	0	511	280	
4	0	0	0	0	511	280	
5	0	0	0	0	510	280	
6	0	0	0	0	510	280	
7	0	0	0	0	510	280	
8	0	0	0	0	511	280	
9	0	0	0	0	511	280	
10	0	0	0	0	512	280	
11	0	0	0	0	512	280	
12	0	0	0	0	513	280	
13	0	0	0	0	513	280	
14	0	0	0	0	513	280	
15	0	0	0	0	513	280	
0	0	0	0	0	513	280	
1	0	0	0	0	512	280	
2	0	0	0	0	511	280	
3	0	0	0	0	511	280	
4	0	0	0	0	511	280	
5	0	0	0	0	511	280	
6	0	0	0	0	510	280	
7	0	0	0	0	510	280	
8	0	0	0	0	510	280	
9	0	0	0	0	509	280	
10	0	0	0	0	510	280	
11	0	0	0	0	510	280	
12	0	0	0	0	511	280	
13	0	0	0	0	511	280	
14	0	0	0	0	512	280	
15	0	0	0	0	512	280	
0	0	0	0	0	512	280	
1	0	0	0	0	512	280	
2	0	0	0	0	512	280	
3	0	0	0	0	511	280	
4	0	0	0	0	510	280	
5	0	0	0	0	510	280	
6	0	0	0	0	510	280	
7	0	0	0	0	510	280	
8	0	0	0	0	510	280	
9	0	0	0	0	510	280	
10	0	0	0	0	511	280	
11	0	0	0	0	512	280	
12	0	0	0	0	513	280	
13	0	0	0	0	513	280	
14	0	0	0	0	513	280	
15	0	0	0	0	513	280	
0	0	0	0	0	513	280	
1	0	0	0	0	512	280	
2	0	0	0	0	512	280	
3	0	0	0	0	511	280	
4	0	0	0	0	510	280	
5	0	0	0	0	509	280	
6	0	0	0	0	508	280	
7	0	0	0	0	508	280	
8	0	0	0	0	508	280	
9	0	0	0	0	508	280	
10	0	0	0	0	508	280	
11	0	0	0	0	508	280	
12	0	0	0	0	510	280	
13	0	0	0	0	510	280	
14	0	0	0	0	510	280	
15	0	0	0	0	511	280	
0	0	0	0	0	512	280	
1	0	0	0	0	512	280	
2	0	0	0	0	512	280	
3	0	0	0	0	511	280	
4	0	0	0	0	510	280	
5	0	0	0	0	509	280	
6	0	0	0	0	509	280	
7	0	0	0	0	510	280	
8	0	0	0	0	509	280	
9	0	0	0	0	509	280	
10	0	0	0	0	510	280	
11	0	0	0	0	510	280	
12	0	0	0	0	510	280	
13	0	0	0	0	511	280	
14	0	0	0	0	511	280	
15	0	0	0	0	511	280	
0	0	0	0	0	511	280	
1	0	0	0	0	511	280	
2	0	0	0	0	512	280	
3	0	0	0	0	512	280	
4	0	0	0	0	511	280	
5	0	0	0	0	511	280	
6	0	0	0	0	510	280	
7	0	0	0	0	509	280	
8	0	0	0	0	508	280	
9	0	0	0	0	507	280	
10	0	0	0	0	506	280	
11	0	0	0	0	505	280	
12	0	0	0	0	506	280	
13	0	0	0	0	506	280	
14	0	0	0	0	507	280	
15	0	0	0	0	508	280	
0	0	0	0	0	508	280	
1	0	0	0	0	507	280	
2	0	0	0	0	508	280	
3	0	0	0	0	508	280	
4	0	0	0	0	509	280	
5	0	0	0	0	508	280	
6	0	0	0	0	507	280	
7	0	0	0	0	506	280	
8	0	0	0	0	506	280	
9	0	0	0	0	506	280	
10	0	0	0	0	505	280	
11	0	0	0	0	505	280	
12	0	0	0	0	506	280	
13	0	0	0	0	505	280	
14	0	0	0	0	506	280	
15	0	0	0	0	508	280	
0	0	0	0	0	508	280	
1	0	0	0	0	510	280	
2	0	0	0	0	511	280	
3	0	0	0	0	510	280	
4	0	0	0	0	510	280	
5	0	0	0	0	509	280	
6	0	0	0	0	509	280	
7	0	0	0	0	509	280	
8	0	0	0	0	508	280	
9	0	0	0	0	508	280	
10	0	0	0	0	508	280	
11	0	0	0	0	508	280	
12	0	0	0	0	508	280	
13	0	0	0	0	509	280	
14	0	0	0	0	511	280	
15	0	0	0	0	512	280	
0	0	0	0	0	512	280	
1	0	0	0	0	512	280	
2	0	0	0	0	512	280	
3	0	0	0	0	512	280	
4	0	0	0	0	512	280	
5	0	0	0	0	511	280	
6	0	0	0	0	511	280	
7	0	0	0	0	510	280	
8	0	0	0	0	509	280	
9	0	0	0	0	508	280	
10	0	0	0	0	507	280	
11	0	0	0	0	507	280	
12	0	0	0	0	507	280	
13	0	0	0	0	507	280	
14	0	0	0	0	507	280	
15	0	0	0	0	508	280	
0	0	0	0	0	508	280	
1	0	0	0	0	509	280	
2	0	0	0	0	509	280	
3	0	0	0	0	510	280	
4	0	0	0	0	510	280	
5	0	0	0	0	511	280	
6	0	0	0	0	510	280	
7	0	0	0	0	508	280	
8	0	0	0	0	507	280	
9	0	0	0	0	507	280	
10	0	0	0	0	507	280	
11	0	0	0	0	507	280	
12	0	0	0	0	507	280	
13	0	0	0	0	508	280	
14	0	0	0	0	508	280	
15	0	0	0	0	509	280	
0	0	0	0	0	511	280	
1	0	0	0	0	511	280	
2	0	0	0	0	512	280	
3	0	0	0	0	513	280	
4	0	0	0	0	513	280	
5	0	0	0	0	513	280	
6	0	0	0	0	512	280	
7	0	0	0	0	512	280	
8	0	0	0	0	512	280	
9	0	0	0	0	511	280	
10	0	0	0	0	511	280	
11	0	0	0	0	510	280	
12	0	0	0	0	511	280	
13	0	0	0	0	511	280	
14	0	0	0	0	511	280	
15	0	0	0	0	512	280	
0	0	0	0	0	512	280	
1	0	0	0	0	513	280	
2	0	0	0	0	513	280	
3	0	0	0	0	514	280	
4	0	0	0	0	514	280	
5	0	0	0	0	514	280	
6	0	0	0	0	514	280	
7	0	0	0	0	513	280	
8	0	0	0	0	512	280	
9	0	0	0	0	512	280	
10	0	0	0	0	511	280	
11	0	0	0	0	511	280	
12	0	0	0	0	510	280	
13	0	0	0	0	510	280	
14	0	0	0	0	510	280	
15	0	0	0	0	510	280	
0	0	0	0	0	511	280	
1	0	0	0	0	512	280	
2	0	0	0	0	511	280	
3	0	0	0	0	511	280	
4	0	0	0	0	511	280	
5	0	0	0	0	512	280	
6	0	0	0	0	512	280	
7	0	0	0	0	512	280	
8	0	0	0	0	512	280	
9	0	0	0	0	511	280	
10	0	0	0	0	511	280	
11	0	0	0	0	509	280	
12	0	0	0	0	509	280	
13	0	0	0	0	508	280	
14	0	0	0	0	508	280	
15	0	0	0	0	509	280	
0	0	0	0	0	510	280	
1	0	0	0	0	511	280	
2	0	0	0	0	511	280	
3	0	0	0	0	511	280	
4	0	0	0	0	512	280	
5	0	0	0	0	512	280	
6	0	0	0	0	512	280	
7	0	0	0	0	512	280	
8	0	0	0	0	511	280	
9	0	0	0	0	511	280	
10	0	0	0	0	510	280	
11	0	0	0	0	510	280	
12	0	0	0	0	509	280	
13	0	0	0	0	509	280	
14	0	0	0	0	509	280	
15	0	0	0	0	509	280	
0	0	0	0	0	510	280	
1	0	0	0	0	510	280	
2	0	0	0	0	510	280	
3	0	0	0	0	510	280	
4	0	0	0	0	511	280	
5	0	0	0	0	512	280	
6	0	0	0	0	512	280	
7	0	0	0	0	511	280	
8	0	0	0	0	511	280	
9	0	0	0	0	510	280	
10	0	0	0	0	509	280	
11	0	0	0	0	508	280	
12	0	0	0	0	508	280	
13	0	0	0	0	507	280	
14	0	0	0	0	507	280	
15	0	0	0	0	507	280	
0	0	0	0	0	506	280	
1	0	0	0	0	507	280	
2	0	0	0	0	508	280	
3	0	0	0	0	508	280	
4	0	0	0	0	509	280	
5	0	0	0	0	510	280	
6	0	0	0	0	510	280	
7	0	0	0	0	510	280	
8	0	0	0	0	510	280	
9	0	0	0	0	510	280	
10	0	0	0	0	510	280	
11	0	0	0	0	508	280	
12	0	0	0	0	507	280	
13	0	0	0	0	507	280	
14	0	0	0	0	506	280	
15	0	0	0	0	506	280	
0	0	0	0	0	505	280	
1	0	0	0	0	506	280	
2	0	0	0	0	506	280	
3	0	0	0	0	507	280	
4	0	0	0	0	507	280	
5	0	0	0	0	507	280	
6	0	0	0	0	507	280	
7	0	0	0	0	506	280	
8	0	0	0	0	507	280	
9	0	0	0	0	507	280	
10	0	0	0	0	507	280	
11	0	0	0	0	506	280	
12	0	0	0	0	506	280	
13	0	0	0	0	506	280	
14	0	0	0	0	505	280	
15	0	0	0	0	505	280	
0	0	0	0	0	505	280	
1	0	0	0	0	505	280	
2	0	0	0	0	506	280	
3	0	0	0	0	507	280	
4	0	0	0	0	508	280	
5	0	0	0	0	509	280	
6	0	0	0	0	509	280	
7	0	0	0	0	509	280	
8	0	0	0	0	510	280	
9	0	0	0	0	510	280	
10	0	0	0	0	510	280	
11	0	0	0	0	509	280	
12	0	0	0	0	508	280	
13	0	0	0	0	508	280	
14	0	0	0	0	507	280	
15	0	0	0	0	507	280	
0	0	0	0	0	508	280	
1	0	0	0	0	507	280	
2	0	0	0	0	507	280	
3	0	0	0	0	507	280	
4	0	0	0	0	508	280	
5	0	0	0	0	508	280	
6	0	0	0	0	510	280	
7	0	0	0	0	510	280	
8	0	0	0	0	509	280	
9	0	0	0	0	510	280	
10	0	0	0	0	510	280	
11	0	0	0	0	510	280	
12	0	0	0	0	510	280	
13	0	0	0	0	509	280	
14	0	0	0	0	509	280	
15	0	0	0	0	508	280	
0	0	0	0	0	508	280	
1	0	0	0	0	507	280	
2	0	0	0	0	507	280	
3	0	0	0	0	508	280	
4	0	0	0	0	508	280	
5	0	0	0	0	509	280	
6	0	0	0	0	509	280	
7	0	0	0	0	510	280	
8	0	0	0	0	511	280	
9	0	0	0	0	511	280	
10	0	0	0	0	511	280	
11	0	0	0	0	510	280	
12	0	0	0	0	510	280	
13	0	0	0	0	509	280	
14	0	0	0	0	508	280	
15	0	0	0	0	508	280	
0	0	0	0	0	507	280	
1	0	0	0	0	507	280	
2	0	0	0	0	507	280	
3	0	0	0	0	507	280	
4	0	0	0	0	508	280	
5	0	0	0	0	509	280	
6	0	0	0	0	510	280	
7	0	0	0	0	510	280	
8	0	0	0	0	511	280	
9	0	0	0	0	511	280	
10	0	0	0	0	511	280	
11	0	0	0	0	511	280	
12	0	0	0	0	510	280	
13	0	0	0	0	510	280	
14	0	0	0	0	509	280	
15	0	0	0	0	508	280	
0	0	0	0	0	508	280	
1	0	0	0	0	507	280	
2	0	0	0	0	507	280	
3	0	0	0	0	506	280	
4	0	0	0	0	506	280	
5	0	0	0	0	506	280	
6	0	0	0	0	507	280	
7	0	0	0	0	508	280	
8	0	0	0	0	509	280	
9	0	0	0	0	510	280	
10	0	0	0	0	510	280	
11	0	0	0	0	510	280	
12	0	0	0	0	510	280	
13	0	0	0	0	510	280	
14	0	0	0	0	510	280	
15	0	0	0	0	510	280	
0	0	0	0	0	509	280	
1	0	0	0	0	507	280	
2	0	0	0	0	507	280	
3	0	0	0	0	507	280	
4	0	0	0	0	506	280	
5	0	0	0	0	505	280	
6	0	0	0	0	506	280	
7	0	0	0	0	507	280	
8	0	0	0	0	507	280	
9	0	0	0	0	508	280	
10	0	0	0	0	508	280	
11	0	0	0	0	508	280	
12	0	0	0	0	508	280	
13	0	0	0	0	508	280	
14	0	0	0	0	508	280	
15	0	0	0	0	509	280	
0	0	0	0	0	508	280	
1	0	0	0	0	508	280	
2	0	0	0	0	508	280	
3	0	0	0	0	508	280	
4	0	0	0	0	508	280	
5	0	0	0	0	507	280	
6	0	0	0	0	508	280	
7	0	0	0	0	508	280	
8	0	0	0	0	509	280	
9	0	0	0	0	509	280	
10	0	0	0	0	510	280	
11	0	0	0	0	510	280	
12	0	0	0	0	511	280	
13	0	0	0	0	511	280	
14	0	0	0	0	511	280	
15	0	0	0	0	510	280	
0	0	0	0	0	509	280	
1	0	0	0	0	508	280	
2	0	0	0	0	508	280	
3	0	0	0	0	507	280	
4	0	0	0	0	507	280	
5	0	0	0	0	507	280	
6	0	0	0	0	507	280	
7	0	0	0	0	508	280	
8	0	0	0	0	507	280	
9	0	0	0	0	507	280	
10	0	0	0	0	507	280	
11	0	0	0	0	507	280	
12	0	0	0	0	508	280	
13	0	0	0	0	507	280	
14	0	0	0	0	507	280	
15	0	0	0	0	507	280	
0	0	0	0	0	507	280	
1	0	0	0	0	506	280	
2	0	0	0	0	506	280	
3	0	0	0	0	505	280	
4	0	0	0	0	504	280	
5	0	0	0	0	502	280	
6	0	0	0	0	502	280	
7	0	0	0	0	503	280	
8	0	0	0	0	504	280	
9	0	0	0	0	505	280	
10	0	0	0	0	507	280	
11	0	0	0	0	507	280	
12	0	0	0	0	507	280	
13	0	0	0	0	508	280	
14	0	0	0	0	509	280	
15	0	0	0	0	510	280	
0	0	0	0	0	511	280	
1	0	0	0	0	510	280	
2	0	0	0	0	510	280	
3	0	0	0	0	511	280	
4	0	0	0	0	511	280	
5	0	0	0	0	511	280	
6	0	0	0	0	512	280	
7	0	0	0	0	512	280	
8	0	0	0	0	513	280	
9	0	0	0	0	514	280	
10	0	0	0	0	515	280	
11	0	0	0	0	515	280	
12	0	0	0	0	516	280	
13	0	0	0	0	516	280	
14	0	0	0	0	517	280	
15	0	0	0	0	517	280	
0	0	0	0	0	518	280	
1	0	0	0	0	518	280	
2	0	0	0	0	518	280	
3	0	0	0	0	518	280	
4	0	0	0	0	518	280	
5	0	0	0	0	518	280	
6	0	0	0	0	518	280	
7	0	0	0	0	518	280	
8	0	0	0	0	518	280	
9	0	0	0	0	518	280	
10	0	0	0	0	519	280	
11	0	0	0	0	520	280	
12	0	0	0	0	521	280	
13	0	0	0	0	521	280	
14	0	0	0	0	522	280	
15	0	0	0	0	523	280	
0	0	0	0	0	523	280	
1	0	0	0	0	523	280	
2	0	0	0	0	523	280	
3	0	0	0	0	524	280	
4	0	0	0	0	523	280	
5	0	0	0	0	522	280	
6	0	0	0	0	521	280	
7	0	0	0	0	520	280	
8	0	0	0	0	519	280	
9	0	0	0	0	519	280	
10	0	0	0	0	519	280	
11	0	0	0	0	519	280	
12	0	0	0	0	519	280	
13	0	0	0	0	519	280	
14	0	0	0	0	519	280	
15	0	0	0	0	520	280	
0	0	0	0	0	519	280	
1	0	0	0	0	519	280	
2	0	0	0	0	519	280	
3	0	0	0	0	518	280	
4	0	0	0	0	517	280	
5	0	0	0	0	516	280	
6	0	0	0	0	516	280	
7	0	0	0	0	515	280	
8	0	0	0	0	515	280	
9	0	0	0	0	514	280	
10	0	0	0	0	514	280	
11	0	0	0	0	514	280	
12	0	0	0	0	514	280	
13	0	0	0	0	515	280	
14	0	0	0	0	515	280	
15	0	0	0	0	515	280	
0	0	0	0	0	516	280	
1	0	0	0	0	516	280	
2	0	0	0	0	516	280	
3	0	0	0	0	516	280	
4	0	0	0	0	515	280	
5	0	0	0	0	515	280	
6	0	0	0	0	514	280	
7	0	0	0	0	514	280	
8	0	0	0	0	513	280	
9	0	0	0	0	512	280	
10	0	0	0	0	513	280	
11	0	0	0	0	513	280	
12	0	0	0	0	514	280	
13	0	0	0	0	515	280	
14	0	0	0	0	516	280	
15	0	0	0	0	517	280	
0	0	0	0	0	517	280	
1	0	0	0	0	517	280	
2	0	0	0	0	518	280	
3	0	0	0	0	518	280	
4	0	0	0	0	518	280	
5	0	0	0	0	518	280	
6	0	0	0	0	517	280	
7	0	0	0	0	517	280	
8	0	0	0	0	517	280	
9	0	0	0	0	515	280	
10	0	0	0	0	515	280	
11	0	0	0	0	515	280	
12	0	0	0	0	515	280	
13	0	0	0	0	517	280	
14	0	0	0	0	518	280	
15	0	0	0	0	519	280	
0	0	0	0	0	521	280	
1	0	0	0	0	521	280	
2	0	0	0	0	522	280	
3	0	0	0	0	521	280	
4	0	0	0	0	520	280	
5	0	0	0	0	519	280	
6	0	0	0	0	518	280	
7	0	0	0	0	518	280	
8	0	0	0	0	517	280	
9	0	0	0	0	515	280	
10	0	0	0	0	515	280	
11	0	0	0	0	514	280	
12	0	0	0	0	513	280	
13	0	0	0	0	513	280	
14	0	0	0	0	513	280	
15	0	0	0	0	513	280	
0	0	0	0	0	513	280	
1	0	0	0	0	513	280	
2	0	0	0	0	514	280	
3	0	0	0	0	515	280	
4	0	0	0	0	515	280	
5	0	0	0	0	513	280	
6	0	0	0	0	513	280	
7	0	0	0	0	513	280	
8	0	0	0	0	513	280	
9	0	0	0	0	513	280	
10	0	0	0	0	513	280	
11	0	0	0	0	513	280	
12	0	0	0	0	512	280	
13	0	0	0	0	512	280	
14	0	0	0	0	511	280	
15	0	0	0	0	511	280	
0	0	0	0	0	510	280	
1	0	0	0	0	508	280	
2	0	0	0	0	507	280	
3	0	0	0	0	505	280	
4	0	0	0	0	503	280	
5	0	0	0	0	502	280	
6	0	0	0	0	499	280	
7	0	0	0	0	498	280	
8	0	0	0	0	496	280	
9	0	0	0	0	494	280	
10	0	0	0	0	492	280	
11	0	0	0	0	489	280	
12	0	0	0	0	488	280	
13	0	0	0	0	487	280	
14	0	0	0	0	486	280	
15	0	0	0	0	487	280	
0	0	0	0	0	488	280	
1	0	0	0	0	491	280	
2	0	0	0	0	493	280	
3	0	0	0	0	496	280	
4	0	0	0	0	497	280	
5	0	0	0	0	497	280	
6	0	0	0	0	497	280	
7	0	0	0	0	498	280	
8	0	0	0	0	498	280	
9	0	0	0	0	499	280	
10	0	0	0	0	499	280	
11	0	0	0	0	499	280	
12	0	0	0	0	498	280	
13	0	0	0	0	498	280	
14	0	0	0	0	499	280	
15	0	0	0	0	498	280	
0	0	0	0	0	499	280	
1	0	0	0	0	500	280	
2	0	0	0	0	502	280	
3	0	0	0	0	503	280	
4	0	0	0	0	504	280	
5	0	0	0	0	506	280	
6	0	0	0	0	507	280	
7	0	0	0	0	507	280	
8	0	0	0	0	508	280	
9	0	0	0	0	508	280	
10	0	0	0	0	508	280	
11	0	0	0	0	508	280	
12	0	0	0	0	508	280	
13	0	0	0	0	509	280	
14	0	0	0	0	509	280	
15	0	0	0	0	509	280	
0	0	0	0	0	510	280	
1	0	0	0	0	511	280	
2	0	0	0	0	513	280	
3	0	0	0	0	513	280	
4	0	0	0	0	514	280	
5	0	0	0	0	514	280	
6	0	0	0	0	514	280	
7	0	0	0	0	513	280	
8	0	0	0	0	512	280	
9	0	0	0	0	512	280	
10	0	0	0	0	512	280	
11	0	0	0	0	511	280	
12	0	0	0	0	510	280	
13	0	0	0	0	508	280	
14	0	0	0	0	508	280	
15	0	0	0	0	508	280	
0	0	0	0	0	508	280	
1	0	0	0	0	509	280	
2	0	0	0	0	510	280	
3	0	0	0	0	510	280	
4	0	0	0	0	510	280	
5	0	0	0	0	510	280	
6	0	0	0	0	510	280	
7	0	0	0	0	509	280	
8	0	0	0	0	508	280	
9	0	0	0	0	506	280	
10	0	0	0	0	506	280	
11	0	0	0	0	505	280	
12	0	0	0	0	505	280	
13	0	0	0	0	505	280	
14	0	0	0	0	504	280	
15	0	0	0	0	504	280	
0	0	0	0	0	505	280	
1	0	0	0	0	505	280	
2	0	0	0	0	508	280	
3	0	0	0	0	508	280	
4	0	0	0	0	510	280	
5	0	0	0	0	511	280	
6	0	0	0	0	511	280	
7	0	0	0	0	511	280	
8	0	0	0	0	512	280	
9	0	0	0	0	512	280	
10	0	0	0	0	512	280	
11	0	0	0	0	512	280	
12	0	0	0	0	512	280	
13	0	0	0	0	512	280	
14	0	0	0	0	513	280	
15	0	0	0	0	514	280	
0	0	0	0	0	514	280	
1	0	0	0	0	515	280	
2	0	0	0	0	516	280	
3	0	0	0	0	517	280	
4	0	0	0	0	519	280	
5	0	0	0	0	520	280	
6	0	0	0	0	520	280	
7	0	0	0	0	519	280	
8	0	0	0	0	518	280	
9	0	0	0	0	518	280	
10	0	0	0	0	518	280	
11	0	0	0	0	518	280	
12	0	0	0	0	518	280	
13	0	0	0	0	517	280	
14	0	0	0	0	516	280	
15	0	0	0	0	516	280	
0	0	0	0	0	514	280	
1	0	0	0	0	514	280	
2	0	0	0	0	514	280	
3	0	0	0	0	514	280	
4	0	0	0	0	514	280	
5	0	0	0	0	515	280	
6	0	0	0	0	516	280	
7	0	0	0	0	517	280	
8	0	0	0	0	518	280	
9	0	0	0	0	518	280	
10	0	0	0	0	518	280	
11	0	0	0	0	518	280	
12	0	0	0	0	518	280	
13	0	0	0	0	518	280	
14	0	0	0	0	516	280	
15	0	0	0	0	515	280	
0	0	0	0	0	515	280	
1	0	0	0	0	515	280	
2	0	0	0	0	515	280	
3	0	0	0	0	515	280	
4	0	0	0	0	516	280	
5	0	0	0	0	517	280	
6	0	0	0	0	518	280	
7	0	0	0	0	518	280	
8	0	0	0	0	518	280	
9	0	0	0	0	517	280	
10	0	0	0	0	517	280	
11	0	0	0	0	517	280	
12	0	0	0	0	517	280	
13	0	0	0	0	517	280	
14	0	0	0	0	516	280	
15	0	0	0	0	516	280	
0	0	0	0	0	515	280	
1	0	0	0	0	514	280	
2	0	0	0	0	514	280	
3	0	0	0	0	514	280	
4	0	0	0	0	515	280	
5	0	0	0	0	516	280	
6	0	0	0	0	516	280	
7	0	0	0	0	517	280	
8	0	0	0	0	518	280	
9	0	0	0	0	518	280	
10	0	0	0	0	518	280	
11	0	0	0	0	518	280	
12	0	0	0	0	516	280	
13	0	0	0	0	516	280	
14	0	0	0	0	515	280	
15	0	0	0	0	514	280	
0	0	0	0	0	513	280	
1	0	0	0	0	513	280	
2	0	0	0	0	513	280	
3	0	0	0	0	512	280	
4	0	0	0	0	512	280	
5	0	0	0	0	513	280	
6	0	0	0	0	513	280	
7	0	0	0	0	514	280	
8	0	0	0	0	515	280	
9	0	0	0	0	514	280	
10	0	0	0	0	514	280	
11	0	0	0	0	513	280	
12	0	0	0	0	513	280	
13	0	0	0	0	512	280	
14	0	0	0	0	510	280	
15	0	0	0	0	510	280	
0	0	0	0	0	510	280	
1	0	0	0	0	509	280	
2	0	0	0	0	508	280	
3	0	0	0	0	508	280	
4	0	0	0	0	508	280	
5	0	0	0	0	508	280	
6	0	0	0	0	509	280	
7	0	0	0	0	510	280	
8	0	0	0	0	510	280	
9	0	0	0	0	510	280	
10	0	0	0	0	509	280	
11	0	0	0	0	509	280	
12	0	0	0	0	509	280	
13	0	0	0	0	508	280	
14	0	0	0	0	507	280	
15	0	0	0	0	505	280	
0	0	0	0	0	504	280	
1	0	0	0	0	503	280	
2	0	0	0	0	503	280	
3	0	0	0	0	503	280	
4	0	0	0	0	502	280	
5	0	0	0	0	502	280	
6	0	0	0	0	503	280	
7	0	0	0	0	504	280	
8	0	0	0	0	505	280	
9	0	0	0	0	505	280	
10	0	0	0	0	505	280	
11	0	0	0	0	506	280	
12	0	0	0	0	506	280	
13	0	0	0	0	506	280	
14	0	0	0	0	506	280	
15	0	0	0	0	505	280	
0	0	0	0	0	505	280	
1	0	0	0	0	504	280	
2	0	0	0	0	504	280	
3	0	0	0	0	503	280	
4	0	0	0	0	503	280	
5	0	0	0	0	502	280	
6	0	0	0	0	501	280	
7	0	0	0	0	502	280	
8	0	0	0	0	503	280	
9	0	0	0	0	503	280	
10	0	0	0	0	505	280	
11	0	0	0	0	505	280	
12	0	0	0	0	505	280	
13	0	0	0	0	505	280	
14	0	0	0	0	504	280	
15	0	0	0	0	503	280	
0	0	0	0	0	502	280	
1	0	0	0	0	501	280	
2	0	0	0	0	499	280	
3	0	0	0	0	497	280	
4	0	0	0	0	497	280	
5	0	0	0	0	497	280	
6	0	0	0	0	497	280	
7	0	0	0	0	497	280	
8	0	0	0	0	498	280	
9	0	0	0	0	499	280	
10	0	0	0	0	501	280	
11	0	0	0	0	501	280	
12	0	0	0	0	502	280	
13	0	0	0	0	503	280	
14	0	0	0	0	504	280	
15	0	0	0	0	503	280	
0	0	0	0	0	503	280	
1	0	0	0	0	502	280	
2	0	0	0	0	500	280	
3	0	0	0	0	499	280	
4	0	0	0	0	499	280	
5	0	0	0	0	498	280	
6	0	0	0	0	498	280	
7	0	0	0	0	498	280	
8	0	0	0	0	499	280	
9	0	0	0	0	500	280	
10	0	0	0	0	501	280	
11	0	0	0	0	502	280	
12	0	0	0	0	502	280	
13	0	0	0	0	503	280	
14	0	0	0	0	502	280	
15	0	0	0	0	502	280	
0	0	0	0	0	502	280	
1	0	0	0	0	501	280	
2	0	0	0	0	500	280	
3	0	0	0	0	499	280	
4	0	0	0	0	498	280	
5	0	0	0	0	498	280	
6	0	0	0	0	498	280	
7	0	0	0	0	498	280	
8	0	0	0	0	498	280	
9	0	0	0	0	500	280	
10	0	0	0	0	501	280	
11	0	0	0	0	502	280	
12	0	0	0	0	502	280	
13	0	0	0	0	503	280	
14	0	0	0	0	504	280	
15	0	0	0	0	504	280	
0	0	0	0	0	504	280	
1	0	0	0	0	504	280	
2	0	0	0	0	503	280	
3	0	0	0	0	503	280	
4	0	0	0	0	503	280	
5	0	0	0	0	502	280	
6	0	0	0	0	502	280	
7	0	0	0	0	502	280	
8	0	0	0	0	502	280	
9	0	0	0	0	503	280	
10	0	0	0	0	504	280	
11	0	0	0	0	505	280	
12	0	0	0	0	507	280	
13	0	0	0	0	508	280	
14	0	0	0	0	509	280	
15	0	0	0	0	509	280	
0	0	0	0	0	510	280	
1	0	0	0	0	510	280	
2	0	0	0	0	510	280	
3	0	0	0	0	509	280	
4	0	0	0	0	509	280	
5	0	0	0	0	509	280	
6	0	0	0	0	509	280	
7	0	0	0	0	509	280	
8	0	0	0	0	509	280	
9	0	0	0	0	510	280	
10	0	0	0	0	512	280	
11	0	0	0	0	513	280	
12	0	0	0	0	514	280	
13	0	0	0	0	515	279	
14	0	0	0	0	516	280	
15	0	0	0	0	517	280	
0	0	0	0	0	518	280	
1	0	0	0	0	519	280	
2	0	0	0	0	519	280	
3	0	0	0	0	519	280	
4	0	0	0	0	519	280	
5	0	0	0	0	519	280	
6	0	0	0	0	519	280	
7	0	0	0	0	520	280	
8	0	0	0	0	520	280	
9	0	0	0	0	520	280	
10	0	0	0	0	521	280	
11	0	0	0	0	523	280	
12	0	0	0	0	524	280	
13	0	0	0	0	524	279	
14	0	0	0	0	526	280	
15	0	0	0	0	527	280	
0	0	0	0	0	527	280	
1	0	0	0	0	528	280	
2	0	0	0	0	528	280	
3	0	0	0	0	527	280	
4	0	0	0	0	527	280	
5	0	0	0	0	527	280	
6	0	0	0	0	527	280	
7	0	0	0	0	527	280	
8	0	0	0	0	527	280	
9	0	0	0	0	526	280	
10	0	0	0	0	526	280	
11	0	0	0	0	527	280	
12	0	0	0	0	527	280	
13	0	0	0	0	529	280	
14	0	0	0	0	529	280	
15	0	0	0	0	529	280	
0	0	0	0	0	531	280	
1	0	0	0	0	531	280	
2	0	0	0	0	531	279	
3	0	0	0	0	532	280	
4	0	0	0	0	532	280	
5	0	0	0	0	531	280	
6	0	0	0	0	530	280	
7	0	0	0	0	529	280	
8	0	0	0	0	529	280	
9	0	0	0	0	528	280	
10	0	0	0	0	528	280	
11	0	0	0	0	528	280	
12	0	0	0	0	528	280	
13	0	0	0	0	528	280	
14	0	0	0	0	528	280	
15	0	0	0	0	528	280	
0	0	0	0	0	528	280	
1	0	0	0	0	529	280	
2	0	0	0	0	529	280	
3	0	0	0	0	528	279	
4	0	0	0	0	526	280	
5	0	0	0	0	525	280	
6	0	0	0	0	525	280	
7	0	0	0	0	525	280	
8	0	0	0	0	524	280	
9	0	0	0	0	524	280	
10	0	0	0	0	524	280	
11	0	0	0	0	523	280	
12	0	0	0	0	523	280	
13	0	0	0	0	524	280	
14	0	0	0	0	523	280	
15	0	0	0	0	523	280	
0	0	0	0	0	523	280	
1	0	0	0	0	523	279	
2	0	0	0	0	523	280	
3	0	0	0	0	523	280	
4	0	0	0	0	523	280	
5	0	0	0	0	522	280	
6	0	0	0	0	521	280	
7	0	0	0	0	520	280	
8	0	0	0	0	519	280	
9	0	0	0	0	518	280	
10	0	0	0	0	518	280	
11	0	0	0	0	516	280	
12	0	0	0	0	516	280	
13	0	0	0	0	516	280	
14	0	0	0	0	516	280	
15	0	0	0	0	517	279	
0	0	0	0	0	518	280	
1	0	0	0	0	519	280	
2	0	0	0	0	520	280	
3	0	0	0	0	519	280	
4	0	0	0	0	520	280	
5	0	0	0	0	519	280	
6	0	0	0	0	519	280	
7	0	0	0	0	518	280	
8	0	0	0	0	518	280	
9	0	0	0	0	518	280	
10	0	0	0	0	517	280	
11	0	0	0	0	516	280	
12	0	0	0	0	516	280	
13	0	0	0	0	516	280	
14	0	0	0	0	515	280	
15	0	0	0	0	515	280	
0	0	0	0	0	516	280	
1	0	0	0	0	516	279	
2	0	0	0	0	516	280	
3	0	0	0	0	516	280	
4	0	0	0	0	516	280	
5	0	0	0	0	516	280	
6	0	0	0	0	515	280	
7	0	0	0	0	514	280	
8	0	0	0	0	514	280	
9	0	0	0	0	513	280	
10	0	0	0	0	513	280	
11	0	0	0	0	512	280	
12	0	0	0	0	512	280	
13	0	0	0	0	512	280	
14	0	0	0	0	512	279	
15	0	0	0	0	513	280	
0	0	0	0	0	513	280	
1	0	0	0	0	513	280	
2	0	0	0	0	513	280	
3	0	0	0	0	513	279	
4	0	0	0	0	514	280	
5	0	0	0	0	513	280	
6	0	0	0	0	511	279	
7	0	0	0	0	510	280	
8	0	0	0	0	508	280	
9	0	0	0	0	508	280	
10	0	0	0	0	507	280	
11	0	0	0	0	507	280	
12	0	0	0	0	507	280	
13	0	0	0	0	508	280	
14	0	0	0	0	508	280	
15	0	0	0	0	508	280	
0	0	0	0	0	509	280	
1	0	0	0	0	510	279	
2	0	0	0	0	510	280	
3	0	0	0	0	511	280	
4	0	0	0	0	511	280	
5	0	0	0	0	511	280	
6	0	0	0	0	512	280	
7	0	0	0	0	511	280	
8	0	0	0	0	511	279	
9	0	0	0	0	510	280	
10	0	0	0	0	509	280	
11	0	0	0	0	509	280	
12	0	0	0	0	509	280	
13	0	0	0	0	509	280	
14	0	0	0	0	509	280	
15	0	0	0	0	509	280	
0	0	0	0	0	509	280	
1	0	0	0	0	509	280	
2	0	0	0	0	510	280	
3	0	0	0	0	510	280	
4	0	0	0	0	511	280	
5	0	0	0	0	511	280	
6	0	0	0	0	511	279	
7	0	0	0	0	512	280	
8	0	0	0	0	511	280	
9	0	0	0	0	511	279	
10	0	0	0	0	511	280	
11	0	0	0	0	511	280	
12	0	0	0	0	510	280	
13	0	0	0	0	508	280	
14	0	0	0	0	507	280	
15	0	0	0	0	506	280	
0	0	0	0	0	505	280	
1	0	0	0	0	505	280	
2	0	0	0	0	506	280	
3	0	0	0	0	506	279	
4	0	0	0	0	507	280	
5	0	0	0	0	508	280	
6	0	0	0	0	508	279	
7	0	0	0	0	508	280	
8	0	0	0	0	509	280	
9	0	0	0	0	508	279	
10	0	0	0	0	508	280	
11	0	0	0	0	507	280	
12	0	0	0	0	507	279	
13	0	0	0	0	507	280	
14	0	0	0	0	506	280	
15	0	0	0	0	505	279	
0	0	0	0	0	506	280	
1	0	0	0	0	507	280	
2	0	0	0	0	508	279	
3	0	0	0	0	509	280	
4	0	0	0	0	509	280	
5	0	0	0	0	510	280	
6	0	0	0	0	510	279	
7	0	0	0	0	510	280	
8	0	0	0	0	510	280	
9	0	0	0	0	510	279	
10	0	0	0	0	509	280	
11	0	0	0	0	508	280	
12	0	0	0	0	507	280	
13	0	0	0	0	507	280	
14	0	0	0	0	506	279	
15	0	0	0	0	505	280	
0	0	0	0	0	506	280	
1	0	0	0	0	507	279	
2	0	0	0	0	508	280	
3	0	0	0	0	508	280	
4	0	0	0	0	508	280	
5	0	0	0	0	508	280	
6	0	0	0	0	508	280	
7	0	0	0	0	508	279	
8	0	0	0	0	509	280	
9	0	0	0	0	509	280	
10	0	0	0	0	508	279	
11	0	0	0	0	507	280	
12	0	0	0	0	507	280	
13	0	0	0	0	507	279	
14	0	0	0	0	506	280	
15	0	0	0	0	505	280	
0	0	0	0	0	506	280	
1	0	0	0	0	505	280	
2	0	0	0	0	506	280	
3	0	0	0	0	507	280	
4	0	0	0	0	508	280	
5	0	0	0	0	508	280	
6	0	0	0	0	509	280	
7	0	0	0	0	509	280	
8	0	0	0	0	510	280	
9	0	0	0	0	510	280	
10	0	0	0	0	511	280	
11	0	0	0	0	510	279	
12	0	0	0	0	509	280	
13	0	0	0	0	509	280	
14	0	0	0	0	507	279	
15	0	0	0	0	508	280	
0	0	0	0	0	507	280	
1	0	0	0	0	506	280	
2	0	0	0	0	506	280	
3	0	0	0	0	506	280	
4	0	0	0	0	507	280	
5	0	0	0	0	508	280	
6	0	0	0	0	508	280	
7	0	0	0	0	510	279	
8	0	0	0	0	511	280	
9	0	0	0	0	511	279	
10	0	0	0	0	511	280	
11	0	0	0	0	510	280	
12	0	0	0	0	510	279	
13	0	0	0	0	509	280	
14	0	0	0	0	509	279	
15	0	0	0	0	508	280	
0	0	0	0	0	508	280	
1	0	0	0	0	508	280	
2	0	0	0	0	508	280	
3	0	0	0	0	508	279	
4	0	0	0	0	508	280	
5	0	0	0	0	508	280	
6	0	0	0	0	509	279	
7	0	0	0	0	511	280	
8	0	0	0	0	511	280	
9	0	0	0	0	512	279	
10	0	0	0	0	512	280	
11	0	0	0	0	512	280	
12	0	0	0	0	512	280	
13	0	0	0	0	511	279	
14	0	0	0	0	510	280	
15	0	0	0	0	509	280	
0	0	0	0	0	508	280	
1	0	0	0	0	508	280	
2	0	0	0	0	508	280	
3	0	0	0	0	508	280	
4	0	0	0	0	508	280	
5	0	0	0	0	508	280	
6	0	0	0	0	508	279	
7	0	0	0	0	510	280	
8	0	0	0	0	510	280	
9	0	0	0	0	511	280	
10	0	0	0	0	511	279	
11	0	0	0	0	511	280	
12	0	0	0	0	511	280	
13	0	0	0	0	511	280	
14	0	0	0	0	509	279	
15	0	0	0	0	508	280	
0	0	0	0	0	507	280	
1	0	0	0	0	507	280	
2	0	0	0	0	507	279	
3	0	0	0	0	507	280	
4	0	0	0	0	507	280	
5	0	0	0	0	507	280	
6	0	0	0	0	508	280	
7	0	0	0	0	509	280	
8	0	0	0	0	509	280	
9	0	0	0	0	510	280	
10	0	0	0	0	510	279	
11	0	0	0	0	509	280	
12	0	0	0	0	509	280	
13	0	0	0	0	508	279	
14	0	0	0	0	508	280	
15	0	0	0	0	508	280	
0	0	0	0	0	507	280	
1	0	0	0	0	507	280	
2	0	0	0	0	506	280	
3	0	0	0	0	507	280	
4	0	0	0	0	508	280	
5	0	0	0	0	508	279	
6	0	0	0	0	509	280	
7	0	0	0	0	510	280	
8	0	0	0	0	511	280	
9	0	0	0	0	511	279	
10	0	0	0	0	511	280	
11	0	0	0	0	511	280	
12	0	0	0	0	512	279	
13	0	0	0	0	511	279	
14	0	0	0	0	511	280	
15	0	0	0	0	510	280	
0	0	0	0	0	510	280	
1	0	0	0	0	509	279	
2	0	0	0	0	509	280	
3	0	0	0	0	509	280	
4	0	0	0	0	509	280	
5	0	0	0	0	509	279	
6	0	0	0	0	510	280	
7	0	0	0	0	510	280	
8	0	0	0	0	510	280	
9	0	0	0	0	511	279	
10	0	0	0	0	511	280	
11	0	0	0	0	511	280	
12	0	0	0	0	512	280	
13	0	0	0	0	511	279	
14	0	0	0	0	511	280	
15	0	0	0	0	511	280	
0	0	0	0	0	511	279	
1	0	0	0	0	510	280	
2	0	0	0	0	510	280	
3	0	0	0	0	509	280	
4	0	0	0	0	509	280	
5	0	0	0	0	509	280	
6	0	0	0	0	510	280	
7	0	0	0	0	510	280	
8	0	0	0	0	510	279	
9	0	0	0	0	510	280	
10	0	0	0	0	511	279	
11	0	0	0	0	511	280	
12	0	0	0	0	511	279	
13	0	0	0	0	511	280	
14	0	0	0	0	512	280	
15	0	0	0	0	511	279	
0	0	0	0	0	512	280	
1	0	0	0	0	511	280	
2	0	0	0	0	511	280	
3	0	0	0	0	511	280	
4	0	0	0	0	511	280	
5	0	0	0	0	511	280	
6	0	0	0	0	511	280	
7	0	0	0	0	511	279	
8	0	0	0	0	510	280	
9	0	0	0	0	510	280	
10	0	0	0	0	510	280	
11	0	0	0	0	510	279	
12	0	0	0	0	511	279	
13	0	0	0	0	512	280	
14	0	0	0	0	513	280	
15	0	0	0	0	514	279	
0	0	0	0	0	513	280	
1	0	0	0	0	513	280	
2	0	0	0	0	512	280	
3	0	0	0	0	511	279	
4	0	0	0	0	511	280	
5	0	0	0	0	511	280	
6	0	0	0	0	511	280	
7	0	0	0	0	511	279	
8	0	0	0	0	512	279	
9	0	0	0	0	512	280	
10	0	0	0	0	514	279	
11	0	0	0	0	515	280	
12	0	0	0	0	515	279	
13	0	0	0	0	515	280	
14	0	0	0	0	515	280	
15	0	0	0	0	515	279	
0	0	0	0	0	515	279	
1	0	0	0	0	515	280	
2	0	0	0	0	514	280	
3	0	0	0	0	514	280	
4	0	0	0	0	513	279	
5	0	0	0	0	513	279	
6	0	0	0	0	512	280	
7	0	0	0	0	512	280	
8	0	0	0	0	512	279	
9	0	0	0	0	513	279	
10	0	0	0	0	513	280	
11	0	0	0	0	513	280	
12	0	0	0	0	513	279	
13	0	0	0	0	512	279	
14	0	0	0	0	513	279	
15	0	0	0	0	513	279	
0	0	0	0	0	513	279	
1	0	0	0	0	512	279	
2	0	0	0	0	511	280	
3	0	0	0	0	510	280	
4	0	0	0	0	509	280	
5	0	0	0	0	508	279	
6	0	0	0	0	507	280	
7	0	0	0	0	507	280	
8	0	0	0	0	507	280	
9	0	0	0	0	508	280	
10	0	0	0	0	508	279	
11	0	0	0	0	508	280	
12	0	0	0	0	509	280	
13	0	0	0	0	509	280	
14	0	0	0	0	510	280	
15	0	0	0	0	510	280	
0	0	0	0	0	510	280	
1	0	0	0	0	510	280	
2	0	0	0	0	510	279	
3	0	0	0	0	509	279	
4	0	0	0	0	508	280	
5	0	0	0	0	508	280	
6	0	0	0	0	508	280	
7	0	0	0	0	507	279	
8	0	0	0	0	507	280	
9	0	0	0	0	507	280	
10	0	0	0	0	508	279	
11	0	0	0	0	508	279	
12	0	0	0	0	509	280	
13	0	0	0	0	509	279	
14	0	0	0	0	510	280	
15	0	0	0	0	510	279	
0	0	0	0	0	511	279	
1	0	0	0	0	511	280	
2	0	0	0	0	511	280	
3	0	0	0	0	511	279	
4	0	0	0	0	510	279	
5	0	0	0	0	509	280	
6	0	0	0	0	509	280	
7	0	0	0	0	508	280	
8	0	0	0	0	508	279	
9	0	0	0	0	508	280	
10	0	0	0	0	508	280	
11	0	0	0	0	508	279	
12	0	0	0	0	509	279	
13	0	0	0	0	509	280	
14	0	0	0	0	510	280	
15	0	0	0	0	511	279	
0	0	0	0	0	511	279	
1	0	0	0	0	512	280	
2	0	0	0	0	512	279	
3	0	0	0	0	512	279	
4	0	0	0	0	512	280	
5	0	0	0	0	512	279	
6	0	0	0	0	512	279	
7	0	0	0	0	511	280	
8	0	0	0	0	511	280	
9	0	0	0	0	512	279	
10	0	0	0	0	512	280	
11	0	0	0	0	512	280	
12	0	0	0	0	512	279	
13	0	0	0	0	512	279	
14	0	0	0	0	513	280	
15	0	0	0	0	513	279	
0	0	0	0	0	513	279	
1	0	0	0	0	512	280	
2	0	0	0	0	513	280	
3	0	0	0	0	512	279	
4	0	0	0	0	512	280	
5	0	0	0	0	512	280	
6	0	0	0	0	511	279	
7	0	0	0	0	510	279	
8	0	0	0	0	509	280	
9	0	0	0	0	508	280	
10	0	0	0	0	507	280	
11	0	0	0	0	507	280	
12	0	0	0	0	507	279	
13	0	0	0	0	508	279	
14	0	0	0	0	508	280	
15	0	0	0	0	508	280	
0	0	0	0	0	508	279	
1	0	0	0	0	508	279	
2	0	0	0	0	508	279	
3	0	0	0	0	508	279	
4	0	0	0	0	508	279	
5	0	0	0	0	507	279	
6	0	0	0	0	506	280	
7	0	0	0	0	506	280	
8	0	0	0	0	505	279	
9	0	0	0	0	505	279	
10	0	0	0	0	505	280	
11	0	0	0	0	505	279	
12	0	0	0	0	507	279	
13	0	0	0	0	507	279	
14	0	0	0	0	507	279	
15	0	0	0	0	508	279	
0	0	0	0	0	508	279	
1	0	0	0	0	508	280	
2	0	0	0	0	508	279	
3	0	0	0	0	508	279	
4	0	0	0	0	508	279	
5	0	0	0	0	508	279	
6	0	0	0	0	508	280	
7	0	0	0	0	508	279	
8	0	0	0	0	507	280	
9	0	0	0	0	507	280	
10	0	0	0	0	507	280	
11	0	0	0	0	506	279	
12	0	0	0	0	507	280	
13	0	0	0	0	507	280	
14	0	0	0	0	508	280	
15	0	0	0	0	508	279	
0	0	0	0	0	508	279	
1	0	0	0	0	509	279	
2	0	0	0	0	509	279	
3	0	0	0	0	509	279	
4	0	0	0	0	508	279	
5	0	0	0	0	508	280	
6	0	0	0	0	507	279	
7	0	0	0	0	506	279	
8	0	0	0	0	505	280	
9	0	0	0	0	504	280	
10	0	0	0	0	504	279	
11	0	0	0	0	503	279	
12	0	0	0	0	502	280	
13	0	0	0	0	502	280	
14	0	0	0	0	501	279	
15	0	0	0	0	502	280	
0	0	0	0	0	503	280	
1	0	0	0	0	504	280	
2	0	0	0	0	504	279	
3	0	0	0	0	504	279	
4	0	0	0	0	504	279	
5	0	0	0	0	504	280	
6	0	0	0	0	505	279	
7	0	0	0	0	505	280	
8	0	0	0	0	505	279	
9	0	0	0	0	505	280	
10	0	0	0	0	504	279	
11	0	0	0	0	504	280	
12	0	0	0	0	504	280	
13	0	0	0	0	503	279	
14	0	0	0	0	503	280	
15	0	0	0	0	503	280	
0	0	0	0	0	503	279	
1	0	0	0	0	503	280	
2	0	0	0	0	504	279	
3	0	0	0	0	504	279	
4	0	0	0	0	505	279	
5	0	0	0	0	505	280	
6	0	0	0	0	505	279	
7	0	0	0	0	504	279	
8	0	0	0	0	504	279	
9	0	0	0	0	503	279	
10	0	0	0	0	502	279	
11	0	0	0	0	501	280	
12	0	0	0	0	500	280	
13	0	0	0	0	500	280	
14	0	0	0	0	500	279	
15	0	0	0	0	500	280	
0	0	0	0	0	502	279	
1	0	0	0	0	503	280	
2	0	0	0	0	504	279	
3	0	0	0	0	504	279	
4	0	0	0	0	504	279	
5	0	0	0	0	504	279	
6	0	0	0	0	504	279	
7	0	0	0	0	504	279	
8	0	0	0	0	503	279	
9	0	0	0	0	502	280	
10	0	0	0	0	502	280	
11	0	0	0	0	501	279	
12	0	0	0	0	500	280	
13	0	0	0	0	500	280	
14	0	0	0	0	500	279	
15	0	0	0	0	500	280	
0	0	0	0	0	500	279	
1	0	0	0	0	502	279	
2	0	0	0	0	503	280	
3	0	0	0	0	503	279	
4	0	0	0	0	503	279	
5	0	0	0	0	502	279	
6	0	0	0	0	502	279	
7	0	0	0	0	503	280	
8	0	0	0	0	502	279	
9	0	0	0	0	502	279	
10	0	0	0	0	502	279	
11	0	0	0	0	502	280	
12	0	0	0	0	502	279	
13	0	0	0	0	501	280	
14	0	0	0	0	501	279	
15	0	0	0	0	502	280	
0	0	0	0	0	502	279	
1	0	0	0	0	502	280	
2	0	0	0	0	504	279	
3	0	0	0	0	504	279	
4	0	0	0	0	504	279	
5	0	0	0	0	504	279	
6	0	0	0	0	505	279	
7	0	0	0	0	506	279	
8	0	0	0	0	506	279	
9	0	0	0	0	505	280	
10	0	0	0	0	505	279	
11	0	0	0	0	504	279	
12	0	0	0	0	504	280	
13	0	0	0	0	504	280	
14	0	0	0	0	504	279	
15	0	0	0	0	504	280	
0	0	0	0	0	504	279	
1	0	0	0	0	505	280	
2	0	0	0	0	505	279	
3	0	0	0	0	506	279	
4	0	0	0	0	507	280	
5	0	0	0	0	507	279	
6	0	0	0	0	508	280	
7	0	0	0	0	508	279	
8	0	0	0	0	509	279	
9	0	0	0	0	509	279	
10	0	0	0	0	509	280	
11	0	0	0	0	509	279	
12	0	0	0	0	509	280	
13	0	0	0	0	508	280	
14	0	0	0	0	508	279	
15	0	0	0	0	508	280	
0	0	0	0	0	507	279	
1	0	0	0	0	507	280	
2	0	0	0	0	507	279	
3	0	0	0	0	507	279	
4	0	0	0	0	507	280	
5	0	0	0	0	507	280	
6	0	0	0	0	507	279	
7	0	0	0	0	507	279	
8	0	0	0	0	507	279	
9	0	0	0	0	508	280	
10	0	0	0	0	508	279	
11	0	0	0	0	508	279	
12	0	0	0	0	507	279	
13	0	0	0	0	506	279	
14	0	0	0	0	505	279	
15	0	0	0	0	505	280	
0	0	0	0	0	505	279	
1	0	0	0	0	505	280	
2	0	0	0	0	505	279	
3	0	0	0	0	505	280	
4	0	0	0	0	505	279	
5	0	0	0	0	505	279	
6	0	0	0	0	505	279	
7	0	0	0	0	505	279	
8	0	0	0	0	504	279	
9	0	0	0	0	504	279	
10	0	0	0	0	504	279	
11	0	0	0	0	502	279	
12	0	0	0	0	502	279	
13	0	0	0	0	502	279	
14	0	0	0	0	502	280	
15	0	0	0	0	502	280	
0	0	0	0	0	500	279	
1	0	0	0	0	500	279	
2	0	0	0	0	502	279	
3	0	0	0	0	503	279	
4	0	0	0	0	503	279	
5	0	0	0	0	503	279	
6	0	0	0	0	503	279	
7	0	0	0	0	503	280	
8	0	0	0	0	502	279	
9	0	0	0	0	502	279	
10	0	0	0	0	502	279	
11	0	0	0	0	501	279	
12	0	0	0	0	500	280	
13	0	0	0	0	499	279	
14	0	0	0	0	499	279	
15	0	0	0	0	497	279	
0	0	0	0	0	497	280	
1	0	0	0	0	497	279	
2	0	0	0	0	496	280	
3	0	0	0	0	496	279	
4	0	0	0	0	496	279	
5	0	0	0	0	496	280	
6	0	0	0	0	498	279	
7	0	0	0	0	499	279	
8	0	0	0	0	500	279	
9	0	0	0	0	499	279	
10	0	0	0	0	499	280	
11	0	0	0	0	500	280	
12	0	0	0	0	500	279	
13	0	0	0	0	499	280	
14	0	0	0	0	499	279	
15	0	0	0	0	498	280	
0	0	0	0	0	498	280	
1	0	0	0	0	498	279	
2	0	0	0	0	499	280	
3	0	0	0	0	498	279	
4	0	0	0	0	499	279	
5	0	0	0	0	499	279	
6	0	0	0	0	500	280	
7	0	0	0	0	501	279	
8	0	0	0	0	501	279	
9	0	0	0	0	501	279	
10	0	0	0	0	502	279	
11	0	0	0	0	501	279	
12	0	0	0	0	501	280	
13	0	0	0	0	501	279	
14	0	0	0	0	500	279	
15	0	0	0	0	499	279	
0	0	0	0	0	498	279	
1	0	0	0	0	498	279	
2	0	0	0	0	498	279	
3	0	0	0	0	498	279	
4	0	0	0	0	499	279	
5	0	0	0	0	499	279	
6	0	0	0	0	500	279	
7	0	0	0	0	501	280	
8	0	0	0	0	502	279	
9	0	0	0	0	503	279	
10	0	0	0	0	504	280	
11	0	0	0	0	505	279	
12	0	0	0	0	507	279	
13	0	0	0	0	508	280	
14	0	0	0	0	508	279	
15	0	0	0	0	508	279	
0	0	0	0	0	508	280	
1	0	0	0	0	507	279	
2	0	0	0	0	507	280	
3	0	0	0	0	506	280	
4	0	0	0	0	506	279	
5	0	0	0	0	507	280	
6	0	0	0	0	508	280	
7	0	0	0	0	508	279	
8	0	0	0	0	509	279	
9	0	0	0	0	509	280	
10	0	0	0	0	510	279	
11	0	0	0	0	510	279	
12	0	0	0	0	511	279	
13	0	0	0	0	511	279	
14	0	0	0	0	511	279	
15	0	0	0	0	511	280	
0	0	0	0	0	511	279	
1	0	0	0	0	510	280	
2	0	0	0	0	510	280	
3	0	0	0	0	510	279	
4	0	0	0	0	509	280	
5	0	0	0	0	508	279	
6	0	0	0	0	508	279	
7	0	0	0	0	508	280	
8	0	0	0	0	509	279	
9	0	0	0	0	510	280	
10	0	0	0	0	511	279	
11	0	0	0	0	510	279	
12	0	0	0	0	510	279	
13	0	0	0	0	510	279	
14	0	0	0	0	509	279	
15	0	0	0	0	510	279	
0	0	0	0	0	510	279	
1	0	0	0	0	511	279	
2	0	0	0	0	511	280	
3	0	0	0	0	510	280	
4	0	0	0	0	510	279	
5	0	0	0	0	510	280	
6	0	0	0	0	510	279	
7	0	0	0	0	511	279	
8	0	0	0	0	512	279	
9	0	0	0	0	512	279	
10	0	0	0	0	513	279	
11	0	0	0	0	512	279	
12	0	0	0	0	513	279	
13	0	0	0	0	513	279	
14	0	0	0	0	513	279	
15	0	0	0	0	513	279	
0	0	0	0	0	513	279	
1	0	0	0	0	512	279	
2	0	0	0	0	512	279	
3	0	0	0	0	510	279	
4	0	0	0	0	510	279	
5	0	0	0	0	509	279	
6	0	0	0	0	508	280	
7	0	0	0	0	509	279	
8	0	0	0	0	509	279	
9	0	0	0	0	510	280	
10	0	0	0	0	510	279	
11	0	0	0	0	511	279	
12	0	0	0	0	511	279	
13	0	0	0	0	511	279	
14	0	0	0	0	511	279	
15	0	0	0	0	511	279	
0	0	0	0	0	510	279	
1	0	0	0	0	510	280	
2	0	0	0	0	510	279	
3	0	0	0	0	511	279	
4	0	0	0	0	510	279	
5	0	0	0	0	510	279	
6	0	0	0	0	509	279	
7	0	0	0	0	509	279	
8	0	0	0	0	509	279	
9	0	0	0	0	510	279	
10	0	0	0	0	510	279	
11	0	0	0	0	512	279	
12	0	0	0	0	513	279	
13	0	0	0	0	515	280	
14	0	0	0	0	515	279	
15	0	0	0	0	515	279	
0	0	0	0	0	515	279	
1	0	0	0	0	514	279	
2	0	0	0	0	514	279	
3	0	0	0	0	513	279	
4	0	0	0	0	512	279	
5	0	0	0	0	513	279	
6	0	0	0	0	512	280	
7	0	0	0	0	512	279	
8	0	0	0	0	511	279	
9	0	0	0	0	511	280	
10	0	0	0	0	511	279	
11	0	0	0	0	512	279	
12	0	0	0	0	513	280	
13	0	0	0	0	514	279	
14	0	0	0	0	514	279	
15	0	0	0	0	513	279	
0	0	0	0	0	512	279	
1	0	0	0	0	510	279	
2	0	0	0	0	508	279	
3	0	0	0	0	505	279	
4	0	0	0	0	503	279	
5	0	0	0	0	501	279	
6	0	0	0	0	498	279	
7	0	0	0	0	496	279	
8	0	0	0	0	494	279	
9	0	0	0	0	493	280	
10	0	0	0	0	492	279	
11	0	0	0	0	493	279	
12	0	0	0	0	492	279	
13	0	0	0	0	490	279	
14	0	0	0	0	489	279	
15	0	0	0	0	487	279	
0	0	0	0	0	487	279	
1	0	0	0	0	488	279	
2	0	0	0	0	489	280	
3	0	0	0	0	490	279	
4	0	0	0	0	492	279	
5	0	0	0	0	494	279	
6	0	0	0	0	494	279	
7	0	0	0	0	496	279	
8	0	0	0	0	497	279	
9	0	0	0	0	498	279	
10	0	0	0	0	499	279	
11	0	0	0	0	500	279	
12	0	0	0	0	501	279	
13	0	0	0	0	501	279	
14	0	0	0	0	502	279	
15	0	0	0	0	502	279	
0	0	0	0	0	502	279	
1	0	0	0	0	502	279	
2	0	0	0	0	502	279	
3	0	0	0	0	502	279	
4	0	0	0	0	502	279	
5	0	0	0	0	501	279	
6	0	0	0	0	501	280	
7	0	0	0	0	501	279	
8	0	0	0	0	502	279	
9	0	0	0	0	502	279	
10	0	0	0	0	504	279	
11	0	0	0	0	505	279	
12	0	0	0	0	507	280	
13	0	0	0	0	508	279	
14	0	0	0	0	508	279	
15	0	0	0	0	510	279	
0	0	0	0	0	511	279	
1	0	0	0	0	512	279	
2	0	0	0	0	512	279	
3	0	0	0	0	512	279	
4	0	0	0	0	511	279	
5	0	0	0	0	510	279	
6	0	0	0	0	509	279	
7	0	0	0	0	508	279	
8	0	0	0	0	507	279	
9	0	0	0	0	506	279	
10	0	0	0	0	505	279	
11	0	0	0	0	505	279	
12	0	0	0	0	506	279	
13	0	0	0	0	506	279	
14	0	0	0	0	506	279	
15	0	0	0	0	506	279	
0	0	0	0	0	506	279	
1	0	0	0	0	507	279	
2	0	0	0	0	507	279	
3	0	0	0	0	506	279	
4	0	0	0	0	504	279	
5	0	0	0	0	503	279	
6	0	0	0	0	502	279	
7	0	0	0	0	500	279	
8	0	0	0	0	499	279	
9	0	0	0	0	497	279	
10	0	0	0	0	497	279	
11	0	0	0	0	497	279	
12	0	0	0	0	497	279	
13	0	0	0	0	497	279	
14	0	0	0	0	498	279	
15	0	0	0	0	499	279	
0	0	0	0	0	499	279	
1	0	0	0	0	499	279	
2	0	0	0	0	500	279	
3	0	0	0	0	499	279	
4	0	0	0	0	499	279	
5	0	0	0	0	500	279	
6	0	0	0	0	500	279	
7	0	0	0	0	499	279	
8	0	0	0	0	499	279	
9	0	0	0	0	500	280	
10	0	0	0	0	502	279	
11	0	0	0	0	503	279	
12	0	0	0	0	503	279	
13	0	0	0	0	504	279	
14	0	0	0	0	504	279	
15	0	0	0	0	505	279	
0	0	0	0	0	507	279	
1	0	0	0	0	508	279	
2	0	0	0	0	508	279	
3	0	0	0	0	510	279	
4	0	0	0	0	510	279	
5	0	0	0	0	510	279	
6	0	0	0	0	510	279	
7	0	0	0	0	510	279	
8	0	0	0	0	511	279	
9	0	0	0	0	510	279	
10	0	0	0	0	510	279	
11	0	0	0	0	509	279	
12	0	0	0	0	509	279	
13	0	0	0	0	508	280	
14	0	0	0	0	508	279	
15	0	0	0	0	508	279	
0	0	0	0	0	510	279	
1	0	0	0	0	511	279	
2	0	0	0	0	511	279	
3	0	0	0	0	512	279	
4	0	0	0	0	512	279	
5	0	0	0	0	512	279	
6	0	0	0	0	511	279	
7	0	0	0	0	511	279	
8	0	0	0	0	510	279	
9	0	0	0	0	510	279	
10	0	0	0	0	509	279	
11	0	0	0	0	508	279	
12	0	0	0	0	507	279	
13	0	0	0	0	507	279	
14	0	0	0	0	507	279	
15	0	0	0	0	508	279	
0	0	0	0	0	509	279	
1	0	0	0	0	510	279	
2	0	0	0	0	511	279	
3	0	0	0	0	512	279	
4	0	0	0	0	512	279	
5	0	0	0	0	511	279	
6	0	0	0	0	511	279	
7	0	0	0	0	510	279	
8	0	0	0	0	511	279	
9	0	0	0	0	509	279	
10	0	0	0	0	508	279	
11	0	0	0	0	506	279	
12	0	0	0	0	506	279	
13	0	0	0	0	507	280	
14	0	0	0	0	506	279	
15	0	0	0	0	507	279	
0	0	0	0	0	507	279	
1	0	0	0	0	507	279	
2	0	0	0	0	508	279	
3	0	0	0	0	507	279	
4	0	0	0	0	508	279	
5	0	0	0	0	508	279	
6	0	0	0	0	508	279	
7	0	0	0	0	508	279	
8	0	0	0	0	508	279	
9	0	0	0	0	507	279	
10	0	0	0	0	507	279	
11	0	0	0	0	506	279	
12	0	0	0	0	507	279	
13	0	0	0	0	506	279	
14	0	0	0	0	507	279	
15	0	0	0	0	507	279	
0	0	0	0	0	507	279	
1	0	0	0	0	507	279	
2	0	0	0	0	507	279	
3	0	0	0	0	508	279	
4	0	0	0	0	508	279	
5	0	0	0	0	508	279	
6	0	0	0	0	507	279	
7	0	0	0	0	507	279	
8	0	0	0	0	507	279	
9	0	0	0	0	506	279	
10	0	0	0	0	505	279	
11	0	0	0	0	504	279	
12	0	0	0	0	504	279	
13	0	0	0	0	503	279	
14	0	0	0	0	502	279	
15	0	0	0	0	502	279	
0	0	0	0	0	502	279	
1	0	0	0	0	502	279	
2	0	0	0	0	503	279	
3	0	0	0	0	504	279	
4	0	0	0	0	504	279	
5	0	0	0	0	504	279	
6	0	0	0	0	504	279	
7	0	0	0	0	503	279	
8	0	0	0	0	502	279	
9	0	0	0	0	501	279	
10	0	0	0	0	501	279	
11	0	0	0	0	500	279	
12	0	0	0	0	499	279	
13	0	0	0	0	498	279	
14	0	0	0	0	497	279	
15	0	0	0	0	497	279	
0	0	0	0	0	498	279	
1	0	0	0	0	498	279	
2	0	0	0	0	499	279	
3	0	0	0	0	500	279	
4	0	0	0	0	502	279	
5	0	0	0	0	502	279	
6	0	0	0	0	502	279	
7	0	0	0	0	502	279	
8	0	0	0	0	503	279	
9	0	0	0	0	504	279	
10	0	0	0	0	503	279	
11	0	0	0	0	503	279	
12	0	0	0	0	502	279	
13	0	0	0	0	502	279	
14	0	0	0	0	503	279	
15	0	0	0	0	502	279	
0	0	0	0	0	501	279	
1	0	0	0	0	499	279	
2	0	0	0	0	499	279	
3	0	0	0	0	500	279	
4	0	0	0	0	501	279	
5	0	0	0	0	502	279	
6	0	0	0	0	502	279	
7	0	0	0	0	501	279	
8	0	0	0	0	502	279	
9	0	0	0	0	502	279	
10	0	0	0	0	502	279	
11	0	0	0	0	501	279	
12	0	0	0	0	500	279	
13	0	0	0	0	499	279	
14	0	0	0	0	498	279	
15	0	0	0	0	497	279	
0	0	0	0	0	497	279	
1	0	0	0	0	498	279	
2	0	0	0	0	498	279	
3	0	0	0	0	498	279	
4	0	0	0	0	497	279	
5	0	0	0	0	498	279	
6	0	0	0	0	499	279	
7	0	0	0	0	499	279	
8	0	0	0	0	500	279	
9	0	0	0	0	501	279	
10	0	0	0	0	501	279	
11	0	0	0	0	501	279	
12	0	0	0	0	502	279	
13	0	0	0	0	501	279	
14	0	0	0	0	500	279	
15	0	0	0	0	499	279	
0	0	0	0	0	498	279	
1	0	0	0	0	498	280	
2	0	0	0	0	498	279	
3	0	0	0	0	498	279	
4	0	0	0	0	499	279	
5	0	0	0	0	499	279	
6	0	0	0	0	500	279	
7	0	0	0	0	500	279	
8	0	0	0	0	501	279	
9	0	0	0	0	502	279	
10	0	0	0	0	502	279	
11	0	0	0	0	502	279	
12	0	0	0	0	502	279	
13	0	0	0	0	501	279	
14	0	0	0	0	500	279	
15	0	0	0	0	498	279	
0	0	0	0	0	498	279	
1	0	0	0	0	497	279	
2	0	0	0	0	498	279	
3	0	0	0	0	498	279	
4	0	0	0	0	498	279	
5	0	0	0	0	499	279	
6	0	0	0	0	500	279	
7	0	0	0	0	500	279	
8	0	0	0	0	501	279	
9	0	0	0	0	503	279	
10	0	0	0	0	504	279	
11	0	0	0	0	504	279	
12	0	0	0	0	504	279	
13	0	0	0	0	503	279	
14	0	0	0	0	502	279	
15	0	0	0	0	502	279	
0	0	0	0	0	503	279	
1	0	0	0	0	502	279	
2	0	0	0	0	502	279	
3	0	0	0	0	502	279	
4	0	0	0	0	503	279	
5	0	0	0	0	504	279	
6	0	0	0	0	506	279	
7	0	0	0	0	507	279	
8	0	0	0	0	507	279	
9	0	0	0	0	508	279	
10	0	0	0	0	508	279	
11	0	0	0	0	509	279	
12	0	0	0	0	508	279	
13	0	0	0	0	508	279	
14	0	0	0	0	509	279	
15	0	0	0	0	509	279	
0	0	0	0	0	508	279	
1	0	0	0	0	508	279	
2	0	0	0	0	509	279	
3	0	0	0	0	509	279	
4	0	0	0	0	510	279	
5	0	0	0	0	511	279	
6	0	0	0	0	512	279	
7	0	0	0	0	512	279	
8	0	0	0	0	513	279	
9	0	0	0	0	513	279	
10	0	0	0	0	514	279	
11	0	0	0	0	515	279	
12	0	0	0	0	515	279	
13	0	0	0	0	515	279	
14	0	0	0	0	515	279	
15	0	0	0	0	516	279	
0	0	0	0	0	516	279	
1	0	0	0	0	515	279	
2	0	0	0	0	515	279	
3	0	0	0	0	516	279	
4	0	0	0	0	517	279	
5	0	0	0	0	518	279	
6	0	0	0	0	519	279	
7	0	0	0	0	519	279	
8	0	0	0	0	520	279	
9	0	0	0	0	521	279	
10	0	0	0	0	523	279	
11	0	0	0	0	524	279	
12	0	0	0	0	526	279	
13	0	0	0	0	527	279	
14	0	0	0	0	527	279	
15	0	0	0	0	527	279	
0	0	0	0	0	527	279	
1	0	0	0	0	527	279	
2	0	0	0	0	527	279	
3	0	0	0	0	527	279	
4	0	0	0	0	527	279	
5	0	0	0	0	527	279	
6	0	0	0	0	527	279	
7	0	0	0	0	527	279	
8	0	0	0	0	528	279	
9	0	0	0	0	530	279	
10	0	0	0	0	531	279	
11	0	0	0	0	532	279	
12	0	0	0	0	533	279	
13	0	0	0	0	533	279	
14	0	0	0	0	533	279	
15	0	0	0	0	533	279	
0	0	0	0	0	533	279	
1	0	0	0	0	532	279	
2	0	0	0	0	531	279	
3	0	0	0	0	530	279	
4	0	0	0	0	530	279	
5	0	0	0	0	531	279	
6	0	0	0	0	530	279	
7	0	0	0	0	531	279	
8	0	0	0	0	532	279	
9	0	0	0	0	533	279	
10	0	0	0	0	533	279	
11	0	0	0	0	534	279	
12	0	0	0	0	535	279	
13	0	0	0	0	536	279	
14	0	0	0	0	536	279	
15	0	0	0	0	537	279	
0	0	0	0	0	537	279	
1	0	0	0	0	536	279	
2	0	0	0	0	536	279	
3	0	0	0	0	534	279	
4	0	0	0	0	534	279	
5	0	0	0	0	533	279	
6	0	0	0	0	533	279	
7	0	0	0	0	533	279	
8	0	0	0	0	533	279	
9	0	0	0	0	534	279	
10	0	0	0	0	533	279	
11	0	0	0	0	533	279	
12	0	0	0	0	534	279	
13	0	0	0	0	534	279	
14	0	0	0	0	535	279	
15	0	0	0	0	536	279	
0	0	0	0	0	535	279	
1	0	0	0	0	535	279	
2	0	0	0	0	535	279	
3	0	0	0	0	534	279	
4	0	0	0	0	534	279	
5	0	0	0	0	532	279	
6	0	0	0	0	532	279	
7	0	0	0	0	532	279	
8	0	0	0	0	532	279	
9	0	0	0	0	532	279	
10	0	0	0	0	531	279	
11	0	0	0	0	531	279	
12	0	0	0	0	531	279	
13	0	0	0	0	532	279	
14	0	0	0	0	531	279	
15	0	0	0	0	530	279	
0	0	0	0	0	529	279	
1	0	0	0	0	528	279	
2	0	0	0	0	528	279	
3	0	0	0	0	527	279	
4	0	0	0	0	526	279	
5	0	0	0	0	525	279	
6	0	0	0	0	523	279	
7	0	0	0	0	523	279	
8	0	0	0	0	523	279	
9	0	0	0	0	523	279	
10	0	0	0	0	523	279	
11	0	0	0	0	524	279	
12	0	0	0	0	524	279	
13	0	0	0	0	524	279	
14	0	0	0	0	524	279	
15	0	0	0	0	524	279	
0	0	0	0	0	524	279	
1	0	0	0	0	524	279	
2	0	0	0	0	524	279	
3	0	0	0	0	523	279	
4	0	0	0	0	521	279	
5	0	0	0	0	520	279	
6	0	0	0	0	519	279	
7	0	0	0	0	518	279	
8	0	0	0	0	518	279	
9	0	0	0	0	517	279	
10	0	0	0	0	517	279	
11	0	0	0	0	518	279	
12	0	0	0	0	519	279	
13	0	0	0	0	519	279	
14	0	0	0	0	519	279	
15	0	0	0	0	518	279	
0	0	0	0	0	518	279	
1	0	0	0	0	518	279	
2	0	0	0	0	518	279	
3	0	0	0	0	517	279	
4	0	0	0	0	516	279	
5	0	0	0	0	516	279	
6	0	0	0	0	515	279	
7	0	0	0	0	515	279	
8	0	0	0	0	514	279	
9	0	0	0	0	513	279	
10	0	0	0	0	515	279	
11	0	0	0	0	515	279	
12	0	0	0	0	516	279	
13	0	0	0	0	517	279	
14	0	0	0	0	516	279	
15	0	0	0	0	516	279	
0	0	0	0	0	517	279	
1	0	0	0	0	518	279	
2	0	0	0	0	519	279	
3	0	0	0	0	519	279	
4	0	0	0	0	518	279	
5	0	0	0	0	517	279	
6	0	0	0	0	517	279	
7	0	0	0	0	516	279	
8	0	0	0	0	514	279	
9	0	0	0	0	514	279	
10	0	0	0	0	513	279	
11	0	0	0	0	513	279	
12	0	0	0	0	513	279	
13	0	0	0	0	514	279	
14	0	0	0	0	515	279	
15	0	0	0	0	515	279	
0	0	0	0	0	515	279	
1	0	0	0	0	515	279	
2	0	0	0	0	516	279	
3	0	0	0	0	516	279	
4	0	0	0	0	516	279	
5	0	0	0	0	516	279	
6	0	0	0	0	515	279	
7	0	0	0	0	514	279	
8	0	0	0	0	513	279	
9	0	0	0	0	512	279	
10	0	0	0	0	512	279	
11	0	0	0	0	511	279	
12	0	0	0	0	511	279	
13	0	0	0	0	512	279	
14	0	0	0	0	512	279	
15	0	0	0	0	513	279	
0	0	0	0	0	513	279	
1	0	0	0	0	513	279	
2	0	0	0	0	513	279	
3	0	0	0	0	513	279	
4	0	0	0	0	512	279	
5	0	0	0	0	512	279	
6	0	0	0	0	512	279	
7	0	0	0	0	512	279	
8	0	0	0	0	511	279	
9	0	0	0	0	511	279	
10	0	0	0	0	510	279	
11	0	0	0	0	510	279	
12	0	0	0	0	511	279	
13	0	0	0	0	512	279	
14	0	0	0	0	512	279	
15	0	0	0	0	514	279	
0	0	0	0	0	514	279	
1	0	0	0	0	514	279	
2	0	0	0	0	514	279	
3	0	0	0	0	514	279	
4	0	0	0	0	514	279	
5	0	0	0	0	514	279	
6	0	0	0	0	513	279	
7	0	0	0	0	514	279	
8	0	0	0	0	513	279	
9	0	0	0	0	513	279	
10	0	0	0	0	512	279	
11	0	0	0	0	512	279	
12	0	0	0	0	512	279	
13	0	0	0	0	512	279	
14	0	0	0	0	513	279	
15	0	0	0	0	513	279	
0	0	0	0	0	513	279	
1	0	0	0	0	513	279	
2	0	0	0	0	514	279	
3	0	0	0	0	513	279	
4	0	0	0	0	513	279	
5	0	0	0	0	513	279	
6	0	0	0	0	513	279	
7	0	0	0	0	513	279	
8	0	0	0	0	513	279	
9	0	0	0	0	512	279	
10	0	0	0	0	512	279	
11	0	0	0	0	511	279	
12	0	0	0	0	510	279	
13	0	0	0	0	509	279	
14	0	0	0	0	509	279	
15	0	0	0	0	510	279	
0	0	0	0	0	511	279	
1	0	0	0	0	512	279	
2	0	0	0	0	512	279	
3	0	0	0	0	513	279	
4	0	0	0	0	513	279	
5	0	0	0	0	513	279	
6	0	0	0	0	514	279	
7	0	0	0	0	513	279	
8	0	0	0	0	512	279	
9	0	0	0	0	512	279	
10	0	0	0	0	512	279	
11	0	0	0	0	511	279	
12	0	0	0	0	511	279	
13	0	0	0	0	510	279	
14	0	0	0	0	511	279	
15	0	0	0	0	511	279	
0	0	0	0	0	511	279	
1	0	0	0	0	512	279	
2	0	0	0	0	512	279	
3	0	0	0	0	513	279	
4	0	0	0	0	512	279	
5	0	0	0	0	513	279	
6	0	0	0	0	513	279	
7	0	0	0	0	512	279	
8	0	0	0	0	512	279	
9	0	0	0	0	512	279	
10	0	0	0	0	511	279	
11	0	0	0	0	510	279	
12	0	0	0	0	509	279	
13	0	0	0	0	509	279	
14	0	0	0	0	508	279	
15	0	0	0	0	509	279	
0	0	0	0	0	510	279	
1	0	0	0	0	510	279	
2	0	0	0	0	511	279	
3	0	0	0	0	512	279	
4	0	0	0	0	512	279	
5	0	0	0	0	513	279	
6	0	0	0	0	513	279	
7	0	0	0	0	513	279	
8	0	0	0	0	512	279	
9	0	0	0	0	511	279	
10	0	0	0	0	510	279	
11	0	0	0	0	510	279	
12	0	0	0	0	510	279	
13	0	0	0	0	508	279	
14	0	0	0	0	508	279	
15	0	0	0	0	508	279	
0	0	0	0	0	508	279	
1	0	0	0	0	509	279	
2	0	0	0	0	509	279	
3	0	0	0	0	510	279	
4	0	0	0	0	510	279	
5	0	0	0	0	511	279	
6	0	0	0	0	511	279	
7	0	0	0	0	511	279	
8	0	0	0	0	512	279	
9	0	0	0	0	511	279	
10	0	0	0	0	511	279	
11	0	0	0	0	511	279	
12	0	0	0	0	511	279	
13	0	0	0	0	510	279	
14	0	0	0	0	509	279	
15	0	0	0	0	509	279	
0	0	0	0	0	509	279	
1	0	0	0	0	509	279	
2	0	0	0	0	509	279	
3	0	0	0	0	510	279	
4	0	0	0	0	510	279	
5	0	0	0	0	511	279	
6	0	0	0	0	511	279	
7	0	0	0	0	510	279	
8	0	0	0	0	510	279	
9	0	0	0	0	510	279	
10	0	0	0	0	509	279	
11	0	0	0	0	508	279	
12	0	0	0	0	507	279	
13	0	0	0	0	506	279	
14	0	0	0	0	505	279	
15	0	0	0	0	505	279	
0	0	0	0	0	506	279	
1	0	0	0	0	507	279	
2	0	0	0	0	507	279	
3	0	0	0	0	507	279	
4	0	0	0	0	508	279	
5	0	0	0	0	508	279	
6	0	0	0	0	508	279	
7	0	0	0	0	509	279	
8	0	0	0	0	508	279	
9	0	0	0	0	508	279	
10	0	0	0	0	508	279	
11	0	0	0	0	507	279	
12	0	0	0	0	506	279	
13	0	0	0	0	505	279	
14	0	0	0	0	504	279	
15	0	0	0	0	504	279	
0	0	0	0	0	503	279	
1	0	0	0	0	504	279	
2	0	0	0	0	504	279	
3	0	0	0	0	505	279	
4	0	0	0	0	506	279	
5	0	0	0	0	507	279	
6	0	0	0	0	507	279	
7	0	0	0	0	507	279	
8	0	0	0	0	508	279	
9	0	0	0	0	508	279	
10	0	0	0	0	508	279	
11	0	0	0	0	508	279	
12	0	0	0	0	507	279	
13	0	0	0	0	507	279	
14	0	0	0	0	506	279	
15	0	0	0	0	506	279	
0	0	0	0	0	505	279	
1	0	0	0	0	504	279	
2	0	0	0	0	504	279	
3	0	0	0	0	504	279	
4	0	0	0	0	504	279	
5	0	0	0	0	504	279	
6	0	0	0	0	505	279	
7	0	0	0	0	506	279	
8	0	0	0	0	506	279	
9	0	0	0	0	506	279	
10	0	0	0	0	506	279	
11	0	0	0	0	507	279	
12	0	0	0	0	507	279	
13	0	0	0	0	507	279	
14	0	0	0	0	505	279	
15	0	0	0	0	505	279	
0	0	0	0	0	504	279	
1	0	0	0	0	504	279	
2	0	0	0	0	505	279	
3	0	0	0	0	505	279	
4	0	0	0	0	505	279	
5	0	0	0	0	507	279	
6	0	0	0	0	507	279	
7	0	0	0	0	507	279	
8	0	0	0	0	507	279	
9	0	0	0	0	507	279	
10	0	0	0	0	508	279	
11	0	0	0	0	509	279	
12	0	0	0	0	508	279	
13	0	0	0	0	507	279	
14	0	0	0	0	506	279	
15	0	0	0	0	505	279	
0	0	0	0	0	505	279	
1	0	0	0	0	504	279	
2	0	0	0	0	504	279	
3	0	0	0	0	503	279	
4	0	0	0	0	503	279	
5	0	0	0	0	504	279	
6	0	0	0	0	505	279	
7	0	0	0	0	505	279	
8	0	0	0	0	506	279	
9	0	0	0	0	506	279	
10	0	0	0	0	507	279	
11	0	0	0	0	507	279	
12	0	0	0	0	507	279	
13	0	0	0	0	507	279	
14	0	0	0	0	506	279	
15	0	0	0	0	505	279	
0	0	0	0	0	505	279	
1	0	0	0	0	504	279	
2	0	0	0	0	504	279	
3	0	0	0	0	504	279	
4	0	0	0	0	504	279	
5	0	0	0	0	504	279	
6	0	0	0	0	505	279	
7	0	0	0	0	505	279	
8	0	0	0	0	505	279	
9	0	0	0	0	505	279	
10	0	0	0	0	506	279	
11	0	0	0	0	506	279	
12	0	0	0	0	505	279	
13	0	0	0	0	506	279	
14	0	0	0	0	506	279	
15	0	0	0	0	505	279	
0	0	0	0	0	504	279	
1	0	0	0	0	504	279	
2	0	0	0	0	504	279	
3	0	0	0	0	503	279	
4	0	0	0	0	503	279	
5	0	0	0	0	503	279	
6	0	0	0	0	503	279	
7	0	0	0	0	502	279	
8	0	0	0	0	503	279	
9	0	0	0	0	504	279	
10	0	0	0	0	505	279	
11	0	0	0	0	505	279	
12	0	0	0	0	504	279	
13	0	0	0	0	505	279	
14	0	0	0	0	504	279	
15	0	0	0	0	504	279	
0	0	0	0	0	503	279	
1	0	0	0	0	503	279	
2	0	0	0	0	502	279	
3	0	0	0	0	502	279	
4	0	0	0	0	502	279	
5	0	0	0	0	502	279	
6	0	0	0	0	502	279	
7	0	0	0	0	504	279	
8	0	0	0	0	505	279	
9	0	0	0	0	504	279	
10	0	0	0	0	505	279	
11	0	0	0	0	504	279	
12	0	0	0	0	505	279	
13	0	0	0	0	505	279	
14	0	0	0	0	504	279	
15	0	0	0	0	504	279	
0	0	0	0	0	504	279	
1	0	0	0	0	504	279	
2	0	0	0	0	503	279	
3	0	0	0	0	502	279	
4	0	0	0	0	502	279	
5	0	0	0	0	502	279	
6	0	0	0	0	502	279	
7	0	0	0	0	502	279	
8	0	0	0	0	504	279	
9	0	0	0	0	505	279	
10	0	0	0	0	504	279	
11	0	0	0	0	505	279	
12	0	0	0	0	504	279	
13	0	0	0	0	504	279	
14	0	0	0	0	505	279	
15	0	0	0	0	505	279	
0	0	0	0	0	504	279	
1	0	0	0	0	503	279	
2	0	0	0	0	503	279	
3	0	0	0	0	502	279	
4	0	0	0	0	502	279	
5	0	0	0	0	503	279	
6	0	0	0	0	503	279	
7	0	0	0	0	504	279	
8	0	0	0	0	504	279	
9	0	0	0	0	504	279	
10	0	0	0	0	506	279	
11	0	0	0	0	505	279	
12	0	0	0	0	506	279	
13	0	0	0	0	507	279	
14	0	0	0	0	507	279	
15	0	0	0	0	507	279	
0	0	0	0	0	507	279	
1	0	0	0	0	506	279	
2	0	0	0	0	505	279	
3	0	0	0	0	505	279	
4	0	0	0	0	505	279	
5	0	0	0	0	504	279	
6	0	0	0	0	505	279	
7	0	0	0	0	505	279	
8	0	0	0	0	505	279	
9	0	0	0	0	505	279	
10	0	0	0	0	505	279	
11	0	0	0	0	506	279	
12	0	0	0	0	507	279	
13	0	0	0	0	507	279	
14	0	0	0	0	509	279	
15	0	0	0	0	510	279	
0	0	0	0	0	510	279	
1	0	0	0	0	510	279	
2	0	0	0	0	511	279	
3	0	0	0	0	510	279	
4	0	0	0	0	510	279	
5	0	0	0	0	509	279	
6	0	0	0	0	509	279	
7	0	0	0	0	509	279	
8	0	0	0	0	510	279	
9	0	0	0	0	509	279	
10	0	0	0	0	511	279	
11	0	0	0	0	511	279	
12	0	0	0	0	511	279	
13	0	0	0	0	513	279	
14	0	0	0	0	514	279	
15	0	0	0	0	515	279	
0	0	0	0	0	515	279	
1	0	0	0	0	515	279	
2	0	0	0	0	515	279	
3	0	0	0	0	514	279	
4	0	0	0	0	513	279	
5	0	0	0	0	512	279	
6	0	0	0	0	511	279	
7	0	0	0	0	511	279	
8	0	0	0	0	510	279	
9	0	0	0	0	511	279	
10	0	0	0	0	511	279	
11	0	0	0	0	511	279	
12	0	0	0	0	511	279	
13	0	0	0	0	512	279	
14	0	0	0	0	512	279	
15	0	0	0	0	512	279	
0	0	0	0	0	512	279	
1	0	0	0	0	513	279	
2	0	0	0	0	513	279	
3	0	0	0	0	512	279	
4	0	0	0	0	512	279	
5	0	0	0	0	510	279	
6	0	0	0	0	509	279	
7	0	0	0	0	509	279	
8	0	0	0	0	508	279	
9	0	0	0	0	508	279	
10	0	0	0	0	510	279	
11	0	0	0	0	510	279	
12	0	0	0	0	511	279	
13	0	0	0	0	511	279	
14	0	0	0	0	512	279	
15	0	0	0	0	513	279	
0	0	0	0	0	513	279	
1	0	0	0	0	513	279	
2	0	0	0	0	513	279	
3	0	0	0	0	512	279	
4	0	0	0	0	512	279	
5	0	0	0	0	512	279	
6	0	0	0	0	512	279	
7	0	0	0	0	513	279	
8	0	0	0	0	512	279	
9	0	0	0	0	512	279	
10	0	0	0	0	512	279	
11	0	0	0	0	512	279	
12	0	0	0	0	512	279	
13	0	0	0	0	513	279	
14	0	0	0	0	513	279	
15	0	0	0	0	514	279	
0	0	0	0	0	515	279	
1	0	0	0	0	515	279	
2	0	0	0	0	515	279	
3	0	0	0	0	515	278	
4	0	0	0	0	514	279	
5	0	0	0	0	513	279	
6	0	0	0	0	512	279	
7	0	0	0	0	511	279	
8	0	0	0	0	511	279	
9	0	0	0	0	511	279	
10	0	0	0	0	511	279	
11	0	0	0	0	511	279	
12	0	0	0	0	511	279	
13	0	0	0	0	511	279	
14	0	0	0	0	512	278	
15	0	0	0	0	512	279	
0	0	0	0	0	512	279	
1	0	0	0	0	513	279	
2	0	0	0	0	514	278	
3	0	0	0	0	514	279	
4	0	0	0	0	513	279	
5	0	0	0	0	512	279	
6	0	0	0	0	512	279	
7	0	0	0	0	511	279	
8	0	0	0	0	511	279	
9	0	0	0	0	511	279	
10	0	0	0	0	511	279	
11	0	0	0	0	511	279	
12	0	0	0	0	511	279	
13	0	0	0	0	511	279	
14	0	0	0	0	512	279	
15	0	0	0	0	512	279	
0	0	0	0	0	514	279	
1	0	0	0	0	515	279	
2	0	0	0	0	515	279	
3	0	0	0	0	515	279	
4	0	0	0	0	514	279	
5	0	0	0	0	513	279	
6	0	0	0	0	512	279	
7	0	0	0	0	512	279	
8	0	0	0	0	511	279	
9	0	0	0	0	510	279	
10	0	0	0	0	509	279	
11	0	0	0	0	509	279	
12	0	0	0	0	509	279	
13	0	0	0	0	509	279	
14	0	0	0	0	510	279	
15	0	0	0	0	512	279	
0	0	0	0	0	512	279	
1	0	0	0	0	514	279	
2	0	0	0	0	514	279	
3	0	0	0	0	514	279	
4	0	0	0	0	514	279	
5	0	0	0	0	514	279	
6	0	0	0	0	513	279	
7	0	0	0	0	512	279	
8	0	0	0	0	511	279	
9	0	0	0	0	511	279	
10	0	0	0	0	511	279	
11	0	0	0	0	510	279	
12	0	0	0	0	509	279	
13	0	0	0	0	509	279	
14	0	0	0	0	509	279	
15	0	0	0	0	510	279	
0	0	0	0	0	510	279	
1	0	0	0	0	510	279	
2	0	0	0	0	510	279	
3	0	0	0	0	510	279	
4	0	0	0	0	510	278	
5	0	0	0	0	511	279	
6	0	0	0	0	510	279	
7	0	0	0	0	509	279	
8	0	0	0	0	507	279	
9	0	0	0	0	505	279	
10	0	0	0	0	505	279	
11	0	0	0	0	504	279	
12	0	0	0	0	502	279	
13	0	0	0	0	502	279	
14	0	0	0	0	502	279	
15	0	0	0	0	503	279	
0	0	0	0	0	503	279	
1	0	0	0	0	504	279	
2	0	0	0	0	504	278	
3	0	0	0	0	504	279	
4	0	0	0	0	504	279	
5	0	0	0	0	504	279	
6	0	0	0	0	504	278	
7	0	0	0	0	503	279	
8	0	0	0	0	501	279	
9	0	0	0	0	500	279	
10	0	0	0	0	499	279	
11	0	0	0	0	499	279	
12	0	0	0	0	498	279	
13	0	0	0	0	498	279	
14	0	0	0	0	499	279	
15	0	0	0	0	500	279	
0	0	0	0	0	501	279	
1	0	0	0	0	502	278	
2	0	0	0	0	501	279	
3	0	0	0	0	502	279	
4	0	0	0	0	502	279	
5	0	0	0	0	501	279	
6	0	0	0	0	500	279	
7	0	0	0	0	500	279	
8	0	0	0	0	499	279	
9	0	0	0	0	498	279	
10	0	0	0	0	497	279	
11	0	0	0	0	496	279	
12	0	0	0	0	495	279	
13	0	0	0	0	495	279	
14	0	0	0	0	494	279	
15	0	0	0	0	495	279	
0	0	0	0	0	495	279	
1	0	0	0	0	496	279	
2	0	0	0	0	497	279	
3	0	0	0	0	497	279	
4	0	0	0	0	497	279	
5	0	0	0	0	497	279	
6	0	0	0	0	497	279	
7	0	0	0	0	499	278	
8	0	0	0	0	499	279	
9	0	0	0	0	498	279	
10	0	0	0	0	498	279	
11	0	0	0	0	497	279	
12	0	0	0	0	497	279	
13	0	0	0	0	497	279	
14	0	0	0	0	497	279	
15	0	0	0	0	497	279	
0	0	0	0	0	498	279	
1	0	0	0	0	499	279	
2	0	0	0	0	501	278	
3	0	0	0	0	503	279	
4	0	0	0	0	503	279	
5	0	0	0	0	505	278	
6	0	0	0	0	505	279	
7	0	0	0	0	505	279	
8	0	0	0	0	505	279	
9	0	0	0	0	505	279	
10	0	0	0	0	505	278	
11	0	0	0	0	505	279	
12	0	0	0	0	505	279	
13	0	0	0	0	505	279	
14	0	0	0	0	506	278	
15	0	0	0	0	507	279	
0	0	0	0	0	508	279	
1	0	0	0	0	509	279	
2	0	0	0	0	510	279	
3	0	0	0	0	511	279	
4	0	0	0	0	512	279	
5	0	0	0	0	513	279	
6	0	0	0	0	513	278	
7	0	0	0	0	514	279	
8	0	0	0	0	514	279	
9	0	0	0	0	515	279	
10	0	0	0	0	515	279	
11	0	0	0	0	515	278	
12	0	0	0	0	514	279	
13	0	0	0	0	513	279	
14	0	0	0	0	514	279	
15	0	0	0	0	514	279	
0	0	0	0	0	514	279	
1	0	0	0	0	514	279	
2	0	0	0	0	515	278	
3	0	0	0	0	515	279	
4	0	0	0	0	516	279	
5	0	0	0	0	517	279	
6	0	0	0	0	517	278	
7	0	0	0	0	517	279	
8	0	0	0	0	518	279	
9	0	0	0	0	518	279	
10	0	0	0	0	519	279	
11	0	0	0	0	519	279	
12	0	0	0	0	519	279	
13	0	0	0	0	518	278	
14	0	0	0	0	518	279	
15	0	0	0	0	517	279	
0	0	0	0	0	517	278	
1	0	0	0	0	516	279	
2	0	0	0	0	515	279	
3	0	0	0	0	516	279	
4	0	0	0	0	518	279	
5	0	0	0	0	519	279	
6	0	0	0	0	519	279	
7	0	0	0	0	520	278	
8	0	0	0	0	520	279	
9	0	0	0	0	520	279	
10	0	0	0	0	519	278	
11	0	0	0	0	518	278	
12	0	0	0	0	516	279	
13	0	0	0	0	516	279	
14	0	0	0	0	515	279	
15	0	0	0	0	516	279	
0	0	0	0	0	515	279	
1	0	0	0	0	515	279	
2	0	0	0	0	515	279	
3	0	0	0	0	516	278	
4	0	0	0	0	517	279	
5	0	0	0	0	518	279	
6	0	0	0	0	517	279	
7	0	0	0	0	518	278	
8	0	0	0	0	518	279	
9	0	0	0	0	519	279	
10	0	0	0	0	519	279	
11	0	0	0	0	519	279	
12	0	0	0	0	519	278	
13	0	0	0	0	519	279	
14	0	0	0	0	518	279	
15	0	0	0	0	518	279	
0	0	0	0	0	517	279	
1	0	0	0	0	517	279	
2	0	0	0	0	517	279	
3	0	0	0	0	516	279	
4	0	0	0	0	517	279	
5	0	0	0	0	517	278	
6	0	0	0	0	518	279	
7	0	0	0	0	518	279	
8	0	0	0	0	518	279	
9	0	0	0	0	518	278	
10	0	0	0	0	518	279	
11	0	0	0	0	518	279	
12	0	0	0	0	518	279	
13	0	0	0	0	517	278	
14	0	0	0	0	517	279	
15	0	0	0	0	516	279	
0	0	0	0	0	516	279	
1	0	0	0	0	515	279	
2	0	0	0	0	515	279	
3	0	0	0	0	515	279	
4	0	0	0	0	516	278	
5	0	0	0	0	517	279	
6	0	0	0	0	518	279	
7	0	0	0	0	518	278	
8	0	0	0	0	519	279	
9	0	0	0	0	519	279	
10	0	0	0	0	519	279	
11	0	0	0	0	519	278	
12	0	0	0	0	519	279	
13	0	0	0	0	519	279	
14	0	0	0	0	518	279	
15	0	0	0	0	519	279	
0	0	0	0	0	518	279	
1	0	0	0	0	518	279	
2	0	0	0	0	518	279	
