# OpenSignals Text File Format. Version 1
# {"98:D3:B1:FD:3D:90": {"position": 0, "device": "bitalino_rev", "device name": "98:D3:B1:FD:3D:90", "device connection": "BTH98:D3:B1:FD:3D:90", "sampling rate": 1000, "resolution": [4, 1, 1, 1, 1, 10, 10], "firmware version": 1281, "comments": "", "keywords": "", "mode": 0, "sync interval": 2, "date": "2022-4-14", "time": "16:53:51.209", "channels": [2, 3], "sensor": ["ECGBIT", "EDABITREV"], "label": ["A2", "A3"], "column": ["nSeq", "I1", "I2", "O1", "O2", "A2", "A3"], "special": [{}, {}], "digital IO": [0, 0, 1, 1]}}
# EndOfHeader
0	0	0	0	0	502	401	
1	0	0	0	0	503	401	
2	0	0	0	0	503	401	
3	0	0	0	0	503	401	
4	0	0	0	0	503	401	
5	0	0	0	0	504	401	
6	0	0	0	0	505	401	
7	0	0	0	0	505	401	
8	0	0	0	0	507	401	
9	0	0	0	0	507	401	
10	0	0	0	0	508	401	
11	0	0	0	0	508	402	
12	0	0	0	0	508	401	
13	0	0	0	0	507	402	
14	0	0	0	0	507	402	
15	0	0	0	0	507	402	
0	0	0	0	0	505	402	
1	0	0	0	0	504	402	
2	0	0	0	0	504	402	
3	0	0	0	0	504	402	
4	0	0	0	0	505	402	
5	0	0	0	0	505	402	
6	0	0	0	0	506	402	
7	0	0	0	0	507	402	
8	0	0	0	0	508	402	
9	0	0	0	0	509	402	
10	0	0	0	0	511	402	
11	0	0	0	0	511	402	
12	0	0	0	0	510	402	
13	0	0	0	0	508	402	
14	0	0	0	0	508	402	
15	0	0	0	0	508	403	
0	0	0	0	0	506	403	
1	0	0	0	0	505	403	
2	0	0	0	0	504	403	
3	0	0	0	0	504	403	
4	0	0	0	0	504	403	
5	0	0	0	0	504	403	
6	0	0	0	0	505	403	
7	0	0	0	0	506	403	
8	0	0	0	0	507	403	
9	0	0	0	0	508	403	
10	0	0	0	0	509	403	
11	0	0	0	0	510	403	
12	0	0	0	0	510	403	
13	0	0	0	0	511	403	
14	0	0	0	0	511	403	
15	0	0	0	0	511	403	
0	0	0	0	0	511	403	
1	0	0	0	0	511	403	
2	0	0	0	0	511	403	
3	0	0	0	0	510	403	
4	0	0	0	0	508	403	
5	0	0	0	0	508	403	
6	0	0	0	0	509	403	
7	0	0	0	0	510	403	
8	0	0	0	0	510	403	
9	0	0	0	0	511	403	
10	0	0	0	0	512	403	
11	0	0	0	0	512	403	
12	0	0	0	0	512	403	
13	0	0	0	0	511	403	
14	0	0	0	0	511	403	
15	0	0	0	0	511	404	
0	0	0	0	0	512	404	
1	0	0	0	0	511	404	
2	0	0	0	0	511	404	
3	0	0	0	0	510	404	
4	0	0	0	0	510	404	
5	0	0	0	0	509	404	
6	0	0	0	0	508	404	
7	0	0	0	0	508	404	
8	0	0	0	0	508	404	
9	0	0	0	0	508	404	
10	0	0	0	0	509	404	
11	0	0	0	0	510	404	
12	0	0	0	0	511	404	
13	0	0	0	0	512	404	
14	0	0	0	0	513	404	
15	0	0	0	0	513	404	
0	0	0	0	0	512	404	
1	0	0	0	0	511	404	
2	0	0	0	0	511	404	
3	0	0	0	0	511	404	
4	0	0	0	0	511	404	
5	0	0	0	0	511	404	
6	0	0	0	0	511	405	
7	0	0	0	0	511	405	
8	0	0	0	0	511	405	
9	0	0	0	0	510	405	
10	0	0	0	0	510	405	
11	0	0	0	0	511	405	
12	0	0	0	0	511	405	
13	0	0	0	0	511	405	
14	0	0	0	0	511	405	
15	0	0	0	0	510	405	
0	0	0	0	0	511	405	
1	0	0	0	0	511	405	
2	0	0	0	0	511	405	
3	0	0	0	0	511	405	
4	0	0	0	0	510	405	
5	0	0	0	0	509	405	
6	0	0	0	0	508	405	
7	0	0	0	0	508	405	
8	0	0	0	0	508	405	
9	0	0	0	0	508	406	
10	0	0	0	0	508	406	
11	0	0	0	0	509	406	
12	0	0	0	0	510	406	
13	0	0	0	0	510	405	
14	0	0	0	0	510	406	
15	0	0	0	0	511	406	
0	0	0	0	0	511	406	
1	0	0	0	0	511	406	
2	0	0	0	0	510	406	
3	0	0	0	0	510	406	
4	0	0	0	0	509	406	
5	0	0	0	0	509	406	
6	0	0	0	0	509	406	
7	0	0	0	0	509	406	
8	0	0	0	0	508	406	
9	0	0	0	0	508	406	
10	0	0	0	0	509	406	
11	0	0	0	0	509	406	
12	0	0	0	0	510	406	
13	0	0	0	0	509	406	
14	0	0	0	0	510	406	
15	0	0	0	0	510	406	
0	0	0	0	0	510	406	
1	0	0	0	0	510	406	
2	0	0	0	0	511	406	
3	0	0	0	0	510	406	
4	0	0	0	0	509	407	
5	0	0	0	0	510	406	
6	0	0	0	0	510	407	
7	0	0	0	0	510	407	
8	0	0	0	0	508	407	
9	0	0	0	0	507	407	
10	0	0	0	0	505	407	
11	0	0	0	0	503	407	
12	0	0	0	0	502	407	
13	0	0	0	0	499	407	
14	0	0	0	0	498	407	
15	0	0	0	0	496	407	
0	0	0	0	0	493	407	
1	0	0	0	0	490	407	
2	0	0	0	0	488	407	
3	0	0	0	0	486	407	
4	0	0	0	0	484	407	
5	0	0	0	0	481	407	
6	0	0	0	0	478	407	
7	0	0	0	0	475	407	
8	0	0	0	0	472	407	
9	0	0	0	0	471	407	
10	0	0	0	0	472	407	
11	0	0	0	0	473	407	
12	0	0	0	0	475	408	
13	0	0	0	0	476	407	
14	0	0	0	0	478	407	
15	0	0	0	0	479	407	
0	0	0	0	0	480	407	
1	0	0	0	0	480	408	
2	0	0	0	0	481	408	
3	0	0	0	0	481	408	
4	0	0	0	0	482	408	
5	0	0	0	0	482	408	
6	0	0	0	0	481	408	
7	0	0	0	0	480	408	
8	0	0	0	0	479	408	
9	0	0	0	0	478	408	
10	0	0	0	0	479	408	
11	0	0	0	0	479	408	
12	0	0	0	0	481	408	
13	0	0	0	0	484	408	
14	0	0	0	0	487	408	
15	0	0	0	0	489	408	
0	0	0	0	0	492	408	
1	0	0	0	0	493	408	
2	0	0	0	0	496	408	
3	0	0	0	0	498	408	
4	0	0	0	0	500	408	
5	0	0	0	0	501	408	
6	0	0	0	0	503	408	
7	0	0	0	0	504	408	
8	0	0	0	0	505	408	
9	0	0	0	0	506	408	
10	0	0	0	0	508	408	
11	0	0	0	0	510	408	
12	0	0	0	0	511	408	
13	0	0	0	0	512	408	
14	0	0	0	0	512	408	
15	0	0	0	0	513	408	
0	0	0	0	0	513	408	
1	0	0	0	0	513	409	
2	0	0	0	0	513	409	
3	0	0	0	0	513	409	
4	0	0	0	0	512	409	
5	0	0	0	0	511	409	
6	0	0	0	0	511	409	
7	0	0	0	0	510	409	
8	0	0	0	0	508	409	
9	0	0	0	0	507	409	
10	0	0	0	0	505	409	
11	0	0	0	0	504	409	
12	0	0	0	0	504	409	
13	0	0	0	0	504	409	
14	0	0	0	0	504	409	
15	0	0	0	0	503	409	
0	0	0	0	0	504	409	
1	0	0	0	0	504	409	
2	0	0	0	0	504	409	
3	0	0	0	0	504	409	
4	0	0	0	0	505	409	
5	0	0	0	0	505	409	
6	0	0	0	0	504	409	
7	0	0	0	0	503	409	
8	0	0	0	0	503	409	
9	0	0	0	0	501	409	
10	0	0	0	0	501	410	
11	0	0	0	0	501	409	
12	0	0	0	0	501	410	
13	0	0	0	0	501	410	
14	0	0	0	0	502	410	
15	0	0	0	0	503	410	
0	0	0	0	0	504	410	
1	0	0	0	0	504	410	
2	0	0	0	0	505	410	
3	0	0	0	0	506	410	
4	0	0	0	0	507	410	
5	0	0	0	0	507	410	
6	0	0	0	0	507	410	
7	0	0	0	0	508	410	
8	0	0	0	0	508	410	
9	0	0	0	0	508	410	
10	0	0	0	0	507	410	
11	0	0	0	0	507	410	
12	0	0	0	0	508	411	
13	0	0	0	0	507	410	
14	0	0	0	0	507	410	
15	0	0	0	0	507	410	
0	0	0	0	0	507	411	
1	0	0	0	0	508	411	
2	0	0	0	0	509	411	
3	0	0	0	0	509	411	
4	0	0	0	0	509	411	
5	0	0	0	0	509	411	
6	0	0	0	0	509	411	
7	0	0	0	0	509	411	
8	0	0	0	0	509	411	
9	0	0	0	0	508	411	
10	0	0	0	0	507	411	
11	0	0	0	0	506	411	
12	0	0	0	0	506	411	
13	0	0	0	0	506	411	
14	0	0	0	0	506	411	
15	0	0	0	0	506	411	
0	0	0	0	0	505	411	
1	0	0	0	0	505	411	
2	0	0	0	0	506	411	
3	0	0	0	0	507	411	
4	0	0	0	0	507	411	
5	0	0	0	0	506	411	
6	0	0	0	0	505	411	
7	0	0	0	0	505	411	
8	0	0	0	0	505	411	
9	0	0	0	0	505	411	
10	0	0	0	0	504	411	
11	0	0	0	0	505	411	
12	0	0	0	0	505	412	
13	0	0	0	0	504	411	
14	0	0	0	0	504	412	
15	0	0	0	0	504	412	
0	0	0	0	0	504	412	
1	0	0	0	0	505	412	
2	0	0	0	0	505	412	
3	0	0	0	0	505	412	
4	0	0	0	0	506	412	
5	0	0	0	0	507	412	
6	0	0	0	0	507	412	
7	0	0	0	0	507	412	
8	0	0	0	0	507	412	
9	0	0	0	0	507	412	
10	0	0	0	0	506	412	
11	0	0	0	0	506	412	
12	0	0	0	0	506	412	
13	0	0	0	0	506	412	
14	0	0	0	0	505	412	
15	0	0	0	0	505	412	
0	0	0	0	0	506	412	
1	0	0	0	0	506	412	
2	0	0	0	0	507	412	
3	0	0	0	0	506	412	
4	0	0	0	0	505	412	
5	0	0	0	0	505	412	
6	0	0	0	0	506	412	
7	0	0	0	0	506	412	
8	0	0	0	0	506	412	
9	0	0	0	0	506	412	
10	0	0	0	0	505	412	
11	0	0	0	0	505	412	
12	0	0	0	0	504	412	
13	0	0	0	0	504	412	
14	0	0	0	0	504	412	
15	0	0	0	0	504	412	
0	0	0	0	0	503	412	
1	0	0	0	0	503	413	
2	0	0	0	0	502	412	
3	0	0	0	0	502	413	
4	0	0	0	0	502	413	
5	0	0	0	0	503	413	
6	0	0	0	0	503	412	
7	0	0	0	0	504	413	
8	0	0	0	0	504	413	
9	0	0	0	0	505	413	
10	0	0	0	0	505	413	
11	0	0	0	0	504	413	
12	0	0	0	0	504	413	
13	0	0	0	0	504	413	
14	0	0	0	0	503	413	
15	0	0	0	0	503	413	
0	0	0	0	0	502	413	
1	0	0	0	0	502	413	
2	0	0	0	0	502	413	
3	0	0	0	0	502	413	
4	0	0	0	0	502	413	
5	0	0	0	0	502	413	
6	0	0	0	0	503	413	
7	0	0	0	0	503	413	
8	0	0	0	0	504	413	
9	0	0	0	0	504	413	
10	0	0	0	0	504	413	
11	0	0	0	0	504	413	
12	0	0	0	0	503	413	
13	0	0	0	0	501	413	
14	0	0	0	0	500	414	
15	0	0	0	0	500	414	
0	0	0	0	0	499	414	
1	0	0	0	0	499	414	
2	0	0	0	0	498	414	
3	0	0	0	0	498	413	
4	0	0	0	0	499	414	
5	0	0	0	0	499	414	
6	0	0	0	0	500	414	
7	0	0	0	0	499	414	
8	0	0	0	0	499	414	
9	0	0	0	0	499	414	
10	0	0	0	0	499	414	
11	0	0	0	0	499	414	
12	0	0	0	0	499	414	
13	0	0	0	0	499	414	
14	0	0	0	0	499	414	
15	0	0	0	0	498	414	
0	0	0	0	0	498	414	
1	0	0	0	0	498	414	
2	0	0	0	0	498	414	
3	0	0	0	0	499	414	
4	0	0	0	0	499	414	
5	0	0	0	0	500	414	
6	0	0	0	0	501	414	
7	0	0	0	0	502	414	
8	0	0	0	0	501	414	
9	0	0	0	0	501	414	
10	0	0	0	0	500	414	
11	0	0	0	0	501	414	
12	0	0	0	0	501	414	
13	0	0	0	0	501	414	
14	0	0	0	0	501	415	
15	0	0	0	0	501	414	
0	0	0	0	0	500	415	
1	0	0	0	0	500	414	
2	0	0	0	0	500	414	
3	0	0	0	0	501	415	
4	0	0	0	0	500	414	
5	0	0	0	0	501	415	
6	0	0	0	0	502	415	
7	0	0	0	0	504	415	
8	0	0	0	0	503	415	
9	0	0	0	0	503	415	
10	0	0	0	0	503	415	
11	0	0	0	0	502	415	
12	0	0	0	0	502	415	
13	0	0	0	0	502	415	
14	0	0	0	0	501	415	
15	0	0	0	0	502	415	
0	0	0	0	0	502	415	
1	0	0	0	0	501	415	
2	0	0	0	0	501	415	
3	0	0	0	0	501	415	
4	0	0	0	0	501	415	
5	0	0	0	0	502	415	
6	0	0	0	0	502	415	
7	0	0	0	0	503	415	
8	0	0	0	0	503	415	
9	0	0	0	0	503	415	
10	0	0	0	0	503	415	
11	0	0	0	0	503	415	
12	0	0	0	0	503	415	
13	0	0	0	0	504	415	
14	0	0	0	0	505	415	
15	0	0	0	0	505	415	
0	0	0	0	0	505	415	
1	0	0	0	0	505	415	
2	0	0	0	0	505	415	
3	0	0	0	0	506	415	
4	0	0	0	0	506	415	
5	0	0	0	0	507	415	
6	0	0	0	0	508	415	
7	0	0	0	0	508	415	
8	0	0	0	0	510	415	
9	0	0	0	0	512	415	
10	0	0	0	0	512	415	
11	0	0	0	0	512	415	
12	0	0	0	0	512	415	
13	0	0	0	0	512	415	
14	0	0	0	0	512	415	
15	0	0	0	0	512	415	
0	0	0	0	0	512	415	
1	0	0	0	0	512	416	
2	0	0	0	0	512	415	
3	0	0	0	0	512	415	
4	0	0	0	0	512	416	
5	0	0	0	0	513	416	
6	0	0	0	0	513	416	
7	0	0	0	0	515	415	
8	0	0	0	0	515	415	
9	0	0	0	0	516	416	
10	0	0	0	0	516	415	
11	0	0	0	0	517	415	
12	0	0	0	0	517	415	
13	0	0	0	0	518	416	
14	0	0	0	0	518	416	
15	0	0	0	0	519	416	
0	0	0	0	0	519	416	
1	0	0	0	0	520	416	
2	0	0	0	0	521	416	
3	0	0	0	0	521	416	
4	0	0	0	0	521	416	
5	0	0	0	0	522	416	
6	0	0	0	0	522	416	
7	0	0	0	0	523	416	
8	0	0	0	0	524	416	
9	0	0	0	0	525	416	
10	0	0	0	0	526	416	
11	0	0	0	0	527	416	
12	0	0	0	0	527	416	
13	0	0	0	0	528	416	
14	0	0	0	0	528	416	
15	0	0	0	0	527	416	
0	0	0	0	0	528	416	
1	0	0	0	0	527	416	
2	0	0	0	0	527	416	
3	0	0	0	0	526	416	
4	0	0	0	0	525	416	
5	0	0	0	0	525	416	
6	0	0	0	0	527	416	
7	0	0	0	0	527	416	
8	0	0	0	0	527	416	
9	0	0	0	0	527	416	
10	0	0	0	0	528	416	
11	0	0	0	0	528	416	
12	0	0	0	0	528	416	
13	0	0	0	0	529	416	
14	0	0	0	0	529	416	
15	0	0	0	0	529	416	
0	0	0	0	0	529	417	
1	0	0	0	0	528	417	
2	0	0	0	0	528	417	
3	0	0	0	0	527	417	
4	0	0	0	0	526	416	
5	0	0	0	0	526	416	
6	0	0	0	0	525	416	
7	0	0	0	0	524	417	
8	0	0	0	0	524	417	
9	0	0	0	0	523	416	
10	0	0	0	0	523	416	
11	0	0	0	0	524	416	
12	0	0	0	0	524	417	
13	0	0	0	0	524	417	
14	0	0	0	0	524	417	
15	0	0	0	0	523	417	
0	0	0	0	0	523	417	
1	0	0	0	0	523	417	
2	0	0	0	0	522	417	
3	0	0	0	0	522	417	
4	0	0	0	0	521	417	
5	0	0	0	0	520	417	
6	0	0	0	0	519	417	
7	0	0	0	0	519	417	
8	0	0	0	0	519	417	
9	0	0	0	0	519	417	
10	0	0	0	0	520	417	
11	0	0	0	0	521	417	
12	0	0	0	0	521	417	
13	0	0	0	0	521	417	
14	0	0	0	0	521	417	
15	0	0	0	0	522	417	
0	0	0	0	0	522	417	
1	0	0	0	0	522	417	
2	0	0	0	0	523	417	
3	0	0	0	0	522	417	
4	0	0	0	0	523	417	
5	0	0	0	0	522	417	
6	0	0	0	0	522	417	
7	0	0	0	0	521	417	
8	0	0	0	0	521	417	
9	0	0	0	0	521	417	
10	0	0	0	0	523	417	
11	0	0	0	0	522	417	
12	0	0	0	0	523	417	
13	0	0	0	0	523	417	
14	0	0	0	0	523	417	
15	0	0	0	0	523	417	
0	0	0	0	0	523	417	
1	0	0	0	0	522	417	
2	0	0	0	0	522	417	
3	0	0	0	0	522	417	
4	0	0	0	0	522	417	
5	0	0	0	0	521	417	
6	0	0	0	0	520	417	
7	0	0	0	0	519	417	
8	0	0	0	0	519	417	
9	0	0	0	0	519	417	
10	0	0	0	0	518	417	
11	0	0	0	0	519	417	
12	0	0	0	0	519	417	
13	0	0	0	0	519	418	
14	0	0	0	0	520	418	
15	0	0	0	0	520	417	
0	0	0	0	0	520	417	
1	0	0	0	0	519	417	
2	0	0	0	0	519	417	
3	0	0	0	0	519	418	
4	0	0	0	0	519	418	
5	0	0	0	0	519	418	
6	0	0	0	0	519	418	
7	0	0	0	0	519	418	
8	0	0	0	0	519	418	
9	0	0	0	0	518	418	
10	0	0	0	0	519	418	
11	0	0	0	0	519	418	
12	0	0	0	0	520	418	
13	0	0	0	0	520	418	
14	0	0	0	0	520	418	
15	0	0	0	0	520	418	
0	0	0	0	0	520	418	
1	0	0	0	0	521	418	
2	0	0	0	0	521	418	
3	0	0	0	0	520	418	
4	0	0	0	0	519	418	
5	0	0	0	0	518	418	
6	0	0	0	0	516	418	
7	0	0	0	0	515	418	
8	0	0	0	0	515	418	
9	0	0	0	0	515	418	
10	0	0	0	0	514	418	
11	0	0	0	0	514	418	
12	0	0	0	0	514	418	
13	0	0	0	0	514	418	
14	0	0	0	0	514	418	
15	0	0	0	0	514	418	
0	0	0	0	0	513	418	
1	0	0	0	0	514	418	
2	0	0	0	0	513	418	
3	0	0	0	0	514	418	
4	0	0	0	0	514	418	
5	0	0	0	0	514	418	
6	0	0	0	0	514	418	
7	0	0	0	0	513	418	
8	0	0	0	0	512	418	
9	0	0	0	0	512	418	
10	0	0	0	0	512	418	
11	0	0	0	0	512	418	
12	0	0	0	0	512	418	
13	0	0	0	0	512	418	
14	0	0	0	0	512	418	
15	0	0	0	0	514	418	
0	0	0	0	0	515	418	
1	0	0	0	0	515	418	
2	0	0	0	0	515	418	
3	0	0	0	0	515	418	
4	0	0	0	0	515	418	
5	0	0	0	0	514	418	
6	0	0	0	0	513	418	
7	0	0	0	0	512	418	
8	0	0	0	0	511	419	
9	0	0	0	0	511	419	
10	0	0	0	0	511	419	
11	0	0	0	0	511	419	
12	0	0	0	0	511	419	
13	0	0	0	0	511	419	
14	0	0	0	0	512	419	
15	0	0	0	0	512	419	
0	0	0	0	0	512	419	
1	0	0	0	0	512	419	
2	0	0	0	0	511	419	
3	0	0	0	0	511	419	
4	0	0	0	0	511	419	
5	0	0	0	0	512	419	
6	0	0	0	0	511	419	
7	0	0	0	0	511	419	
8	0	0	0	0	510	419	
9	0	0	0	0	509	419	
10	0	0	0	0	509	419	
11	0	0	0	0	509	419	
12	0	0	0	0	509	419	
13	0	0	0	0	509	419	
14	0	0	0	0	509	419	
15	0	0	0	0	510	419	
0	0	0	0	0	511	419	
1	0	0	0	0	512	419	
2	0	0	0	0	512	419	
3	0	0	0	0	512	419	
4	0	0	0	0	512	419	
5	0	0	0	0	511	419	
6	0	0	0	0	511	419	
7	0	0	0	0	511	419	
8	0	0	0	0	509	419	
9	0	0	0	0	509	419	
10	0	0	0	0	509	419	
11	0	0	0	0	508	419	
12	0	0	0	0	507	419	
13	0	0	0	0	508	419	
14	0	0	0	0	508	419	
15	0	0	0	0	509	419	
0	0	0	0	0	510	419	
1	0	0	0	0	510	419	
2	0	0	0	0	511	419	
3	0	0	0	0	511	419	
4	0	0	0	0	512	419	
5	0	0	0	0	512	419	
6	0	0	0	0	512	419	
7	0	0	0	0	512	419	
8	0	0	0	0	512	419	
9	0	0	0	0	512	419	
10	0	0	0	0	511	419	
11	0	0	0	0	511	419	
12	0	0	0	0	511	419	
13	0	0	0	0	511	419	
14	0	0	0	0	512	419	
15	0	0	0	0	512	419	
0	0	0	0	0	513	419	
1	0	0	0	0	513	419	
2	0	0	0	0	514	419	
3	0	0	0	0	515	419	
4	0	0	0	0	515	419	
5	0	0	0	0	515	419	
6	0	0	0	0	515	419	
7	0	0	0	0	515	419	
8	0	0	0	0	515	419	
9	0	0	0	0	515	419	
10	0	0	0	0	515	419	
11	0	0	0	0	514	419	
12	0	0	0	0	514	419	
13	0	0	0	0	514	419	
14	0	0	0	0	514	419	
15	0	0	0	0	514	419	
0	0	0	0	0	514	419	
1	0	0	0	0	515	419	
2	0	0	0	0	516	419	
3	0	0	0	0	516	419	
4	0	0	0	0	517	419	
5	0	0	0	0	517	419	
6	0	0	0	0	516	419	
7	0	0	0	0	516	419	
8	0	0	0	0	516	419	
9	0	0	0	0	516	419	
10	0	0	0	0	516	419	
11	0	0	0	0	515	419	
12	0	0	0	0	514	419	
13	0	0	0	0	515	419	
14	0	0	0	0	515	419	
15	0	0	0	0	515	419	
0	0	0	0	0	515	419	
1	0	0	0	0	516	419	
2	0	0	0	0	517	419	
3	0	0	0	0	518	419	
4	0	0	0	0	518	419	
5	0	0	0	0	519	419	
6	0	0	0	0	519	419	
7	0	0	0	0	520	419	
8	0	0	0	0	519	419	
9	0	0	0	0	518	419	
10	0	0	0	0	518	419	
11	0	0	0	0	517	419	
12	0	0	0	0	516	419	
13	0	0	0	0	516	419	
14	0	0	0	0	516	420	
15	0	0	0	0	516	419	
0	0	0	0	0	516	419	
1	0	0	0	0	515	419	
2	0	0	0	0	515	420	
3	0	0	0	0	516	420	
4	0	0	0	0	516	419	
5	0	0	0	0	517	420	
6	0	0	0	0	517	419	
7	0	0	0	0	518	420	
8	0	0	0	0	517	420	
9	0	0	0	0	517	420	
10	0	0	0	0	516	420	
11	0	0	0	0	516	420	
12	0	0	0	0	516	420	
13	0	0	0	0	515	420	
14	0	0	0	0	515	420	
15	0	0	0	0	515	420	
0	0	0	0	0	515	420	
1	0	0	0	0	515	420	
2	0	0	0	0	514	420	
3	0	0	0	0	514	420	
4	0	0	0	0	515	420	
5	0	0	0	0	515	420	
6	0	0	0	0	516	420	
7	0	0	0	0	516	420	
8	0	0	0	0	515	420	
9	0	0	0	0	515	420	
10	0	0	0	0	514	420	
11	0	0	0	0	513	420	
12	0	0	0	0	511	420	
13	0	0	0	0	511	420	
14	0	0	0	0	510	420	
15	0	0	0	0	509	420	
0	0	0	0	0	508	420	
1	0	0	0	0	508	420	
2	0	0	0	0	509	420	
3	0	0	0	0	509	420	
4	0	0	0	0	510	420	
5	0	0	0	0	510	420	
6	0	0	0	0	511	420	
7	0	0	0	0	511	420	
8	0	0	0	0	511	420	
9	0	0	0	0	511	420	
10	0	0	0	0	512	420	
11	0	0	0	0	512	420	
12	0	0	0	0	512	420	
13	0	0	0	0	513	420	
14	0	0	0	0	513	420	
15	0	0	0	0	513	420	
0	0	0	0	0	512	420	
1	0	0	0	0	511	420	
2	0	0	0	0	512	420	
3	0	0	0	0	512	420	
4	0	0	0	0	513	420	
5	0	0	0	0	514	420	
6	0	0	0	0	515	420	
7	0	0	0	0	515	420	
8	0	0	0	0	515	420	
9	0	0	0	0	515	420	
10	0	0	0	0	516	420	
11	0	0	0	0	516	420	
12	0	0	0	0	516	420	
13	0	0	0	0	516	420	
14	0	0	0	0	516	420	
15	0	0	0	0	516	420	
0	0	0	0	0	516	420	
1	0	0	0	0	517	420	
2	0	0	0	0	518	420	
3	0	0	0	0	517	420	
4	0	0	0	0	518	420	
5	0	0	0	0	518	420	
6	0	0	0	0	517	420	
7	0	0	0	0	518	420	
8	0	0	0	0	517	420	
9	0	0	0	0	517	420	
10	0	0	0	0	516	420	
11	0	0	0	0	516	420	
12	0	0	0	0	516	420	
13	0	0	0	0	517	420	
14	0	0	0	0	516	420	
15	0	0	0	0	517	420	
0	0	0	0	0	517	420	
1	0	0	0	0	516	420	
2	0	0	0	0	517	420	
3	0	0	0	0	518	420	
4	0	0	0	0	518	420	
5	0	0	0	0	519	420	
6	0	0	0	0	520	420	
7	0	0	0	0	522	420	
8	0	0	0	0	523	420	
9	0	0	0	0	523	420	
10	0	0	0	0	523	420	
11	0	0	0	0	522	420	
12	0	0	0	0	522	420	
13	0	0	0	0	522	420	
14	0	0	0	0	523	420	
15	0	0	0	0	521	420	
0	0	0	0	0	520	421	
1	0	0	0	0	520	421	
2	0	0	0	0	520	420	
3	0	0	0	0	520	421	
4	0	0	0	0	519	420	
5	0	0	0	0	519	420	
6	0	0	0	0	520	421	
7	0	0	0	0	520	420	
8	0	0	0	0	522	420	
9	0	0	0	0	523	421	
10	0	0	0	0	523	420	
11	0	0	0	0	523	420	
12	0	0	0	0	522	421	
13	0	0	0	0	523	421	
14	0	0	0	0	522	421	
15	0	0	0	0	521	421	
0	0	0	0	0	521	421	
1	0	0	0	0	520	421	
2	0	0	0	0	520	421	
3	0	0	0	0	521	421	
4	0	0	0	0	521	421	
5	0	0	0	0	521	421	
6	0	0	0	0	521	421	
7	0	0	0	0	522	421	
8	0	0	0	0	522	421	
9	0	0	0	0	523	421	
10	0	0	0	0	524	421	
11	0	0	0	0	523	421	
12	0	0	0	0	522	421	
13	0	0	0	0	522	421	
14	0	0	0	0	521	421	
15	0	0	0	0	520	421	
0	0	0	0	0	519	421	
1	0	0	0	0	518	421	
2	0	0	0	0	519	421	
3	0	0	0	0	519	421	
4	0	0	0	0	519	421	
5	0	0	0	0	518	421	
6	0	0	0	0	518	421	
7	0	0	0	0	519	421	
8	0	0	0	0	519	421	
9	0	0	0	0	519	421	
10	0	0	0	0	519	421	
11	0	0	0	0	519	421	
12	0	0	0	0	519	421	
13	0	0	0	0	518	421	
14	0	0	0	0	519	421	
15	0	0	0	0	519	421	
0	0	0	0	0	518	421	
1	0	0	0	0	518	421	
2	0	0	0	0	518	421	
3	0	0	0	0	517	421	
4	0	0	0	0	517	421	
5	0	0	0	0	516	421	
6	0	0	0	0	516	421	
7	0	0	0	0	516	421	
8	0	0	0	0	517	421	
9	0	0	0	0	519	421	
10	0	0	0	0	520	421	
11	0	0	0	0	520	421	
12	0	0	0	0	519	421	
13	0	0	0	0	519	421	
14	0	0	0	0	519	421	
15	0	0	0	0	519	421	
0	0	0	0	0	519	421	
1	0	0	0	0	518	421	
2	0	0	0	0	518	421	
3	0	0	0	0	517	421	
4	0	0	0	0	516	421	
5	0	0	0	0	516	421	
6	0	0	0	0	516	421	
7	0	0	0	0	516	421	
8	0	0	0	0	516	421	
9	0	0	0	0	516	421	
10	0	0	0	0	518	421	
11	0	0	0	0	519	421	
12	0	0	0	0	520	421	
13	0	0	0	0	521	421	
14	0	0	0	0	521	421	
15	0	0	0	0	521	421	
0	0	0	0	0	521	421	
1	0	0	0	0	521	421	
2	0	0	0	0	521	421	
3	0	0	0	0	519	421	
4	0	0	0	0	518	421	
5	0	0	0	0	515	421	
6	0	0	0	0	513	421	
7	0	0	0	0	512	421	
8	0	0	0	0	510	421	
9	0	0	0	0	508	421	
10	0	0	0	0	506	421	
11	0	0	0	0	504	421	
12	0	0	0	0	503	421	
13	0	0	0	0	501	421	
14	0	0	0	0	500	421	
15	0	0	0	0	498	421	
0	0	0	0	0	496	421	
1	0	0	0	0	494	421	
2	0	0	0	0	492	421	
3	0	0	0	0	489	421	
4	0	0	0	0	488	421	
5	0	0	0	0	488	421	
6	0	0	0	0	489	421	
7	0	0	0	0	491	421	
8	0	0	0	0	493	421	
9	0	0	0	0	494	421	
10	0	0	0	0	494	421	
11	0	0	0	0	495	421	
12	0	0	0	0	497	421	
13	0	0	0	0	498	421	
14	0	0	0	0	499	421	
15	0	0	0	0	500	421	
0	0	0	0	0	500	421	
1	0	0	0	0	500	421	
2	0	0	0	0	500	421	
3	0	0	0	0	499	421	
4	0	0	0	0	499	421	
5	0	0	0	0	499	421	
6	0	0	0	0	499	421	
7	0	0	0	0	501	421	
8	0	0	0	0	503	421	
9	0	0	0	0	505	421	
10	0	0	0	0	508	421	
11	0	0	0	0	510	421	
12	0	0	0	0	513	421	
13	0	0	0	0	515	421	
14	0	0	0	0	518	421	
15	0	0	0	0	518	421	
0	0	0	0	0	519	421	
1	0	0	0	0	519	421	
2	0	0	0	0	520	421	
3	0	0	0	0	521	421	
4	0	0	0	0	521	421	
5	0	0	0	0	522	421	
6	0	0	0	0	523	421	
7	0	0	0	0	523	421	
8	0	0	0	0	523	421	
9	0	0	0	0	523	421	
10	0	0	0	0	523	421	
11	0	0	0	0	524	421	
12	0	0	0	0	524	421	
13	0	0	0	0	524	421	
14	0	0	0	0	524	421	
15	0	0	0	0	523	421	
0	0	0	0	0	523	421	
1	0	0	0	0	522	421	
2	0	0	0	0	522	421	
3	0	0	0	0	520	421	
4	0	0	0	0	519	421	
5	0	0	0	0	518	421	
6	0	0	0	0	516	421	
7	0	0	0	0	514	421	
8	0	0	0	0	513	421	
9	0	0	0	0	512	421	
10	0	0	0	0	511	421	
11	0	0	0	0	510	421	
12	0	0	0	0	511	421	
13	0	0	0	0	511	421	
14	0	0	0	0	510	421	
15	0	0	0	0	510	421	
0	0	0	0	0	508	421	
1	0	0	0	0	508	421	
2	0	0	0	0	508	421	
3	0	0	0	0	507	421	
4	0	0	0	0	507	421	
5	0	0	0	0	506	421	
6	0	0	0	0	505	421	
7	0	0	0	0	505	421	
8	0	0	0	0	504	421	
9	0	0	0	0	504	421	
10	0	0	0	0	504	421	
11	0	0	0	0	504	421	
12	0	0	0	0	504	421	
13	0	0	0	0	504	421	
14	0	0	0	0	506	421	
15	0	0	0	0	506	421	
0	0	0	0	0	507	421	
1	0	0	0	0	508	421	
2	0	0	0	0	509	421	
3	0	0	0	0	508	421	
4	0	0	0	0	509	421	
5	0	0	0	0	510	421	
6	0	0	0	0	510	421	
7	0	0	0	0	510	421	
8	0	0	0	0	510	421	
9	0	0	0	0	510	421	
10	0	0	0	0	510	421	
11	0	0	0	0	510	421	
12	0	0	0	0	510	421	
13	0	0	0	0	510	421	
14	0	0	0	0	510	421	
15	0	0	0	0	510	421	
0	0	0	0	0	511	421	
1	0	0	0	0	512	421	
2	0	0	0	0	512	421	
3	0	0	0	0	511	421	
4	0	0	0	0	511	421	
5	0	0	0	0	512	421	
6	0	0	0	0	511	421	
7	0	0	0	0	511	421	
8	0	0	0	0	510	421	
9	0	0	0	0	509	421	
10	0	0	0	0	508	421	
11	0	0	0	0	508	421	
12	0	0	0	0	508	421	
13	0	0	0	0	508	421	
14	0	0	0	0	508	421	
15	0	0	0	0	510	421	
0	0	0	0	0	510	421	
1	0	0	0	0	510	421	
2	0	0	0	0	510	421	
3	0	0	0	0	511	421	
4	0	0	0	0	510	421	
5	0	0	0	0	510	421	
6	0	0	0	0	509	421	
7	0	0	0	0	509	421	
8	0	0	0	0	510	421	
9	0	0	0	0	509	421	
10	0	0	0	0	509	421	
11	0	0	0	0	509	421	
12	0	0	0	0	508	421	
13	0	0	0	0	509	421	
14	0	0	0	0	510	421	
15	0	0	0	0	511	421	
0	0	0	0	0	511	421	
1	0	0	0	0	511	421	
2	0	0	0	0	511	421	
3	0	0	0	0	511	421	
4	0	0	0	0	511	421	
5	0	0	0	0	512	421	
6	0	0	0	0	511	421	
7	0	0	0	0	510	421	
8	0	0	0	0	509	421	
9	0	0	0	0	508	421	
10	0	0	0	0	508	421	
11	0	0	0	0	507	421	
12	0	0	0	0	507	421	
13	0	0	0	0	508	421	
14	0	0	0	0	507	421	
15	0	0	0	0	508	421	
0	0	0	0	0	508	421	
1	0	0	0	0	506	421	
2	0	0	0	0	507	421	
3	0	0	0	0	506	421	
4	0	0	0	0	506	421	
5	0	0	0	0	505	421	
6	0	0	0	0	505	421	
7	0	0	0	0	505	421	
8	0	0	0	0	504	421	
9	0	0	0	0	503	421	
10	0	0	0	0	502	421	
11	0	0	0	0	502	421	
12	0	0	0	0	501	421	
13	0	0	0	0	501	421	
14	0	0	0	0	501	421	
15	0	0	0	0	502	421	
0	0	0	0	0	501	421	
1	0	0	0	0	500	421	
2	0	0	0	0	501	421	
3	0	0	0	0	500	421	
4	0	0	0	0	500	421	
5	0	0	0	0	500	421	
6	0	0	0	0	500	421	
7	0	0	0	0	499	421	
8	0	0	0	0	498	421	
9	0	0	0	0	499	421	
10	0	0	0	0	498	421	
11	0	0	0	0	497	421	
12	0	0	0	0	498	421	
13	0	0	0	0	498	421	
14	0	0	0	0	498	421	
15	0	0	0	0	498	421	
0	0	0	0	0	499	421	
1	0	0	0	0	499	421	
2	0	0	0	0	500	421	
3	0	0	0	0	500	421	
4	0	0	0	0	501	421	
5	0	0	0	0	502	421	
6	0	0	0	0	501	421	
7	0	0	0	0	501	421	
8	0	0	0	0	500	421	
9	0	0	0	0	499	421	
10	0	0	0	0	499	421	
11	0	0	0	0	500	421	
12	0	0	0	0	499	421	
13	0	0	0	0	497	421	
14	0	0	0	0	498	421	
15	0	0	0	0	498	421	
0	0	0	0	0	499	421	
1	0	0	0	0	499	421	
2	0	0	0	0	499	421	
3	0	0	0	0	499	421	
4	0	0	0	0	499	421	
5	0	0	0	0	499	421	
6	0	0	0	0	499	421	
7	0	0	0	0	499	421	
8	0	0	0	0	499	421	
9	0	0	0	0	499	421	
10	0	0	0	0	499	421	
11	0	0	0	0	498	421	
12	0	0	0	0	498	421	
13	0	0	0	0	496	421	
14	0	0	0	0	496	421	
15	0	0	0	0	496	421	
0	0	0	0	0	495	421	
1	0	0	0	0	495	421	
2	0	0	0	0	496	421	
3	0	0	0	0	496	421	
4	0	0	0	0	496	421	
5	0	0	0	0	496	421	
6	0	0	0	0	496	421	
7	0	0	0	0	496	421	
8	0	0	0	0	496	421	
9	0	0	0	0	497	421	
10	0	0	0	0	498	421	
11	0	0	0	0	497	421	
12	0	0	0	0	497	421	
13	0	0	0	0	497	421	
14	0	0	0	0	497	421	
15	0	0	0	0	497	421	
0	0	0	0	0	496	421	
1	0	0	0	0	497	421	
2	0	0	0	0	497	421	
3	0	0	0	0	496	421	
4	0	0	0	0	497	421	
5	0	0	0	0	498	421	
6	0	0	0	0	499	421	
7	0	0	0	0	499	421	
8	0	0	0	0	499	421	
9	0	0	0	0	499	421	
10	0	0	0	0	501	421	
11	0	0	0	0	501	421	
12	0	0	0	0	501	421	
13	0	0	0	0	500	421	
14	0	0	0	0	500	421	
15	0	0	0	0	499	421	
0	0	0	0	0	499	421	
1	0	0	0	0	499	421	
2	0	0	0	0	499	421	
3	0	0	0	0	500	421	
4	0	0	0	0	500	421	
5	0	0	0	0	501	421	
6	0	0	0	0	502	421	
7	0	0	0	0	503	421	
8	0	0	0	0	504	421	
9	0	0	0	0	504	421	
10	0	0	0	0	504	421	
11	0	0	0	0	504	421	
12	0	0	0	0	504	421	
13	0	0	0	0	504	421	
14	0	0	0	0	504	421	
15	0	0	0	0	504	421	
0	0	0	0	0	504	421	
1	0	0	0	0	504	421	
2	0	0	0	0	504	421	
3	0	0	0	0	505	421	
4	0	0	0	0	507	421	
5	0	0	0	0	508	421	
6	0	0	0	0	509	421	
7	0	0	0	0	510	421	
8	0	0	0	0	511	421	
9	0	0	0	0	512	421	
10	0	0	0	0	512	421	
11	0	0	0	0	513	421	
12	0	0	0	0	512	421	
13	0	0	0	0	512	421	
14	0	0	0	0	512	421	
15	0	0	0	0	512	421	
0	0	0	0	0	512	421	
1	0	0	0	0	512	421	
2	0	0	0	0	513	421	
3	0	0	0	0	514	421	
4	0	0	0	0	515	421	
5	0	0	0	0	516	421	
6	0	0	0	0	517	421	
7	0	0	0	0	518	421	
8	0	0	0	0	519	421	
9	0	0	0	0	520	421	
10	0	0	0	0	521	421	
11	0	0	0	0	521	421	
12	0	0	0	0	521	421	
13	0	0	0	0	521	421	
14	0	0	0	0	521	421	
15	0	0	0	0	521	421	
0	0	0	0	0	522	421	
1	0	0	0	0	523	421	
2	0	0	0	0	523	421	
3	0	0	0	0	524	421	
4	0	0	0	0	524	421	
5	0	0	0	0	524	421	
6	0	0	0	0	524	421	
7	0	0	0	0	525	421	
8	0	0	0	0	525	421	
9	0	0	0	0	526	421	
10	0	0	0	0	526	421	
11	0	0	0	0	526	421	
12	0	0	0	0	526	421	
13	0	0	0	0	526	421	
14	0	0	0	0	526	421	
15	0	0	0	0	526	421	
0	0	0	0	0	526	421	
1	0	0	0	0	526	421	
2	0	0	0	0	526	421	
3	0	0	0	0	526	421	
4	0	0	0	0	525	421	
5	0	0	0	0	525	421	
6	0	0	0	0	525	421	
7	0	0	0	0	526	421	
8	0	0	0	0	527	421	
9	0	0	0	0	527	421	
10	0	0	0	0	528	421	
11	0	0	0	0	529	421	
12	0	0	0	0	529	421	
13	0	0	0	0	530	421	
14	0	0	0	0	530	421	
15	0	0	0	0	530	421	
0	0	0	0	0	530	421	
1	0	0	0	0	531	421	
2	0	0	0	0	530	421	
3	0	0	0	0	529	421	
4	0	0	0	0	528	421	
5	0	0	0	0	528	421	
6	0	0	0	0	529	421	
7	0	0	0	0	529	421	
8	0	0	0	0	529	421	
9	0	0	0	0	531	421	
10	0	0	0	0	531	421	
11	0	0	0	0	531	421	
12	0	0	0	0	531	421	
13	0	0	0	0	531	421	
14	0	0	0	0	532	421	
15	0	0	0	0	532	421	
0	0	0	0	0	532	421	
1	0	0	0	0	531	421	
2	0	0	0	0	531	421	
3	0	0	0	0	531	421	
4	0	0	0	0	532	421	
5	0	0	0	0	532	421	
6	0	0	0	0	532	421	
7	0	0	0	0	532	421	
8	0	0	0	0	532	421	
9	0	0	0	0	532	421	
10	0	0	0	0	532	421	
11	0	0	0	0	532	421	
12	0	0	0	0	532	421	
13	0	0	0	0	531	421	
14	0	0	0	0	531	421	
15	0	0	0	0	531	421	
0	0	0	0	0	530	421	
1	0	0	0	0	529	421	
2	0	0	0	0	528	421	
3	0	0	0	0	527	421	
4	0	0	0	0	527	421	
5	0	0	0	0	527	421	
6	0	0	0	0	526	421	
7	0	0	0	0	525	421	
8	0	0	0	0	526	421	
9	0	0	0	0	526	421	
10	0	0	0	0	526	421	
11	0	0	0	0	526	421	
12	0	0	0	0	525	421	
13	0	0	0	0	525	421	
14	0	0	0	0	525	421	
15	0	0	0	0	525	421	
0	0	0	0	0	525	421	
1	0	0	0	0	523	421	
2	0	0	0	0	522	421	
3	0	0	0	0	521	421	
4	0	0	0	0	520	421	
5	0	0	0	0	520	421	
6	0	0	0	0	519	421	
7	0	0	0	0	519	421	
8	0	0	0	0	519	421	
9	0	0	0	0	518	421	
10	0	0	0	0	519	421	
11	0	0	0	0	519	421	
12	0	0	0	0	519	421	
13	0	0	0	0	519	421	
14	0	0	0	0	519	421	
15	0	0	0	0	519	421	
0	0	0	0	0	519	421	
1	0	0	0	0	519	421	
2	0	0	0	0	518	421	
3	0	0	0	0	518	421	
4	0	0	0	0	517	421	
5	0	0	0	0	517	421	
6	0	0	0	0	517	421	
7	0	0	0	0	517	421	
8	0	0	0	0	517	421	
9	0	0	0	0	518	421	
10	0	0	0	0	518	421	
11	0	0	0	0	518	421	
12	0	0	0	0	519	421	
13	0	0	0	0	518	421	
14	0	0	0	0	518	421	
15	0	0	0	0	518	421	
0	0	0	0	0	518	421	
1	0	0	0	0	517	421	
2	0	0	0	0	517	421	
3	0	0	0	0	516	421	
4	0	0	0	0	515	421	
5	0	0	0	0	515	421	
6	0	0	0	0	515	421	
7	0	0	0	0	515	421	
8	0	0	0	0	515	421	
9	0	0	0	0	515	421	
10	0	0	0	0	515	421	
11	0	0	0	0	514	421	
12	0	0	0	0	515	421	
13	0	0	0	0	515	421	
14	0	0	0	0	515	421	
15	0	0	0	0	515	421	
0	0	0	0	0	513	421	
1	0	0	0	0	513	421	
2	0	0	0	0	513	421	
3	0	0	0	0	512	421	
4	0	0	0	0	512	421	
5	0	0	0	0	512	421	
6	0	0	0	0	512	421	
7	0	0	0	0	511	421	
8	0	0	0	0	512	421	
9	0	0	0	0	512	421	
10	0	0	0	0	513	421	
11	0	0	0	0	514	421	
12	0	0	0	0	514	421	
13	0	0	0	0	513	421	
14	0	0	0	0	513	421	
15	0	0	0	0	513	421	
0	0	0	0	0	513	421	
1	0	0	0	0	512	421	
2	0	0	0	0	512	421	
3	0	0	0	0	511	421	
4	0	0	0	0	510	421	
5	0	0	0	0	510	421	
6	0	0	0	0	511	421	
7	0	0	0	0	511	421	
8	0	0	0	0	511	421	
9	0	0	0	0	511	421	
10	0	0	0	0	510	421	
11	0	0	0	0	509	421	
12	0	0	0	0	509	421	
13	0	0	0	0	510	421	
14	0	0	0	0	509	421	
15	0	0	0	0	509	421	
0	0	0	0	0	509	421	
1	0	0	0	0	508	421	
2	0	0	0	0	508	421	
3	0	0	0	0	508	421	
4	0	0	0	0	508	421	
5	0	0	0	0	508	421	
6	0	0	0	0	508	421	
7	0	0	0	0	508	421	
8	0	0	0	0	508	421	
9	0	0	0	0	508	421	
10	0	0	0	0	507	421	
11	0	0	0	0	506	421	
12	0	0	0	0	507	421	
13	0	0	0	0	508	421	
14	0	0	0	0	508	421	
15	0	0	0	0	508	421	
0	0	0	0	0	508	421	
1	0	0	0	0	509	421	
2	0	0	0	0	509	421	
3	0	0	0	0	509	421	
4	0	0	0	0	508	421	
5	0	0	0	0	508	421	
6	0	0	0	0	507	421	
7	0	0	0	0	507	421	
8	0	0	0	0	505	421	
9	0	0	0	0	506	421	
10	0	0	0	0	505	421	
11	0	0	0	0	505	421	
12	0	0	0	0	506	421	
13	0	0	0	0	507	421	
14	0	0	0	0	508	421	
15	0	0	0	0	509	421	
0	0	0	0	0	509	421	
1	0	0	0	0	509	421	
2	0	0	0	0	509	421	
3	0	0	0	0	510	421	
4	0	0	0	0	510	421	
5	0	0	0	0	510	421	
6	0	0	0	0	510	421	
7	0	0	0	0	510	421	
8	0	0	0	0	509	421	
9	0	0	0	0	509	421	
10	0	0	0	0	510	421	
11	0	0	0	0	509	421	
12	0	0	0	0	509	421	
13	0	0	0	0	510	421	
14	0	0	0	0	510	421	
15	0	0	0	0	510	421	
0	0	0	0	0	510	421	
1	0	0	0	0	510	421	
2	0	0	0	0	510	421	
3	0	0	0	0	510	421	
4	0	0	0	0	510	421	
5	0	0	0	0	508	421	
6	0	0	0	0	508	421	
7	0	0	0	0	508	421	
8	0	0	0	0	508	421	
9	0	0	0	0	508	422	
10	0	0	0	0	508	421	
11	0	0	0	0	507	421	
12	0	0	0	0	508	421	
13	0	0	0	0	508	421	
14	0	0	0	0	508	421	
15	0	0	0	0	509	421	
0	0	0	0	0	510	421	
1	0	0	0	0	511	421	
2	0	0	0	0	511	421	
3	0	0	0	0	510	421	
4	0	0	0	0	510	421	
5	0	0	0	0	509	421	
6	0	0	0	0	509	421	
7	0	0	0	0	508	421	
8	0	0	0	0	508	422	
9	0	0	0	0	508	422	
10	0	0	0	0	508	421	
11	0	0	0	0	507	421	
12	0	0	0	0	508	421	
13	0	0	0	0	508	421	
14	0	0	0	0	508	421	
15	0	0	0	0	509	421	
0	0	0	0	0	511	421	
1	0	0	0	0	511	421	
2	0	0	0	0	512	421	
3	0	0	0	0	512	421	
4	0	0	0	0	512	421	
5	0	0	0	0	512	421	
6	0	0	0	0	512	421	
7	0	0	0	0	512	421	
8	0	0	0	0	512	422	
9	0	0	0	0	512	422	
10	0	0	0	0	513	422	
11	0	0	0	0	513	422	
12	0	0	0	0	513	422	
13	0	0	0	0	513	422	
14	0	0	0	0	513	422	
15	0	0	0	0	513	421	
0	0	0	0	0	514	422	
1	0	0	0	0	515	422	
2	0	0	0	0	515	422	
3	0	0	0	0	515	422	
4	0	0	0	0	516	422	
5	0	0	0	0	515	422	
6	0	0	0	0	515	421	
7	0	0	0	0	515	422	
8	0	0	0	0	515	422	
9	0	0	0	0	515	422	
10	0	0	0	0	514	422	
11	0	0	0	0	514	422	
12	0	0	0	0	513	422	
13	0	0	0	0	513	422	
14	0	0	0	0	512	422	
15	0	0	0	0	512	422	
0	0	0	0	0	512	421	
1	0	0	0	0	512	422	
2	0	0	0	0	513	422	
3	0	0	0	0	513	421	
4	0	0	0	0	514	422	
5	0	0	0	0	515	422	
6	0	0	0	0	515	422	
7	0	0	0	0	513	422	
8	0	0	0	0	512	422	
9	0	0	0	0	512	422	
10	0	0	0	0	511	422	
11	0	0	0	0	510	422	
12	0	0	0	0	509	422	
13	0	0	0	0	508	422	
14	0	0	0	0	507	422	
15	0	0	0	0	507	422	
0	0	0	0	0	507	422	
1	0	0	0	0	507	422	
2	0	0	0	0	507	421	
3	0	0	0	0	508	422	
4	0	0	0	0	508	422	
5	0	0	0	0	508	422	
6	0	0	0	0	508	422	
7	0	0	0	0	509	422	
8	0	0	0	0	509	422	
9	0	0	0	0	509	422	
10	0	0	0	0	509	422	
11	0	0	0	0	509	422	
12	0	0	0	0	509	422	
13	0	0	0	0	510	422	
14	0	0	0	0	510	422	
15	0	0	0	0	510	422	
0	0	0	0	0	510	422	
1	0	0	0	0	510	422	
2	0	0	0	0	510	422	
3	0	0	0	0	510	422	
4	0	0	0	0	509	422	
5	0	0	0	0	509	422	
6	0	0	0	0	509	422	
7	0	0	0	0	508	422	
8	0	0	0	0	507	422	
9	0	0	0	0	505	422	
10	0	0	0	0	504	422	
11	0	0	0	0	503	422	
12	0	0	0	0	502	422	
13	0	0	0	0	500	422	
14	0	0	0	0	500	422	
15	0	0	0	0	499	422	
0	0	0	0	0	499	422	
1	0	0	0	0	498	422	
2	0	0	0	0	499	422	
3	0	0	0	0	499	422	
4	0	0	0	0	499	422	
5	0	0	0	0	500	422	
6	0	0	0	0	500	422	
7	0	0	0	0	501	422	
8	0	0	0	0	502	422	
9	0	0	0	0	502	422	
10	0	0	0	0	502	422	
11	0	0	0	0	502	422	
12	0	0	0	0	501	422	
13	0	0	0	0	501	422	
14	0	0	0	0	501	422	
15	0	0	0	0	501	422	
0	0	0	0	0	501	422	
1	0	0	0	0	501	422	
2	0	0	0	0	500	422	
3	0	0	0	0	501	422	
4	0	0	0	0	502	422	
5	0	0	0	0	503	422	
6	0	0	0	0	503	422	
7	0	0	0	0	504	422	
8	0	0	0	0	505	422	
9	0	0	0	0	505	422	
10	0	0	0	0	506	422	
11	0	0	0	0	505	422	
12	0	0	0	0	504	422	
13	0	0	0	0	504	422	
14	0	0	0	0	504	422	
15	0	0	0	0	504	422	
0	0	0	0	0	504	422	
1	0	0	0	0	504	422	
2	0	0	0	0	504	422	
3	0	0	0	0	504	422	
4	0	0	0	0	504	422	
5	0	0	0	0	505	422	
6	0	0	0	0	505	422	
7	0	0	0	0	506	422	
8	0	0	0	0	506	422	
9	0	0	0	0	507	422	
10	0	0	0	0	507	422	
11	0	0	0	0	507	422	
12	0	0	0	0	507	422	
13	0	0	0	0	507	422	
14	0	0	0	0	508	422	
15	0	0	0	0	508	422	
0	0	0	0	0	509	422	
1	0	0	0	0	510	422	
2	0	0	0	0	511	422	
3	0	0	0	0	511	422	
4	0	0	0	0	512	422	
5	0	0	0	0	512	422	
6	0	0	0	0	512	421	
7	0	0	0	0	512	422	
8	0	0	0	0	512	422	
9	0	0	0	0	513	422	
10	0	0	0	0	512	422	
11	0	0	0	0	512	422	
12	0	0	0	0	511	422	
13	0	0	0	0	512	422	
14	0	0	0	0	511	422	
15	0	0	0	0	511	422	
0	0	0	0	0	510	422	
1	0	0	0	0	510	422	
2	0	0	0	0	510	422	
3	0	0	0	0	510	422	
4	0	0	0	0	510	422	
5	0	0	0	0	509	422	
6	0	0	0	0	510	422	
7	0	0	0	0	510	422	
8	0	0	0	0	510	422	
9	0	0	0	0	510	422	
10	0	0	0	0	511	421	
11	0	0	0	0	511	422	
12	0	0	0	0	511	422	
13	0	0	0	0	511	422	
14	0	0	0	0	511	422	
15	0	0	0	0	511	422	
0	0	0	0	0	510	422	
1	0	0	0	0	510	421	
2	0	0	0	0	510	422	
3	0	0	0	0	510	421	
4	0	0	0	0	510	422	
5	0	0	0	0	510	422	
6	0	0	0	0	510	421	
7	0	0	0	0	510	422	
8	0	0	0	0	510	421	
9	0	0	0	0	510	422	
10	0	0	0	0	509	421	
11	0	0	0	0	509	421	
12	0	0	0	0	508	421	
13	0	0	0	0	509	421	
14	0	0	0	0	508	422	
15	0	0	0	0	509	422	
0	0	0	0	0	508	421	
1	0	0	0	0	508	422	
2	0	0	0	0	508	421	
3	0	0	0	0	508	422	
4	0	0	0	0	508	421	
5	0	0	0	0	508	421	
6	0	0	0	0	508	422	
7	0	0	0	0	510	421	
8	0	0	0	0	511	421	
9	0	0	0	0	511	421	
10	0	0	0	0	511	421	
11	0	0	0	0	512	421	
12	0	0	0	0	512	422	
13	0	0	0	0	512	421	
14	0	0	0	0	512	422	
15	0	0	0	0	511	421	
0	0	0	0	0	510	422	
1	0	0	0	0	510	421	
2	0	0	0	0	509	421	
3	0	0	0	0	508	422	
4	0	0	0	0	508	421	
5	0	0	0	0	509	421	
6	0	0	0	0	509	421	
7	0	0	0	0	509	421	
8	0	0	0	0	510	421	
9	0	0	0	0	510	421	
10	0	0	0	0	510	421	
11	0	0	0	0	510	421	
12	0	0	0	0	511	421	
13	0	0	0	0	511	421	
14	0	0	0	0	510	421	
15	0	0	0	0	511	421	
0	0	0	0	0	511	421	
1	0	0	0	0	511	421	
2	0	0	0	0	511	421	
3	0	0	0	0	510	421	
4	0	0	0	0	511	422	
5	0	0	0	0	511	421	
6	0	0	0	0	512	421	
7	0	0	0	0	513	421	
8	0	0	0	0	513	421	
9	0	0	0	0	515	421	
10	0	0	0	0	516	421	
11	0	0	0	0	517	421	
12	0	0	0	0	517	421	
13	0	0	0	0	516	421	
14	0	0	0	0	515	421	
15	0	0	0	0	512	421	
0	0	0	0	0	510	421	
1	0	0	0	0	508	421	
2	0	0	0	0	505	421	
3	0	0	0	0	503	421	
4	0	0	0	0	499	421	
5	0	0	0	0	497	421	
6	0	0	0	0	495	421	
7	0	0	0	0	494	421	
8	0	0	0	0	493	421	
9	0	0	0	0	491	421	
10	0	0	0	0	489	421	
11	0	0	0	0	487	421	
12	0	0	0	0	484	421	
13	0	0	0	0	483	421	
14	0	0	0	0	483	421	
15	0	0	0	0	483	421	
0	0	0	0	0	484	421	
1	0	0	0	0	485	421	
2	0	0	0	0	487	421	
3	0	0	0	0	487	421	
4	0	0	0	0	487	421	
5	0	0	0	0	488	421	
6	0	0	0	0	490	421	
7	0	0	0	0	491	421	
8	0	0	0	0	492	421	
9	0	0	0	0	493	421	
10	0	0	0	0	494	421	
11	0	0	0	0	494	421	
12	0	0	0	0	495	421	
13	0	0	0	0	495	421	
14	0	0	0	0	494	421	
15	0	0	0	0	494	421	
0	0	0	0	0	495	421	
1	0	0	0	0	498	421	
2	0	0	0	0	500	421	
3	0	0	0	0	501	421	
4	0	0	0	0	503	421	
5	0	0	0	0	504	421	
6	0	0	0	0	505	421	
7	0	0	0	0	506	421	
8	0	0	0	0	508	421	
9	0	0	0	0	509	421	
10	0	0	0	0	511	421	
11	0	0	0	0	512	421	
12	0	0	0	0	513	421	
13	0	0	0	0	515	421	
14	0	0	0	0	516	421	
15	0	0	0	0	516	421	
0	0	0	0	0	518	421	
1	0	0	0	0	519	421	
2	0	0	0	0	519	421	
3	0	0	0	0	518	421	
4	0	0	0	0	517	421	
5	0	0	0	0	517	421	
6	0	0	0	0	516	421	
7	0	0	0	0	516	421	
8	0	0	0	0	515	421	
9	0	0	0	0	514	421	
10	0	0	0	0	514	421	
11	0	0	0	0	514	421	
12	0	0	0	0	513	420	
13	0	0	0	0	513	421	
14	0	0	0	0	512	420	
15	0	0	0	0	511	420	
0	0	0	0	0	510	421	
1	0	0	0	0	509	421	
2	0	0	0	0	508	420	
3	0	0	0	0	507	421	
4	0	0	0	0	506	420	
5	0	0	0	0	506	421	
6	0	0	0	0	505	420	
7	0	0	0	0	504	420	
8	0	0	0	0	503	421	
9	0	0	0	0	502	421	
10	0	0	0	0	503	420	
11	0	0	0	0	503	420	
12	0	0	0	0	503	420	
13	0	0	0	0	504	420	
14	0	0	0	0	503	420	
15	0	0	0	0	504	420	
0	0	0	0	0	504	420	
1	0	0	0	0	504	421	
2	0	0	0	0	504	420	
3	0	0	0	0	505	420	
4	0	0	0	0	505	420	
5	0	0	0	0	505	420	
6	0	0	0	0	504	421	
7	0	0	0	0	504	420	
8	0	0	0	0	504	420	
9	0	0	0	0	504	420	
10	0	0	0	0	504	420	
11	0	0	0	0	505	420	
12	0	0	0	0	505	420	
13	0	0	0	0	505	420	
14	0	0	0	0	505	420	
15	0	0	0	0	505	420	
0	0	0	0	0	504	420	
1	0	0	0	0	504	420	
2	0	0	0	0	504	420	
3	0	0	0	0	504	420	
4	0	0	0	0	503	420	
5	0	0	0	0	503	420	
6	0	0	0	0	503	420	
7	0	0	0	0	502	420	
8	0	0	0	0	501	420	
9	0	0	0	0	500	420	
10	0	0	0	0	500	420	
11	0	0	0	0	499	420	
12	0	0	0	0	499	420	
13	0	0	0	0	499	420	
14	0	0	0	0	499	420	
15	0	0	0	0	499	420	
0	0	0	0	0	500	420	
1	0	0	0	0	500	420	
2	0	0	0	0	500	420	
3	0	0	0	0	500	420	
4	0	0	0	0	499	420	
5	0	0	0	0	499	420	
6	0	0	0	0	498	420	
7	0	0	0	0	497	420	
8	0	0	0	0	498	420	
9	0	0	0	0	498	420	
10	0	0	0	0	498	420	
11	0	0	0	0	498	420	
12	0	0	0	0	498	420	
13	0	0	0	0	498	420	
14	0	0	0	0	499	420	
15	0	0	0	0	499	420	
0	0	0	0	0	499	420	
1	0	0	0	0	499	420	
2	0	0	0	0	499	420	
3	0	0	0	0	498	420	
4	0	0	0	0	497	420	
5	0	0	0	0	496	420	
6	0	0	0	0	496	420	
7	0	0	0	0	495	420	
8	0	0	0	0	495	420	
9	0	0	0	0	494	420	
10	0	0	0	0	493	420	
11	0	0	0	0	492	420	
12	0	0	0	0	492	420	
13	0	0	0	0	492	420	
14	0	0	0	0	492	420	
15	0	0	0	0	493	420	
0	0	0	0	0	494	420	
1	0	0	0	0	494	420	
2	0	0	0	0	494	420	
3	0	0	0	0	493	420	
4	0	0	0	0	492	420	
5	0	0	0	0	492	420	
6	0	0	0	0	492	420	
7	0	0	0	0	491	420	
8	0	0	0	0	490	420	
9	0	0	0	0	489	420	
10	0	0	0	0	490	420	
11	0	0	0	0	490	420	
12	0	0	0	0	489	420	
13	0	0	0	0	488	420	
14	0	0	0	0	488	420	
15	0	0	0	0	489	420	
0	0	0	0	0	489	420	
1	0	0	0	0	490	420	
2	0	0	0	0	490	420	
3	0	0	0	0	491	420	
4	0	0	0	0	491	420	
5	0	0	0	0	492	420	
6	0	0	0	0	492	420	
7	0	0	0	0	492	420	
8	0	0	0	0	492	420	
9	0	0	0	0	491	420	
10	0	0	0	0	491	420	
11	0	0	0	0	491	420	
12	0	0	0	0	491	420	
13	0	0	0	0	492	420	
14	0	0	0	0	492	420	
15	0	0	0	0	492	420	
0	0	0	0	0	493	420	
1	0	0	0	0	494	420	
2	0	0	0	0	495	420	
3	0	0	0	0	494	419	
4	0	0	0	0	495	420	
5	0	0	0	0	496	420	
6	0	0	0	0	496	420	
7	0	0	0	0	496	420	
8	0	0	0	0	496	420	
9	0	0	0	0	495	420	
10	0	0	0	0	494	420	
11	0	0	0	0	494	419	
12	0	0	0	0	494	420	
13	0	0	0	0	494	419	
14	0	0	0	0	494	420	
15	0	0	0	0	493	420	
0	0	0	0	0	492	420	
1	0	0	0	0	493	420	
2	0	0	0	0	493	420	
3	0	0	0	0	493	419	
4	0	0	0	0	494	420	
5	0	0	0	0	494	420	
6	0	0	0	0	493	419	
7	0	0	0	0	492	420	
8	0	0	0	0	492	419	
9	0	0	0	0	492	420	
10	0	0	0	0	491	419	
11	0	0	0	0	491	420	
12	0	0	0	0	491	420	
13	0	0	0	0	491	419	
14	0	0	0	0	491	420	
15	0	0	0	0	491	419	
0	0	0	0	0	492	419	
1	0	0	0	0	492	419	
2	0	0	0	0	494	419	
3	0	0	0	0	495	419	
4	0	0	0	0	495	419	
5	0	0	0	0	496	419	
6	0	0	0	0	496	419	
7	0	0	0	0	496	419	
8	0	0	0	0	496	419	
9	0	0	0	0	495	419	
10	0	0	0	0	494	419	
11	0	0	0	0	493	419	
12	0	0	0	0	493	419	
13	0	0	0	0	493	419	
14	0	0	0	0	493	419	
15	0	0	0	0	494	419	
0	0	0	0	0	494	419	
1	0	0	0	0	495	419	
2	0	0	0	0	496	419	
3	0	0	0	0	496	419	
4	0	0	0	0	496	419	
5	0	0	0	0	496	419	
6	0	0	0	0	496	419	
7	0	0	0	0	497	419	
8	0	0	0	0	496	419	
9	0	0	0	0	496	419	
10	0	0	0	0	496	419	
11	0	0	0	0	495	419	
12	0	0	0	0	495	419	
13	0	0	0	0	495	419	
14	0	0	0	0	494	419	
15	0	0	0	0	494	419	
0	0	0	0	0	494	419	
1	0	0	0	0	495	419	
2	0	0	0	0	495	419	
3	0	0	0	0	495	419	
4	0	0	0	0	496	419	
5	0	0	0	0	496	419	
6	0	0	0	0	496	419	
7	0	0	0	0	496	419	
8	0	0	0	0	497	419	
9	0	0	0	0	497	419	
10	0	0	0	0	497	419	
11	0	0	0	0	496	419	
12	0	0	0	0	496	419	
13	0	0	0	0	496	419	
14	0	0	0	0	497	419	
15	0	0	0	0	497	419	
0	0	0	0	0	497	419	
1	0	0	0	0	497	419	
2	0	0	0	0	498	419	
3	0	0	0	0	499	419	
4	0	0	0	0	500	419	
5	0	0	0	0	500	419	
6	0	0	0	0	501	419	
7	0	0	0	0	502	419	
8	0	0	0	0	503	419	
9	0	0	0	0	503	419	
10	0	0	0	0	503	419	
11	0	0	0	0	503	419	
12	0	0	0	0	503	419	
13	0	0	0	0	504	419	
14	0	0	0	0	504	419	
15	0	0	0	0	504	419	
0	0	0	0	0	505	419	
1	0	0	0	0	505	419	
2	0	0	0	0	506	419	
3	0	0	0	0	507	419	
4	0	0	0	0	508	419	
5	0	0	0	0	509	419	
6	0	0	0	0	509	419	
7	0	0	0	0	510	419	
8	0	0	0	0	511	419	
9	0	0	0	0	511	419	
10	0	0	0	0	512	419	
11	0	0	0	0	512	419	
12	0	0	0	0	513	419	
13	0	0	0	0	513	419	
14	0	0	0	0	514	419	
15	0	0	0	0	514	419	
0	0	0	0	0	514	419	
1	0	0	0	0	515	419	
2	0	0	0	0	516	419	
3	0	0	0	0	518	419	
4	0	0	0	0	518	419	
5	0	0	0	0	519	419	
6	0	0	0	0	521	419	
7	0	0	0	0	522	419	
8	0	0	0	0	523	419	
9	0	0	0	0	523	419	
10	0	0	0	0	524	419	
11	0	0	0	0	524	419	
12	0	0	0	0	524	419	
13	0	0	0	0	524	419	
14	0	0	0	0	524	419	
15	0	0	0	0	523	419	
0	0	0	0	0	522	419	
1	0	0	0	0	521	419	
2	0	0	0	0	521	419	
3	0	0	0	0	520	419	
4	0	0	0	0	520	419	
5	0	0	0	0	520	419	
6	0	0	0	0	521	419	
7	0	0	0	0	521	419	
8	0	0	0	0	521	419	
9	0	0	0	0	521	419	
10	0	0	0	0	521	419	
11	0	0	0	0	521	419	
12	0	0	0	0	520	419	
13	0	0	0	0	520	419	
14	0	0	0	0	520	419	
15	0	0	0	0	520	419	
0	0	0	0	0	519	419	
1	0	0	0	0	519	419	
2	0	0	0	0	519	419	
3	0	0	0	0	519	419	
4	0	0	0	0	519	419	
5	0	0	0	0	520	419	
6	0	0	0	0	521	419	
7	0	0	0	0	521	419	
8	0	0	0	0	521	419	
9	0	0	0	0	522	419	
10	0	0	0	0	523	419	
11	0	0	0	0	523	419	
12	0	0	0	0	523	419	
13	0	0	0	0	523	419	
14	0	0	0	0	523	419	
15	0	0	0	0	522	419	
0	0	0	0	0	522	419	
1	0	0	0	0	521	419	
2	0	0	0	0	521	419	
3	0	0	0	0	521	419	
4	0	0	0	0	521	419	
5	0	0	0	0	521	419	
6	0	0	0	0	522	419	
7	0	0	0	0	523	419	
8	0	0	0	0	523	419	
9	0	0	0	0	522	419	
10	0	0	0	0	522	419	
11	0	0	0	0	522	419	
12	0	0	0	0	522	419	
13	0	0	0	0	521	419	
14	0	0	0	0	521	419	
15	0	0	0	0	520	419	
0	0	0	0	0	519	419	
1	0	0	0	0	519	419	
2	0	0	0	0	519	419	
3	0	0	0	0	519	419	
4	0	0	0	0	519	419	
5	0	0	0	0	519	419	
6	0	0	0	0	519	419	
7	0	0	0	0	520	419	
8	0	0	0	0	520	419	
9	0	0	0	0	520	419	
10	0	0	0	0	521	419	
11	0	0	0	0	520	419	
12	0	0	0	0	521	419	
13	0	0	0	0	521	419	
14	0	0	0	0	520	419	
15	0	0	0	0	520	419	
0	0	0	0	0	519	419	
1	0	0	0	0	519	419	
2	0	0	0	0	519	419	
3	0	0	0	0	519	419	
4	0	0	0	0	519	419	
5	0	0	0	0	519	419	
6	0	0	0	0	519	419	
7	0	0	0	0	520	419	
8	0	0	0	0	520	419	
9	0	0	0	0	520	419	
10	0	0	0	0	520	419	
11	0	0	0	0	521	419	
12	0	0	0	0	521	419	
13	0	0	0	0	521	419	
14	0	0	0	0	520	419	
15	0	0	0	0	520	419	
0	0	0	0	0	520	419	
1	0	0	0	0	519	419	
2	0	0	0	0	519	419	
3	0	0	0	0	519	419	
4	0	0	0	0	519	419	
5	0	0	0	0	519	419	
6	0	0	0	0	519	419	
7	0	0	0	0	519	419	
8	0	0	0	0	519	419	
9	0	0	0	0	520	419	
10	0	0	0	0	520	419	
11	0	0	0	0	520	419	
12	0	0	0	0	520	419	
13	0	0	0	0	520	419	
14	0	0	0	0	520	419	
15	0	0	0	0	520	419	
0	0	0	0	0	519	419	
1	0	0	0	0	519	419	
2	0	0	0	0	518	419	
3	0	0	0	0	518	419	
4	0	0	0	0	519	419	
5	0	0	0	0	518	419	
6	0	0	0	0	518	419	
7	0	0	0	0	519	419	
8	0	0	0	0	519	419	
9	0	0	0	0	519	419	
10	0	0	0	0	520	419	
11	0	0	0	0	520	419	
12	0	0	0	0	520	419	
13	0	0	0	0	519	419	
14	0	0	0	0	519	419	
15	0	0	0	0	518	419	
0	0	0	0	0	518	419	
1	0	0	0	0	518	419	
2	0	0	0	0	517	419	
3	0	0	0	0	517	419	
4	0	0	0	0	517	419	
5	0	0	0	0	517	419	
6	0	0	0	0	516	419	
7	0	0	0	0	516	419	
8	0	0	0	0	516	419	
9	0	0	0	0	517	419	
10	0	0	0	0	517	418	
11	0	0	0	0	517	418	
12	0	0	0	0	517	419	
13	0	0	0	0	517	419	
14	0	0	0	0	518	418	
15	0	0	0	0	517	419	
0	0	0	0	0	516	418	
1	0	0	0	0	515	419	
2	0	0	0	0	515	419	
3	0	0	0	0	515	419	
4	0	0	0	0	515	419	
5	0	0	0	0	514	418	
6	0	0	0	0	514	419	
7	0	0	0	0	513	419	
8	0	0	0	0	513	418	
9	0	0	0	0	513	419	
10	0	0	0	0	513	418	
11	0	0	0	0	513	418	
12	0	0	0	0	514	418	
13	0	0	0	0	514	418	
14	0	0	0	0	514	418	
15	0	0	0	0	515	418	
0	0	0	0	0	515	418	
1	0	0	0	0	515	418	
2	0	0	0	0	515	419	
3	0	0	0	0	515	418	
4	0	0	0	0	515	418	
5	0	0	0	0	515	419	
6	0	0	0	0	515	418	
7	0	0	0	0	514	418	
8	0	0	0	0	514	418	
9	0	0	0	0	514	418	
10	0	0	0	0	515	418	
11	0	0	0	0	514	418	
12	0	0	0	0	514	418	
13	0	0	0	0	513	418	
14	0	0	0	0	512	418	
15	0	0	0	0	513	418	
0	0	0	0	0	513	418	
1	0	0	0	0	512	418	
2	0	0	0	0	513	418	
3	0	0	0	0	512	418	
4	0	0	0	0	512	418	
5	0	0	0	0	511	418	
6	0	0	0	0	510	418	
7	0	0	0	0	510	418	
8	0	0	0	0	510	418	
9	0	0	0	0	510	418	
10	0	0	0	0	509	418	
11	0	0	0	0	509	418	
12	0	0	0	0	510	418	
13	0	0	0	0	509	418	
14	0	0	0	0	509	418	
15	0	0	0	0	509	418	
0	0	0	0	0	508	418	
1	0	0	0	0	508	418	
2	0	0	0	0	508	418	
3	0	0	0	0	508	418	
4	0	0	0	0	508	418	
5	0	0	0	0	508	418	
6	0	0	0	0	508	418	
7	0	0	0	0	507	418	
8	0	0	0	0	507	418	
9	0	0	0	0	506	418	
10	0	0	0	0	506	418	
11	0	0	0	0	507	418	
12	0	0	0	0	507	418	
13	0	0	0	0	507	418	
14	0	0	0	0	508	418	
15	0	0	0	0	509	418	
0	0	0	0	0	509	418	
1	0	0	0	0	508	418	
2	0	0	0	0	508	418	
3	0	0	0	0	508	418	
4	0	0	0	0	508	418	
5	0	0	0	0	508	418	
6	0	0	0	0	508	418	
7	0	0	0	0	508	418	
8	0	0	0	0	508	418	
9	0	0	0	0	508	418	
10	0	0	0	0	508	418	
11	0	0	0	0	509	418	
12	0	0	0	0	510	418	
13	0	0	0	0	510	418	
14	0	0	0	0	510	418	
15	0	0	0	0	510	418	
0	0	0	0	0	511	418	
1	0	0	0	0	511	418	
2	0	0	0	0	511	418	
3	0	0	0	0	511	418	
4	0	0	0	0	510	418	
5	0	0	0	0	509	418	
6	0	0	0	0	509	418	
7	0	0	0	0	509	418	
8	0	0	0	0	508	418	
9	0	0	0	0	507	418	
10	0	0	0	0	507	418	
11	0	0	0	0	508	418	
12	0	0	0	0	508	418	
13	0	0	0	0	509	418	
14	0	0	0	0	510	418	
15	0	0	0	0	511	418	
0	0	0	0	0	512	418	
1	0	0	0	0	512	418	
2	0	0	0	0	513	418	
3	0	0	0	0	513	418	
4	0	0	0	0	513	418	
5	0	0	0	0	513	418	
6	0	0	0	0	512	418	
7	0	0	0	0	511	418	
8	0	0	0	0	511	418	
9	0	0	0	0	511	418	
10	0	0	0	0	511	418	
11	0	0	0	0	510	418	
12	0	0	0	0	510	418	
13	0	0	0	0	510	418	
14	0	0	0	0	510	418	
15	0	0	0	0	511	418	
0	0	0	0	0	511	418	
1	0	0	0	0	512	418	
2	0	0	0	0	512	418	
3	0	0	0	0	512	417	
4	0	0	0	0	512	418	
5	0	0	0	0	513	418	
6	0	0	0	0	512	418	
7	0	0	0	0	510	418	
8	0	0	0	0	509	418	
9	0	0	0	0	509	418	
10	0	0	0	0	509	417	
11	0	0	0	0	508	418	
12	0	0	0	0	508	418	
13	0	0	0	0	508	418	
14	0	0	0	0	508	418	
15	0	0	0	0	509	418	
0	0	0	0	0	510	417	
1	0	0	0	0	510	418	
2	0	0	0	0	510	417	
3	0	0	0	0	511	418	
4	0	0	0	0	510	418	
5	0	0	0	0	510	417	
6	0	0	0	0	509	417	
7	0	0	0	0	508	418	
8	0	0	0	0	508	417	
9	0	0	0	0	508	418	
10	0	0	0	0	508	418	
11	0	0	0	0	508	418	
12	0	0	0	0	508	418	
13	0	0	0	0	508	418	
14	0	0	0	0	507	417	
15	0	0	0	0	508	417	
0	0	0	0	0	508	417	
1	0	0	0	0	508	417	
2	0	0	0	0	508	417	
3	0	0	0	0	507	417	
4	0	0	0	0	506	417	
5	0	0	0	0	506	417	
6	0	0	0	0	505	417	
7	0	0	0	0	505	418	
8	0	0	0	0	504	417	
9	0	0	0	0	503	418	
10	0	0	0	0	502	417	
11	0	0	0	0	501	417	
12	0	0	0	0	501	417	
13	0	0	0	0	501	417	
14	0	0	0	0	500	417	
15	0	0	0	0	500	417	
0	0	0	0	0	500	417	
1	0	0	0	0	500	417	
2	0	0	0	0	500	417	
3	0	0	0	0	502	417	
4	0	0	0	0	502	417	
5	0	0	0	0	502	417	
6	0	0	0	0	502	417	
7	0	0	0	0	502	417	
8	0	0	0	0	501	417	
9	0	0	0	0	500	417	
10	0	0	0	0	499	417	
11	0	0	0	0	500	417	
12	0	0	0	0	499	417	
13	0	0	0	0	499	417	
14	0	0	0	0	499	417	
15	0	0	0	0	499	417	
0	0	0	0	0	499	417	
1	0	0	0	0	499	417	
2	0	0	0	0	499	417	
3	0	0	0	0	500	417	
4	0	0	0	0	500	417	
5	0	0	0	0	500	417	
6	0	0	0	0	500	417	
7	0	0	0	0	500	417	
8	0	0	0	0	500	417	
9	0	0	0	0	500	417	
10	0	0	0	0	500	417	
11	0	0	0	0	500	417	
12	0	0	0	0	499	417	
13	0	0	0	0	500	417	
14	0	0	0	0	500	417	
15	0	0	0	0	501	417	
0	0	0	0	0	501	417	
1	0	0	0	0	501	417	
2	0	0	0	0	502	417	
3	0	0	0	0	503	417	
4	0	0	0	0	503	417	
5	0	0	0	0	504	417	
6	0	0	0	0	504	417	
7	0	0	0	0	504	417	
8	0	0	0	0	504	417	
9	0	0	0	0	504	417	
10	0	0	0	0	504	417	
11	0	0	0	0	503	417	
12	0	0	0	0	502	417	
13	0	0	0	0	502	417	
14	0	0	0	0	501	417	
15	0	0	0	0	501	417	
0	0	0	0	0	500	417	
1	0	0	0	0	500	417	
2	0	0	0	0	501	417	
3	0	0	0	0	502	417	
4	0	0	0	0	502	417	
5	0	0	0	0	503	417	
6	0	0	0	0	503	417	
7	0	0	0	0	503	417	
8	0	0	0	0	503	417	
9	0	0	0	0	503	417	
10	0	0	0	0	503	417	
11	0	0	0	0	503	417	
12	0	0	0	0	502	417	
13	0	0	0	0	503	417	
14	0	0	0	0	503	417	
15	0	0	0	0	502	417	
0	0	0	0	0	503	417	
1	0	0	0	0	502	417	
2	0	0	0	0	501	417	
3	0	0	0	0	501	417	
4	0	0	0	0	500	417	
5	0	0	0	0	500	417	
6	0	0	0	0	499	417	
7	0	0	0	0	499	417	
8	0	0	0	0	497	417	
9	0	0	0	0	496	417	
10	0	0	0	0	496	417	
11	0	0	0	0	494	417	
12	0	0	0	0	494	417	
13	0	0	0	0	493	417	
14	0	0	0	0	492	417	
15	0	0	0	0	491	417	
0	0	0	0	0	491	417	
1	0	0	0	0	491	417	
2	0	0	0	0	491	417	
3	0	0	0	0	492	417	
4	0	0	0	0	492	417	
5	0	0	0	0	493	417	
6	0	0	0	0	494	417	
7	0	0	0	0	495	417	
8	0	0	0	0	496	417	
9	0	0	0	0	497	417	
10	0	0	0	0	497	417	
11	0	0	0	0	497	417	
12	0	0	0	0	497	417	
13	0	0	0	0	497	417	
14	0	0	0	0	497	417	
15	0	0	0	0	496	417	
0	0	0	0	0	497	417	
1	0	0	0	0	497	417	
2	0	0	0	0	497	417	
3	0	0	0	0	497	417	
4	0	0	0	0	498	417	
5	0	0	0	0	499	417	
6	0	0	0	0	500	417	
7	0	0	0	0	502	417	
8	0	0	0	0	502	417	
9	0	0	0	0	503	417	
10	0	0	0	0	504	417	
11	0	0	0	0	504	417	
12	0	0	0	0	504	417	
13	0	0	0	0	504	417	
14	0	0	0	0	504	417	
15	0	0	0	0	503	417	
0	0	0	0	0	503	417	
1	0	0	0	0	503	417	
2	0	0	0	0	504	417	
3	0	0	0	0	504	417	
4	0	0	0	0	503	417	
5	0	0	0	0	504	417	
6	0	0	0	0	504	417	
7	0	0	0	0	505	417	
8	0	0	0	0	505	417	
9	0	0	0	0	506	417	
10	0	0	0	0	506	417	
11	0	0	0	0	507	417	
12	0	0	0	0	508	417	
13	0	0	0	0	507	417	
14	0	0	0	0	508	417	
15	0	0	0	0	508	417	
0	0	0	0	0	508	417	
1	0	0	0	0	509	417	
2	0	0	0	0	509	417	
3	0	0	0	0	510	417	
4	0	0	0	0	510	417	
5	0	0	0	0	511	417	
6	0	0	0	0	512	417	
7	0	0	0	0	513	417	
8	0	0	0	0	514	417	
9	0	0	0	0	515	417	
10	0	0	0	0	514	417	
11	0	0	0	0	514	417	
12	0	0	0	0	514	417	
13	0	0	0	0	515	417	
14	0	0	0	0	515	417	
15	0	0	0	0	515	417	
0	0	0	0	0	515	417	
1	0	0	0	0	514	417	
2	0	0	0	0	515	417	
3	0	0	0	0	514	417	
4	0	0	0	0	514	417	
5	0	0	0	0	514	417	
6	0	0	0	0	515	417	
7	0	0	0	0	516	417	
8	0	0	0	0	516	417	
9	0	0	0	0	516	417	
10	0	0	0	0	517	417	
11	0	0	0	0	517	417	
12	0	0	0	0	518	417	
13	0	0	0	0	518	417	
14	0	0	0	0	516	417	
15	0	0	0	0	516	417	
0	0	0	0	0	515	417	
1	0	0	0	0	515	417	
2	0	0	0	0	515	417	
3	0	0	0	0	515	417	
4	0	0	0	0	514	417	
5	0	0	0	0	514	417	
6	0	0	0	0	514	417	
7	0	0	0	0	514	417	
8	0	0	0	0	515	417	
9	0	0	0	0	516	417	
10	0	0	0	0	516	417	
11	0	0	0	0	516	417	
12	0	0	0	0	516	417	
13	0	0	0	0	515	417	
14	0	0	0	0	513	417	
15	0	0	0	0	512	417	
0	0	0	0	0	512	417	
1	0	0	0	0	512	417	
2	0	0	0	0	511	417	
3	0	0	0	0	511	417	
4	0	0	0	0	511	417	
5	0	0	0	0	511	417	
6	0	0	0	0	511	417	
7	0	0	0	0	511	417	
8	0	0	0	0	511	417	
9	0	0	0	0	511	417	
10	0	0	0	0	512	417	
11	0	0	0	0	512	416	
12	0	0	0	0	512	417	
13	0	0	0	0	512	417	
14	0	0	0	0	511	417	
15	0	0	0	0	511	417	
0	0	0	0	0	511	417	
1	0	0	0	0	510	417	
2	0	0	0	0	510	417	
3	0	0	0	0	510	417	
4	0	0	0	0	510	417	
5	0	0	0	0	510	417	
6	0	0	0	0	511	417	
7	0	0	0	0	511	416	
8	0	0	0	0	511	416	
9	0	0	0	0	512	417	
10	0	0	0	0	513	417	
11	0	0	0	0	513	416	
12	0	0	0	0	513	416	
13	0	0	0	0	513	416	
14	0	0	0	0	514	416	
15	0	0	0	0	514	416	
0	0	0	0	0	513	416	
1	0	0	0	0	513	417	
2	0	0	0	0	513	416	
3	0	0	0	0	514	416	
4	0	0	0	0	513	416	
5	0	0	0	0	513	417	
6	0	0	0	0	513	417	
7	0	0	0	0	513	416	
8	0	0	0	0	514	417	
9	0	0	0	0	515	416	
10	0	0	0	0	516	416	
11	0	0	0	0	517	416	
12	0	0	0	0	516	416	
13	0	0	0	0	515	416	
14	0	0	0	0	514	416	
15	0	0	0	0	512	416	
0	0	0	0	0	510	416	
1	0	0	0	0	507	416	
2	0	0	0	0	505	416	
3	0	0	0	0	502	416	
4	0	0	0	0	500	416	
5	0	0	0	0	498	416	
6	0	0	0	0	497	416	
7	0	0	0	0	496	416	
8	0	0	0	0	496	416	
9	0	0	0	0	493	416	
10	0	0	0	0	491	417	
11	0	0	0	0	490	416	
12	0	0	0	0	489	416	
13	0	0	0	0	488	416	
14	0	0	0	0	488	416	
15	0	0	0	0	489	416	
0	0	0	0	0	491	416	
1	0	0	0	0	492	417	
2	0	0	0	0	494	416	
3	0	0	0	0	495	416	
4	0	0	0	0	495	416	
5	0	0	0	0	497	416	
6	0	0	0	0	498	416	
7	0	0	0	0	499	416	
8	0	0	0	0	500	416	
9	0	0	0	0	500	416	
10	0	0	0	0	500	416	
11	0	0	0	0	501	416	
12	0	0	0	0	500	416	
13	0	0	0	0	500	416	
14	0	0	0	0	500	416	
15	0	0	0	0	502	416	
0	0	0	0	0	504	416	
1	0	0	0	0	506	416	
2	0	0	0	0	507	416	
3	0	0	0	0	507	416	
4	0	0	0	0	508	416	
5	0	0	0	0	510	416	
6	0	0	0	0	512	416	
7	0	0	0	0	514	416	
8	0	0	0	0	515	416	
9	0	0	0	0	517	416	
10	0	0	0	0	518	416	
11	0	0	0	0	520	416	
12	0	0	0	0	522	416	
13	0	0	0	0	524	416	
14	0	0	0	0	526	416	
15	0	0	0	0	528	416	
0	0	0	0	0	528	416	
1	0	0	0	0	528	416	
2	0	0	0	0	528	416	
3	0	0	0	0	527	416	
4	0	0	0	0	527	416	
5	0	0	0	0	525	416	
6	0	0	0	0	524	416	
7	0	0	0	0	523	416	
8	0	0	0	0	523	416	
9	0	0	0	0	522	416	
10	0	0	0	0	521	416	
11	0	0	0	0	520	416	
12	0	0	0	0	520	416	
13	0	0	0	0	519	416	
14	0	0	0	0	519	416	
15	0	0	0	0	518	416	
0	0	0	0	0	518	416	
1	0	0	0	0	516	416	
2	0	0	0	0	516	416	
3	0	0	0	0	515	416	
4	0	0	0	0	513	416	
5	0	0	0	0	512	416	
6	0	0	0	0	511	416	
7	0	0	0	0	510	416	
8	0	0	0	0	508	416	
9	0	0	0	0	508	416	
10	0	0	0	0	507	416	
11	0	0	0	0	506	416	
12	0	0	0	0	506	416	
13	0	0	0	0	506	416	
14	0	0	0	0	506	416	
15	0	0	0	0	506	416	
0	0	0	0	0	506	416	
1	0	0	0	0	506	416	
2	0	0	0	0	507	416	
3	0	0	0	0	506	416	
4	0	0	0	0	505	416	
5	0	0	0	0	505	416	
6	0	0	0	0	504	416	
7	0	0	0	0	504	416	
8	0	0	0	0	504	416	
9	0	0	0	0	504	416	
10	0	0	0	0	505	416	
11	0	0	0	0	506	416	
12	0	0	0	0	508	416	
13	0	0	0	0	508	416	
14	0	0	0	0	509	416	
15	0	0	0	0	510	416	
0	0	0	0	0	510	416	
1	0	0	0	0	510	416	
2	0	0	0	0	509	416	
3	0	0	0	0	508	416	
4	0	0	0	0	508	416	
5	0	0	0	0	507	416	
6	0	0	0	0	506	416	
7	0	0	0	0	505	416	
8	0	0	0	0	505	416	
9	0	0	0	0	504	416	
10	0	0	0	0	504	416	
11	0	0	0	0	505	416	
12	0	0	0	0	504	416	
13	0	0	0	0	505	416	
14	0	0	0	0	506	416	
15	0	0	0	0	507	416	
0	0	0	0	0	507	416	
1	0	0	0	0	507	416	
2	0	0	0	0	507	416	
3	0	0	0	0	507	416	
4	0	0	0	0	506	416	
5	0	0	0	0	505	416	
6	0	0	0	0	505	416	
7	0	0	0	0	504	416	
8	0	0	0	0	504	416	
9	0	0	0	0	503	416	
10	0	0	0	0	504	416	
11	0	0	0	0	503	416	
12	0	0	0	0	502	416	
13	0	0	0	0	503	416	
14	0	0	0	0	503	416	
15	0	0	0	0	504	416	
0	0	0	0	0	504	416	
1	0	0	0	0	505	416	
2	0	0	0	0	504	416	
3	0	0	0	0	504	416	
4	0	0	0	0	504	416	
5	0	0	0	0	504	416	
6	0	0	0	0	504	416	
7	0	0	0	0	503	416	
8	0	0	0	0	502	416	
9	0	0	0	0	502	416	
10	0	0	0	0	502	416	
11	0	0	0	0	502	416	
12	0	0	0	0	501	416	
13	0	0	0	0	501	416	
14	0	0	0	0	501	416	
15	0	0	0	0	502	416	
0	0	0	0	0	503	416	
1	0	0	0	0	504	416	
2	0	0	0	0	503	416	
3	0	0	0	0	503	416	
4	0	0	0	0	503	416	
5	0	0	0	0	503	416	
6	0	0	0	0	502	416	
7	0	0	0	0	502	416	
8	0	0	0	0	502	416	
9	0	0	0	0	501	416	
10	0	0	0	0	501	416	
11	0	0	0	0	500	416	
12	0	0	0	0	500	416	
13	0	0	0	0	501	416	
14	0	0	0	0	502	416	
15	0	0	0	0	502	416	
0	0	0	0	0	503	416	
1	0	0	0	0	503	416	
2	0	0	0	0	504	416	
3	0	0	0	0	503	416	
4	0	0	0	0	503	416	
5	0	0	0	0	503	416	
6	0	0	0	0	502	415	
7	0	0	0	0	502	416	
8	0	0	0	0	501	416	
9	0	0	0	0	500	415	
10	0	0	0	0	501	416	
11	0	0	0	0	499	416	
12	0	0	0	0	500	416	
13	0	0	0	0	499	416	
14	0	0	0	0	499	416	
15	0	0	0	0	499	416	
0	0	0	0	0	499	416	
1	0	0	0	0	500	416	
2	0	0	0	0	500	415	
3	0	0	0	0	501	415	
4	0	0	0	0	502	416	
5	0	0	0	0	501	415	
6	0	0	0	0	501	416	
7	0	0	0	0	500	416	
8	0	0	0	0	499	415	
9	0	0	0	0	499	416	
10	0	0	0	0	498	415	
11	0	0	0	0	497	416	
12	0	0	0	0	497	416	
13	0	0	0	0	496	416	
14	0	0	0	0	496	416	
15	0	0	0	0	495	415	
0	0	0	0	0	495	415	
1	0	0	0	0	495	415	
2	0	0	0	0	496	415	
3	0	0	0	0	495	415	
4	0	0	0	0	495	415	
5	0	0	0	0	496	415	
6	0	0	0	0	496	415	
7	0	0	0	0	496	415	
8	0	0	0	0	496	415	
9	0	0	0	0	494	415	
10	0	0	0	0	493	416	
11	0	0	0	0	493	415	
12	0	0	0	0	492	415	
13	0	0	0	0	491	415	
14	0	0	0	0	491	415	
15	0	0	0	0	491	415	
0	0	0	0	0	490	415	
1	0	0	0	0	489	415	
2	0	0	0	0	489	415	
3	0	0	0	0	490	415	
4	0	0	0	0	490	415	
5	0	0	0	0	490	415	
6	0	0	0	0	490	415	
7	0	0	0	0	491	415	
8	0	0	0	0	491	415	
9	0	0	0	0	491	415	
10	0	0	0	0	491	415	
11	0	0	0	0	491	415	
12	0	0	0	0	491	415	
13	0	0	0	0	490	415	
14	0	0	0	0	489	415	
15	0	0	0	0	489	415	
0	0	0	0	0	489	415	
1	0	0	0	0	489	415	
2	0	0	0	0	491	415	
3	0	0	0	0	492	415	
4	0	0	0	0	493	415	
5	0	0	0	0	493	415	
6	0	0	0	0	493	415	
7	0	0	0	0	494	415	
8	0	0	0	0	495	415	
9	0	0	0	0	495	415	
10	0	0	0	0	495	415	
11	0	0	0	0	495	415	
12	0	0	0	0	494	415	
13	0	0	0	0	494	415	
14	0	0	0	0	494	415	
15	0	0	0	0	495	415	
0	0	0	0	0	495	415	
1	0	0	0	0	495	415	
2	0	0	0	0	495	415	
3	0	0	0	0	495	415	
4	0	0	0	0	496	415	
5	0	0	0	0	496	415	
6	0	0	0	0	497	415	
7	0	0	0	0	498	415	
8	0	0	0	0	499	415	
9	0	0	0	0	498	415	
10	0	0	0	0	499	415	
11	0	0	0	0	499	415	
12	0	0	0	0	498	415	
13	0	0	0	0	497	415	
14	0	0	0	0	497	415	
15	0	0	0	0	498	415	
0	0	0	0	0	498	415	
1	0	0	0	0	499	415	
2	0	0	0	0	499	415	
3	0	0	0	0	500	415	
4	0	0	0	0	501	415	
5	0	0	0	0	502	415	
6	0	0	0	0	503	415	
7	0	0	0	0	504	415	
8	0	0	0	0	505	415	
9	0	0	0	0	507	415	
10	0	0	0	0	507	415	
11	0	0	0	0	508	415	
12	0	0	0	0	507	415	
13	0	0	0	0	507	415	
14	0	0	0	0	507	415	
15	0	0	0	0	507	415	
0	0	0	0	0	507	415	
1	0	0	0	0	508	415	
2	0	0	0	0	508	415	
3	0	0	0	0	509	415	
4	0	0	0	0	510	415	
5	0	0	0	0	511	415	
6	0	0	0	0	512	415	
7	0	0	0	0	512	415	
8	0	0	0	0	513	415	
9	0	0	0	0	513	415	
10	0	0	0	0	514	415	
11	0	0	0	0	515	415	
12	0	0	0	0	514	415	
13	0	0	0	0	514	415	
14	0	0	0	0	513	415	
15	0	0	0	0	513	415	
0	0	0	0	0	513	415	
1	0	0	0	0	513	415	
2	0	0	0	0	514	415	
3	0	0	0	0	513	415	
4	0	0	0	0	514	415	
5	0	0	0	0	515	415	
6	0	0	0	0	516	415	
7	0	0	0	0	517	415	
8	0	0	0	0	518	415	
9	0	0	0	0	518	415	
10	0	0	0	0	519	415	
11	0	0	0	0	519	415	
12	0	0	0	0	519	415	
13	0	0	0	0	518	415	
14	0	0	0	0	518	415	
15	0	0	0	0	518	415	
0	0	0	0	0	517	415	
1	0	0	0	0	516	415	
2	0	0	0	0	517	415	
3	0	0	0	0	516	415	
4	0	0	0	0	516	415	
5	0	0	0	0	516	415	
6	0	0	0	0	517	415	
7	0	0	0	0	517	415	
8	0	0	0	0	518	415	
9	0	0	0	0	518	415	
10	0	0	0	0	518	415	
11	0	0	0	0	519	415	
12	0	0	0	0	518	415	
13	0	0	0	0	516	415	
14	0	0	0	0	516	415	
15	0	0	0	0	516	415	
0	0	0	0	0	516	415	
1	0	0	0	0	516	415	
2	0	0	0	0	516	415	
3	0	0	0	0	516	415	
4	0	0	0	0	516	415	
5	0	0	0	0	516	415	
6	0	0	0	0	517	415	
7	0	0	0	0	518	415	
8	0	0	0	0	519	415	
9	0	0	0	0	519	415	
10	0	0	0	0	519	415	
11	0	0	0	0	519	415	
12	0	0	0	0	519	415	
13	0	0	0	0	519	415	
14	0	0	0	0	519	415	
15	0	0	0	0	518	415	
0	0	0	0	0	518	415	
1	0	0	0	0	518	415	
2	0	0	0	0	518	415	
3	0	0	0	0	518	415	
4	0	0	0	0	518	415	
5	0	0	0	0	517	415	
6	0	0	0	0	517	415	
7	0	0	0	0	517	415	
8	0	0	0	0	518	415	
9	0	0	0	0	518	415	
10	0	0	0	0	518	415	
11	0	0	0	0	519	415	
12	0	0	0	0	519	415	
13	0	0	0	0	518	415	
14	0	0	0	0	517	415	
15	0	0	0	0	517	415	
0	0	0	0	0	517	415	
1	0	0	0	0	516	415	
2	0	0	0	0	516	415	
3	0	0	0	0	515	415	
4	0	0	0	0	515	415	
5	0	0	0	0	515	415	
6	0	0	0	0	514	415	
7	0	0	0	0	514	415	
8	0	0	0	0	515	415	
9	0	0	0	0	515	415	
10	0	0	0	0	515	415	
11	0	0	0	0	515	415	
12	0	0	0	0	514	415	
13	0	0	0	0	514	415	
14	0	0	0	0	513	415	
15	0	0	0	0	513	415	
0	0	0	0	0	512	415	
1	0	0	0	0	512	415	
2	0	0	0	0	511	415	
3	0	0	0	0	511	415	
4	0	0	0	0	511	415	
5	0	0	0	0	511	415	
6	0	0	0	0	511	415	
7	0	0	0	0	511	415	
8	0	0	0	0	512	415	
9	0	0	0	0	512	415	
10	0	0	0	0	514	415	
11	0	0	0	0	514	415	
12	0	0	0	0	513	415	
13	0	0	0	0	513	415	
14	0	0	0	0	513	415	
15	0	0	0	0	514	415	
0	0	0	0	0	514	415	
1	0	0	0	0	514	415	
2	0	0	0	0	514	415	
3	0	0	0	0	513	415	
4	0	0	0	0	513	415	
5	0	0	0	0	514	415	
6	0	0	0	0	514	415	
7	0	0	0	0	514	415	
8	0	0	0	0	515	415	
9	0	0	0	0	515	415	
10	0	0	0	0	515	415	
11	0	0	0	0	516	415	
12	0	0	0	0	516	415	
13	0	0	0	0	516	415	
14	0	0	0	0	516	415	
15	0	0	0	0	515	415	
0	0	0	0	0	515	415	
1	0	0	0	0	515	415	
2	0	0	0	0	514	415	
3	0	0	0	0	513	415	
4	0	0	0	0	513	415	
5	0	0	0	0	513	415	
6	0	0	0	0	513	415	
7	0	0	0	0	513	415	
8	0	0	0	0	513	415	
9	0	0	0	0	515	415	
10	0	0	0	0	515	415	
11	0	0	0	0	515	415	
12	0	0	0	0	516	415	
13	0	0	0	0	515	415	
14	0	0	0	0	515	415	
15	0	0	0	0	515	415	
0	0	0	0	0	514	415	
1	0	0	0	0	513	415	
2	0	0	0	0	513	415	
3	0	0	0	0	511	415	
4	0	0	0	0	511	415	
5	0	0	0	0	510	415	
6	0	0	0	0	510	415	
7	0	0	0	0	509	415	
8	0	0	0	0	509	415	
9	0	0	0	0	510	415	
10	0	0	0	0	511	415	
11	0	0	0	0	511	415	
12	0	0	0	0	511	415	
13	0	0	0	0	511	415	
14	0	0	0	0	512	415	
15	0	0	0	0	512	415	
0	0	0	0	0	512	415	
1	0	0	0	0	512	415	
2	0	0	0	0	512	415	
3	0	0	0	0	511	415	
4	0	0	0	0	511	415	
5	0	0	0	0	511	415	
6	0	0	0	0	510	415	
7	0	0	0	0	509	415	
8	0	0	0	0	509	415	
9	0	0	0	0	509	415	
10	0	0	0	0	510	415	
11	0	0	0	0	510	415	
12	0	0	0	0	511	415	
13	0	0	0	0	511	415	
14	0	0	0	0	511	415	
15	0	0	0	0	511	415	
0	0	0	0	0	511	415	
1	0	0	0	0	511	415	
2	0	0	0	0	510	415	
3	0	0	0	0	509	415	
4	0	0	0	0	509	415	
5	0	0	0	0	508	415	
6	0	0	0	0	509	415	
7	0	0	0	0	508	415	
8	0	0	0	0	508	415	
9	0	0	0	0	508	415	
10	0	0	0	0	508	415	
11	0	0	0	0	508	415	
12	0	0	0	0	508	415	
13	0	0	0	0	508	415	
14	0	0	0	0	508	415	
15	0	0	0	0	508	415	
0	0	0	0	0	508	415	
1	0	0	0	0	508	415	
2	0	0	0	0	508	415	
3	0	0	0	0	508	415	
4	0	0	0	0	507	415	
5	0	0	0	0	507	415	
6	0	0	0	0	506	415	
7	0	0	0	0	506	415	
8	0	0	0	0	507	415	
9	0	0	0	0	507	415	
10	0	0	0	0	506	415	
11	0	0	0	0	507	415	
12	0	0	0	0	507	415	
13	0	0	0	0	507	415	
14	0	0	0	0	508	415	
15	0	0	0	0	509	415	
0	0	0	0	0	509	415	
1	0	0	0	0	509	415	
2	0	0	0	0	509	415	
3	0	0	0	0	508	415	
4	0	0	0	0	506	415	
5	0	0	0	0	505	415	
6	0	0	0	0	504	415	
7	0	0	0	0	504	415	
8	0	0	0	0	503	415	
9	0	0	0	0	502	415	
10	0	0	0	0	502	415	
11	0	0	0	0	502	415	
12	0	0	0	0	502	415	
13	0	0	0	0	503	415	
14	0	0	0	0	504	415	
15	0	0	0	0	504	415	
0	0	0	0	0	505	415	
1	0	0	0	0	505	415	
2	0	0	0	0	504	415	
3	0	0	0	0	504	415	
4	0	0	0	0	503	415	
5	0	0	0	0	503	415	
6	0	0	0	0	502	415	
7	0	0	0	0	501	415	
8	0	0	0	0	501	415	
9	0	0	0	0	500	415	
10	0	0	0	0	500	415	
11	0	0	0	0	500	415	
12	0	0	0	0	500	415	
13	0	0	0	0	501	415	
14	0	0	0	0	502	415	
15	0	0	0	0	501	415	
0	0	0	0	0	502	415	
1	0	0	0	0	502	415	
2	0	0	0	0	501	415	
3	0	0	0	0	500	415	
4	0	0	0	0	500	415	
5	0	0	0	0	500	415	
6	0	0	0	0	500	415	
7	0	0	0	0	500	415	
8	0	0	0	0	499	415	
9	0	0	0	0	499	415	
10	0	0	0	0	499	415	
11	0	0	0	0	498	415	
12	0	0	0	0	498	415	
13	0	0	0	0	499	415	
14	0	0	0	0	499	415	
15	0	0	0	0	499	415	
0	0	0	0	0	500	415	
1	0	0	0	0	500	415	
2	0	0	0	0	500	415	
3	0	0	0	0	500	415	
4	0	0	0	0	500	415	
5	0	0	0	0	499	415	
6	0	0	0	0	499	415	
7	0	0	0	0	498	415	
8	0	0	0	0	498	415	
9	0	0	0	0	498	415	
10	0	0	0	0	498	415	
11	0	0	0	0	497	415	
12	0	0	0	0	496	415	
13	0	0	0	0	496	415	
14	0	0	0	0	497	415	
15	0	0	0	0	498	415	
0	0	0	0	0	499	415	
1	0	0	0	0	499	415	
2	0	0	0	0	500	415	
3	0	0	0	0	500	415	
4	0	0	0	0	500	415	
5	0	0	0	0	500	415	
6	0	0	0	0	500	415	
7	0	0	0	0	500	415	
8	0	0	0	0	500	415	
9	0	0	0	0	500	415	
10	0	0	0	0	500	415	
11	0	0	0	0	500	415	
12	0	0	0	0	500	415	
13	0	0	0	0	502	415	
14	0	0	0	0	502	415	
15	0	0	0	0	502	415	
0	0	0	0	0	502	415	
1	0	0	0	0	503	415	
2	0	0	0	0	504	415	
3	0	0	0	0	503	415	
4	0	0	0	0	504	415	
5	0	0	0	0	503	415	
6	0	0	0	0	504	415	
7	0	0	0	0	504	415	
8	0	0	0	0	504	415	
9	0	0	0	0	503	415	
10	0	0	0	0	503	415	
11	0	0	0	0	502	415	
12	0	0	0	0	502	415	
13	0	0	0	0	502	415	
14	0	0	0	0	502	415	
15	0	0	0	0	503	415	
0	0	0	0	0	503	415	
1	0	0	0	0	504	415	
2	0	0	0	0	505	414	
3	0	0	0	0	505	415	
4	0	0	0	0	507	415	
5	0	0	0	0	507	415	
6	0	0	0	0	508	415	
7	0	0	0	0	508	414	
8	0	0	0	0	508	415	
9	0	0	0	0	507	415	
10	0	0	0	0	508	415	
11	0	0	0	0	508	415	
12	0	0	0	0	507	415	
13	0	0	0	0	507	415	
14	0	0	0	0	507	415	
15	0	0	0	0	507	415	
0	0	0	0	0	508	415	
1	0	0	0	0	508	415	
2	0	0	0	0	509	415	
3	0	0	0	0	509	415	
4	0	0	0	0	509	414	
5	0	0	0	0	509	414	
6	0	0	0	0	509	414	
7	0	0	0	0	510	415	
8	0	0	0	0	509	415	
9	0	0	0	0	508	415	
10	0	0	0	0	508	414	
11	0	0	0	0	508	414	
12	0	0	0	0	508	415	
13	0	0	0	0	507	414	
14	0	0	0	0	507	414	
15	0	0	0	0	507	414	
0	0	0	0	0	507	414	
1	0	0	0	0	507	415	
2	0	0	0	0	507	414	
3	0	0	0	0	508	414	
4	0	0	0	0	509	415	
5	0	0	0	0	510	414	
6	0	0	0	0	510	414	
7	0	0	0	0	510	414	
8	0	0	0	0	510	414	
9	0	0	0	0	509	414	
10	0	0	0	0	509	415	
11	0	0	0	0	508	415	
12	0	0	0	0	508	414	
13	0	0	0	0	508	414	
14	0	0	0	0	508	415	
15	0	0	0	0	508	415	
0	0	0	0	0	509	414	
1	0	0	0	0	510	415	
2	0	0	0	0	510	414	
3	0	0	0	0	511	414	
4	0	0	0	0	510	414	
5	0	0	0	0	510	414	
6	0	0	0	0	510	414	
7	0	0	0	0	508	414	
8	0	0	0	0	508	415	
9	0	0	0	0	508	414	
10	0	0	0	0	508	414	
11	0	0	0	0	508	414	
12	0	0	0	0	507	414	
13	0	0	0	0	507	414	
14	0	0	0	0	507	414	
15	0	0	0	0	507	414	
0	0	0	0	0	508	415	
1	0	0	0	0	508	414	
2	0	0	0	0	509	415	
3	0	0	0	0	510	414	
4	0	0	0	0	510	414	
5	0	0	0	0	511	414	
6	0	0	0	0	512	414	
7	0	0	0	0	512	414	
8	0	0	0	0	512	414	
9	0	0	0	0	512	414	
10	0	0	0	0	512	414	
11	0	0	0	0	512	414	
12	0	0	0	0	511	414	
13	0	0	0	0	510	414	
14	0	0	0	0	511	414	
15	0	0	0	0	509	414	
0	0	0	0	0	509	414	
1	0	0	0	0	509	414	
2	0	0	0	0	508	414	
3	0	0	0	0	509	414	
4	0	0	0	0	510	414	
5	0	0	0	0	511	414	
6	0	0	0	0	511	414	
7	0	0	0	0	511	414	
8	0	0	0	0	511	414	
9	0	0	0	0	511	414	
10	0	0	0	0	511	414	
11	0	0	0	0	511	414	
12	0	0	0	0	509	414	
13	0	0	0	0	508	414	
14	0	0	0	0	508	414	
15	0	0	0	0	508	414	
0	0	0	0	0	508	414	
1	0	0	0	0	507	414	
2	0	0	0	0	508	414	
3	0	0	0	0	508	414	
4	0	0	0	0	508	414	
5	0	0	0	0	509	414	
6	0	0	0	0	509	414	
7	0	0	0	0	510	414	
8	0	0	0	0	510	414	
9	0	0	0	0	510	414	
10	0	0	0	0	510	414	
11	0	0	0	0	509	414	
12	0	0	0	0	508	414	
13	0	0	0	0	507	414	
14	0	0	0	0	505	414	
15	0	0	0	0	505	414	
0	0	0	0	0	504	414	
1	0	0	0	0	504	414	
2	0	0	0	0	503	414	
3	0	0	0	0	503	414	
4	0	0	0	0	503	414	
5	0	0	0	0	503	414	
6	0	0	0	0	503	414	
7	0	0	0	0	503	414	
8	0	0	0	0	502	414	
9	0	0	0	0	502	414	
10	0	0	0	0	502	414	
11	0	0	0	0	502	414	
12	0	0	0	0	502	414	
13	0	0	0	0	502	414	
14	0	0	0	0	501	414	
15	0	0	0	0	500	414	
0	0	0	0	0	500	414	
1	0	0	0	0	500	414	
2	0	0	0	0	500	414	
3	0	0	0	0	500	414	
4	0	0	0	0	501	414	
5	0	0	0	0	502	414	
6	0	0	0	0	504	414	
7	0	0	0	0	505	414	
8	0	0	0	0	506	414	
9	0	0	0	0	506	414	
10	0	0	0	0	506	414	
11	0	0	0	0	507	414	
12	0	0	0	0	506	414	
13	0	0	0	0	505	414	
14	0	0	0	0	504	414	
15	0	0	0	0	504	414	
0	0	0	0	0	502	414	
1	0	0	0	0	501	414	
2	0	0	0	0	500	414	
3	0	0	0	0	499	414	
4	0	0	0	0	499	414	
5	0	0	0	0	499	414	
6	0	0	0	0	500	414	
7	0	0	0	0	500	414	
8	0	0	0	0	501	414	
9	0	0	0	0	501	414	
10	0	0	0	0	502	414	
11	0	0	0	0	502	414	
12	0	0	0	0	502	414	
13	0	0	0	0	502	414	
14	0	0	0	0	502	414	
15	0	0	0	0	502	414	
0	0	0	0	0	502	414	
1	0	0	0	0	502	414	
2	0	0	0	0	503	414	
3	0	0	0	0	503	414	
4	0	0	0	0	503	414	
5	0	0	0	0	503	414	
6	0	0	0	0	504	414	
7	0	0	0	0	504	414	
8	0	0	0	0	505	414	
9	0	0	0	0	505	414	
10	0	0	0	0	505	414	
11	0	0	0	0	506	414	
12	0	0	0	0	505	414	
13	0	0	0	0	505	414	
14	0	0	0	0	505	414	
15	0	0	0	0	504	414	
0	0	0	0	0	505	414	
1	0	0	0	0	505	414	
2	0	0	0	0	504	414	
3	0	0	0	0	504	414	
4	0	0	0	0	504	414	
5	0	0	0	0	504	414	
6	0	0	0	0	504	414	
7	0	0	0	0	504	414	
8	0	0	0	0	504	414	
9	0	0	0	0	505	414	
10	0	0	0	0	505	414	
11	0	0	0	0	505	414	
12	0	0	0	0	506	414	
13	0	0	0	0	507	414	
14	0	0	0	0	506	414	
15	0	0	0	0	507	414	
0	0	0	0	0	506	414	
1	0	0	0	0	505	414	
2	0	0	0	0	506	414	
3	0	0	0	0	505	414	
4	0	0	0	0	506	414	
5	0	0	0	0	507	414	
6	0	0	0	0	508	414	
7	0	0	0	0	510	414	
8	0	0	0	0	510	414	
9	0	0	0	0	510	414	
10	0	0	0	0	512	414	
11	0	0	0	0	512	414	
12	0	0	0	0	513	414	
13	0	0	0	0	513	414	
14	0	0	0	0	514	414	
15	0	0	0	0	513	414	
0	0	0	0	0	513	414	
1	0	0	0	0	512	414	
2	0	0	0	0	513	414	
3	0	0	0	0	512	414	
4	0	0	0	0	512	414	
5	0	0	0	0	511	414	
6	0	0	0	0	511	414	
7	0	0	0	0	511	414	
8	0	0	0	0	512	414	
9	0	0	0	0	512	414	
10	0	0	0	0	512	414	
11	0	0	0	0	512	414	
12	0	0	0	0	512	414	
13	0	0	0	0	512	414	
14	0	0	0	0	511	414	
15	0	0	0	0	511	414	
0	0	0	0	0	511	414	
1	0	0	0	0	511	414	
2	0	0	0	0	510	414	
3	0	0	0	0	509	414	
4	0	0	0	0	508	414	
5	0	0	0	0	508	414	
6	0	0	0	0	508	414	
7	0	0	0	0	508	414	
8	0	0	0	0	507	414	
9	0	0	0	0	508	414	
10	0	0	0	0	509	414	
11	0	0	0	0	509	414	
12	0	0	0	0	508	414	
13	0	0	0	0	508	414	
14	0	0	0	0	507	414	
15	0	0	0	0	507	414	
0	0	0	0	0	506	414	
1	0	0	0	0	506	414	
2	0	0	0	0	505	414	
3	0	0	0	0	505	414	
4	0	0	0	0	505	414	
5	0	0	0	0	504	414	
6	0	0	0	0	504	414	
7	0	0	0	0	504	414	
8	0	0	0	0	504	414	
9	0	0	0	0	504	414	
10	0	0	0	0	504	414	
11	0	0	0	0	505	414	
12	0	0	0	0	505	414	
13	0	0	0	0	505	414	
14	0	0	0	0	505	414	
15	0	0	0	0	505	414	
0	0	0	0	0	505	414	
1	0	0	0	0	505	414	
2	0	0	0	0	505	414	
3	0	0	0	0	504	414	
4	0	0	0	0	503	414	
5	0	0	0	0	503	414	
6	0	0	0	0	502	414	
7	0	0	0	0	502	414	
8	0	0	0	0	501	414	
9	0	0	0	0	502	414	
10	0	0	0	0	502	414	
11	0	0	0	0	502	414	
12	0	0	0	0	502	414	
13	0	0	0	0	502	414	
14	0	0	0	0	503	414	
15	0	0	0	0	503	414	
0	0	0	0	0	503	414	
1	0	0	0	0	504	414	
2	0	0	0	0	504	414	
3	0	0	0	0	503	414	
4	0	0	0	0	503	414	
5	0	0	0	0	502	414	
6	0	0	0	0	502	414	
7	0	0	0	0	502	414	
8	0	0	0	0	502	414	
9	0	0	0	0	503	414	
10	0	0	0	0	503	414	
11	0	0	0	0	503	414	
12	0	0	0	0	504	414	
13	0	0	0	0	504	414	
14	0	0	0	0	505	414	
15	0	0	0	0	505	414	
0	0	0	0	0	506	414	
1	0	0	0	0	507	414	
2	0	0	0	0	507	414	
3	0	0	0	0	506	414	
4	0	0	0	0	505	414	
5	0	0	0	0	504	414	
6	0	0	0	0	503	414	
7	0	0	0	0	501	414	
8	0	0	0	0	499	414	
9	0	0	0	0	498	414	
10	0	0	0	0	496	414	
11	0	0	0	0	495	414	
12	0	0	0	0	492	414	
13	0	0	0	0	491	414	
14	0	0	0	0	489	414	
15	0	0	0	0	487	414	
0	0	0	0	0	487	414	
1	0	0	0	0	485	414	
2	0	0	0	0	483	414	
3	0	0	0	0	480	414	
4	0	0	0	0	478	414	
5	0	0	0	0	478	414	
6	0	0	0	0	477	414	
7	0	0	0	0	477	414	
8	0	0	0	0	478	414	
9	0	0	0	0	480	414	
10	0	0	0	0	482	414	
11	0	0	0	0	484	414	
12	0	0	0	0	487	414	
13	0	0	0	0	489	414	
14	0	0	0	0	492	414	
15	0	0	0	0	493	414	
0	0	0	0	0	494	414	
1	0	0	0	0	495	414	
2	0	0	0	0	495	414	
3	0	0	0	0	494	414	
4	0	0	0	0	493	414	
5	0	0	0	0	492	414	
6	0	0	0	0	492	414	
7	0	0	0	0	492	414	
8	0	0	0	0	493	414	
9	0	0	0	0	495	414	
10	0	0	0	0	497	414	
11	0	0	0	0	500	414	
12	0	0	0	0	503	414	
13	0	0	0	0	505	414	
14	0	0	0	0	508	414	
15	0	0	0	0	510	414	
0	0	0	0	0	512	414	
1	0	0	0	0	513	414	
2	0	0	0	0	515	414	
3	0	0	0	0	516	414	
4	0	0	0	0	518	414	
5	0	0	0	0	519	414	
6	0	0	0	0	519	414	
7	0	0	0	0	520	414	
8	0	0	0	0	521	414	
9	0	0	0	0	521	414	
10	0	0	0	0	521	414	
11	0	0	0	0	520	414	
12	0	0	0	0	520	414	
13	0	0	0	0	520	414	
14	0	0	0	0	521	414	
15	0	0	0	0	521	414	
0	0	0	0	0	520	414	
1	0	0	0	0	520	414	
2	0	0	0	0	519	414	
3	0	0	0	0	519	414	
4	0	0	0	0	518	414	
5	0	0	0	0	516	414	
6	0	0	0	0	515	414	
7	0	0	0	0	514	414	
8	0	0	0	0	513	414	
9	0	0	0	0	512	414	
10	0	0	0	0	510	414	
11	0	0	0	0	509	414	
12	0	0	0	0	508	414	
13	0	0	0	0	507	414	
14	0	0	0	0	506	414	
15	0	0	0	0	505	414	
0	0	0	0	0	505	414	
1	0	0	0	0	505	414	
2	0	0	0	0	505	414	
3	0	0	0	0	504	414	
4	0	0	0	0	504	414	
5	0	0	0	0	503	414	
6	0	0	0	0	502	414	
7	0	0	0	0	501	414	
8	0	0	0	0	502	414	
9	0	0	0	0	502	414	
10	0	0	0	0	502	414	
11	0	0	0	0	501	414	
12	0	0	0	0	501	414	
13	0	0	0	0	503	414	
14	0	0	0	0	503	414	
15	0	0	0	0	504	414	
0	0	0	0	0	505	414	
1	0	0	0	0	506	414	
2	0	0	0	0	507	414	
3	0	0	0	0	508	414	
4	0	0	0	0	508	414	
5	0	0	0	0	510	414	
6	0	0	0	0	510	414	
7	0	0	0	0	510	414	
8	0	0	0	0	510	414	
9	0	0	0	0	510	414	
10	0	0	0	0	510	414	
11	0	0	0	0	510	414	
12	0	0	0	0	510	414	
13	0	0	0	0	511	414	
14	0	0	0	0	511	414	
15	0	0	0	0	511	414	
0	0	0	0	0	511	414	
1	0	0	0	0	512	414	
2	0	0	0	0	513	414	
3	0	0	0	0	513	414	
4	0	0	0	0	513	414	
5	0	0	0	0	512	414	
6	0	0	0	0	511	413	
7	0	0	0	0	511	414	
8	0	0	0	0	511	414	
9	0	0	0	0	511	414	
10	0	0	0	0	511	414	
11	0	0	0	0	510	414	
12	0	0	0	0	508	414	
13	0	0	0	0	508	414	
14	0	0	0	0	508	414	
15	0	0	0	0	507	414	
0	0	0	0	0	507	414	
1	0	0	0	0	507	414	
2	0	0	0	0	508	414	
3	0	0	0	0	508	413	
4	0	0	0	0	508	413	
5	0	0	0	0	509	414	
6	0	0	0	0	509	414	
7	0	0	0	0	508	414	
8	0	0	0	0	509	414	
9	0	0	0	0	508	414	
10	0	0	0	0	508	414	
11	0	0	0	0	507	414	
12	0	0	0	0	506	414	
13	0	0	0	0	505	414	
14	0	0	0	0	504	414	
15	0	0	0	0	504	414	
0	0	0	0	0	504	414	
1	0	0	0	0	505	414	
2	0	0	0	0	507	414	
3	0	0	0	0	507	413	
4	0	0	0	0	508	414	
5	0	0	0	0	509	414	
6	0	0	0	0	509	414	
7	0	0	0	0	509	414	
8	0	0	0	0	509	414	
9	0	0	0	0	509	414	
10	0	0	0	0	509	414	
11	0	0	0	0	507	414	
12	0	0	0	0	506	414	
13	0	0	0	0	506	413	
14	0	0	0	0	507	414	
15	0	0	0	0	506	414	
0	0	0	0	0	506	414	
1	0	0	0	0	506	414	
2	0	0	0	0	507	414	
3	0	0	0	0	508	413	
4	0	0	0	0	508	414	
5	0	0	0	0	509	414	
6	0	0	0	0	509	414	
7	0	0	0	0	510	413	
8	0	0	0	0	510	414	
9	0	0	0	0	510	414	
10	0	0	0	0	510	414	
11	0	0	0	0	510	414	
12	0	0	0	0	509	413	
13	0	0	0	0	509	414	
14	0	0	0	0	508	414	
15	0	0	0	0	507	414	
0	0	0	0	0	507	413	
1	0	0	0	0	507	413	
2	0	0	0	0	507	414	
3	0	0	0	0	507	413	
4	0	0	0	0	507	413	
5	0	0	0	0	508	413	
6	0	0	0	0	508	413	
7	0	0	0	0	508	413	
8	0	0	0	0	508	413	
9	0	0	0	0	508	414	
10	0	0	0	0	507	413	
11	0	0	0	0	507	413	
12	0	0	0	0	507	414	
13	0	0	0	0	507	414	
14	0	0	0	0	507	413	
15	0	0	0	0	507	414	
0	0	0	0	0	507	413	
1	0	0	0	0	507	414	
2	0	0	0	0	507	413	
3	0	0	0	0	507	413	
4	0	0	0	0	507	413	
5	0	0	0	0	508	413	
6	0	0	0	0	509	414	
7	0	0	0	0	510	413	
8	0	0	0	0	510	413	
9	0	0	0	0	510	413	
10	0	0	0	0	509	413	
11	0	0	0	0	509	414	
12	0	0	0	0	508	413	
13	0	0	0	0	508	413	
14	0	0	0	0	508	413	
15	0	0	0	0	507	413	
0	0	0	0	0	506	413	
1	0	0	0	0	507	413	
2	0	0	0	0	507	413	
3	0	0	0	0	508	413	
4	0	0	0	0	508	413	
5	0	0	0	0	509	413	
6	0	0	0	0	510	413	
7	0	0	0	0	509	413	
8	0	0	0	0	510	413	
9	0	0	0	0	510	413	
10	0	0	0	0	511	413	
11	0	0	0	0	511	413	
12	0	0	0	0	511	413	
13	0	0	0	0	510	413	
14	0	0	0	0	509	413	
15	0	0	0	0	508	413	
0	0	0	0	0	508	413	
1	0	0	0	0	507	413	
2	0	0	0	0	506	413	
3	0	0	0	0	507	413	
4	0	0	0	0	507	413	
5	0	0	0	0	507	413	
6	0	0	0	0	508	413	
7	0	0	0	0	508	413	
8	0	0	0	0	508	413	
9	0	0	0	0	508	413	
10	0	0	0	0	508	413	
11	0	0	0	0	508	413	
12	0	0	0	0	508	413	
13	0	0	0	0	507	413	
14	0	0	0	0	506	414	
15	0	0	0	0	504	413	
0	0	0	0	0	503	413	
1	0	0	0	0	504	414	
2	0	0	0	0	503	413	
3	0	0	0	0	503	413	
4	0	0	0	0	503	413	
5	0	0	0	0	503	413	
6	0	0	0	0	503	413	
7	0	0	0	0	504	413	
8	0	0	0	0	505	413	
9	0	0	0	0	504	413	
10	0	0	0	0	504	413	
11	0	0	0	0	504	413	
12	0	0	0	0	503	413	
13	0	0	0	0	503	413	
14	0	0	0	0	502	413	
15	0	0	0	0	503	413	
0	0	0	0	0	502	413	
1	0	0	0	0	502	413	
2	0	0	0	0	502	413	
3	0	0	0	0	502	413	
4	0	0	0	0	502	413	
5	0	0	0	0	502	413	
6	0	0	0	0	503	413	
7	0	0	0	0	503	413	
8	0	0	0	0	504	413	
9	0	0	0	0	504	413	
10	0	0	0	0	504	413	
11	0	0	0	0	504	413	
12	0	0	0	0	505	413	
13	0	0	0	0	505	413	
14	0	0	0	0	505	413	
15	0	0	0	0	504	413	
0	0	0	0	0	504	413	
1	0	0	0	0	504	413	
2	0	0	0	0	504	413	
3	0	0	0	0	503	413	
4	0	0	0	0	503	413	
5	0	0	0	0	504	413	
6	0	0	0	0	504	413	
7	0	0	0	0	505	413	
8	0	0	0	0	506	413	
9	0	0	0	0	507	413	
10	0	0	0	0	507	413	
11	0	0	0	0	507	413	
12	0	0	0	0	508	413	
13	0	0	0	0	508	413	
14	0	0	0	0	508	413	
15	0	0	0	0	508	413	
0	0	0	0	0	508	413	
1	0	0	0	0	508	413	
2	0	0	0	0	508	413	
3	0	0	0	0	508	413	
4	0	0	0	0	509	413	
5	0	0	0	0	510	413	
6	0	0	0	0	510	413	
7	0	0	0	0	512	413	
8	0	0	0	0	514	413	
9	0	0	0	0	515	413	
10	0	0	0	0	516	413	
11	0	0	0	0	516	413	
12	0	0	0	0	516	413	
13	0	0	0	0	517	413	
14	0	0	0	0	517	413	
15	0	0	0	0	518	413	
0	0	0	0	0	518	413	
1	0	0	0	0	517	413	
2	0	0	0	0	517	413	
3	0	0	0	0	516	413	
4	0	0	0	0	516	413	
5	0	0	0	0	516	413	
6	0	0	0	0	516	413	
7	0	0	0	0	517	413	
8	0	0	0	0	517	413	
9	0	0	0	0	518	413	
10	0	0	0	0	519	413	
11	0	0	0	0	519	413	
12	0	0	0	0	519	413	
13	0	0	0	0	519	413	
14	0	0	0	0	519	413	
15	0	0	0	0	519	413	
0	0	0	0	0	520	413	
1	0	0	0	0	520	413	
2	0	0	0	0	521	413	
3	0	0	0	0	521	413	
4	0	0	0	0	520	413	
5	0	0	0	0	520	413	
6	0	0	0	0	520	413	
7	0	0	0	0	521	413	
8	0	0	0	0	520	413	
9	0	0	0	0	521	413	
10	0	0	0	0	522	413	
11	0	0	0	0	523	412	
12	0	0	0	0	524	413	
13	0	0	0	0	526	413	
14	0	0	0	0	526	412	
15	0	0	0	0	526	413	
0	0	0	0	0	526	413	
1	0	0	0	0	525	413	
2	0	0	0	0	524	413	
3	0	0	0	0	524	413	
4	0	0	0	0	524	413	
5	0	0	0	0	523	413	
6	0	0	0	0	523	413	
7	0	0	0	0	523	413	
8	0	0	0	0	523	413	
9	0	0	0	0	523	413	
10	0	0	0	0	524	412	
11	0	0	0	0	524	412	
12	0	0	0	0	524	412	
13	0	0	0	0	525	412	
14	0	0	0	0	525	412	
15	0	0	0	0	524	413	
0	0	0	0	0	524	412	
1	0	0	0	0	524	413	
2	0	0	0	0	524	413	
3	0	0	0	0	524	412	
4	0	0	0	0	523	413	
5	0	0	0	0	523	413	
6	0	0	0	0	523	413	
7	0	0	0	0	523	412	
8	0	0	0	0	522	412	
9	0	0	0	0	521	412	
10	0	0	0	0	521	413	
11	0	0	0	0	521	412	
12	0	0	0	0	520	412	
13	0	0	0	0	521	412	
14	0	0	0	0	521	412	
15	0	0	0	0	521	412	
0	0	0	0	0	521	412	
1	0	0	0	0	521	412	
2	0	0	0	0	520	412	
3	0	0	0	0	520	412	
4	0	0	0	0	519	412	
5	0	0	0	0	519	412	
6	0	0	0	0	519	412	
7	0	0	0	0	518	413	
8	0	0	0	0	518	412	
9	0	0	0	0	518	412	
10	0	0	0	0	519	412	
11	0	0	0	0	519	412	
12	0	0	0	0	519	412	
13	0	0	0	0	519	412	
14	0	0	0	0	520	412	
15	0	0	0	0	521	412	
0	0	0	0	0	521	412	
1	0	0	0	0	521	412	
2	0	0	0	0	520	412	
3	0	0	0	0	520	412	
4	0	0	0	0	520	412	
5	0	0	0	0	520	412	
6	0	0	0	0	520	412	
7	0	0	0	0	519	412	
8	0	0	0	0	519	412	
9	0	0	0	0	519	412	
10	0	0	0	0	519	412	
11	0	0	0	0	519	412	
12	0	0	0	0	519	412	
13	0	0	0	0	519	412	
14	0	0	0	0	520	412	
15	0	0	0	0	520	412	
0	0	0	0	0	520	412	
1	0	0	0	0	519	412	
2	0	0	0	0	519	412	
3	0	0	0	0	519	412	
4	0	0	0	0	519	412	
5	0	0	0	0	519	412	
6	0	0	0	0	518	412	
7	0	0	0	0	516	412	
8	0	0	0	0	516	412	
9	0	0	0	0	516	412	
10	0	0	0	0	516	412	
11	0	0	0	0	515	412	
12	0	0	0	0	515	412	
13	0	0	0	0	516	412	
14	0	0	0	0	516	412	
15	0	0	0	0	517	412	
0	0	0	0	0	517	412	
1	0	0	0	0	517	412	
2	0	0	0	0	517	412	
3	0	0	0	0	517	412	
4	0	0	0	0	517	412	
5	0	0	0	0	515	412	
6	0	0	0	0	515	412	
7	0	0	0	0	515	412	
8	0	0	0	0	514	412	
9	0	0	0	0	513	412	
10	0	0	0	0	514	412	
11	0	0	0	0	515	412	
12	0	0	0	0	515	412	
13	0	0	0	0	515	412	
14	0	0	0	0	516	412	
15	0	0	0	0	517	412	
0	0	0	0	0	517	412	
1	0	0	0	0	518	412	
2	0	0	0	0	518	412	
3	0	0	0	0	518	412	
4	0	0	0	0	518	412	
5	0	0	0	0	518	412	
6	0	0	0	0	517	412	
7	0	0	0	0	516	412	
8	0	0	0	0	516	412	
9	0	0	0	0	515	412	
10	0	0	0	0	514	412	
11	0	0	0	0	515	412	
12	0	0	0	0	515	412	
13	0	0	0	0	516	412	
14	0	0	0	0	516	412	
15	0	0	0	0	517	412	
0	0	0	0	0	518	412	
1	0	0	0	0	518	412	
2	0	0	0	0	518	412	
3	0	0	0	0	518	412	
4	0	0	0	0	518	412	
5	0	0	0	0	518	412	
6	0	0	0	0	518	412	
7	0	0	0	0	517	412	
8	0	0	0	0	517	412	
9	0	0	0	0	516	412	
10	0	0	0	0	516	412	
11	0	0	0	0	516	412	
12	0	0	0	0	516	412	
13	0	0	0	0	515	412	
14	0	0	0	0	515	412	
15	0	0	0	0	516	412	
0	0	0	0	0	517	412	
1	0	0	0	0	518	412	
2	0	0	0	0	518	412	
3	0	0	0	0	517	412	
4	0	0	0	0	518	412	
5	0	0	0	0	517	412	
6	0	0	0	0	516	412	
7	0	0	0	0	516	412	
8	0	0	0	0	515	412	
9	0	0	0	0	515	412	
10	0	0	0	0	515	412	
11	0	0	0	0	515	412	
12	0	0	0	0	515	412	
13	0	0	0	0	515	412	
14	0	0	0	0	515	412	
15	0	0	0	0	515	412	
0	0	0	0	0	515	412	
1	0	0	0	0	516	412	
2	0	0	0	0	516	411	
3	0	0	0	0	517	412	
4	0	0	0	0	515	412	
5	0	0	0	0	515	412	
6	0	0	0	0	515	412	
7	0	0	0	0	514	412	
8	0	0	0	0	513	412	
9	0	0	0	0	513	412	
10	0	0	0	0	512	412	
11	0	0	0	0	511	412	
12	0	0	0	0	511	412	
13	0	0	0	0	511	412	
14	0	0	0	0	511	412	
15	0	0	0	0	512	412	
0	0	0	0	0	512	412	
1	0	0	0	0	512	412	
2	0	0	0	0	512	412	
3	0	0	0	0	511	412	
4	0	0	0	0	510	412	
5	0	0	0	0	510	412	
6	0	0	0	0	509	411	
7	0	0	0	0	509	412	
8	0	0	0	0	508	412	
9	0	0	0	0	508	412	
10	0	0	0	0	508	412	
11	0	0	0	0	506	412	
12	0	0	0	0	505	412	
13	0	0	0	0	505	412	
14	0	0	0	0	505	412	
15	0	0	0	0	506	412	
0	0	0	0	0	507	412	
1	0	0	0	0	507	412	
2	0	0	0	0	508	412	
3	0	0	0	0	509	411	
4	0	0	0	0	510	412	
5	0	0	0	0	509	411	
6	0	0	0	0	509	412	
7	0	0	0	0	508	411	
8	0	0	0	0	507	411	
9	0	0	0	0	507	412	
10	0	0	0	0	506	411	
11	0	0	0	0	507	411	
12	0	0	0	0	507	411	
13	0	0	0	0	506	411	
14	0	0	0	0	507	412	
15	0	0	0	0	506	411	
0	0	0	0	0	507	412	
1	0	0	0	0	507	412	
2	0	0	0	0	507	411	
3	0	0	0	0	507	411	
4	0	0	0	0	508	411	
5	0	0	0	0	508	411	
6	0	0	0	0	508	411	
7	0	0	0	0	508	411	
8	0	0	0	0	507	411	
9	0	0	0	0	506	411	
10	0	0	0	0	506	412	
11	0	0	0	0	505	411	
12	0	0	0	0	505	411	
13	0	0	0	0	504	411	
14	0	0	0	0	504	411	
15	0	0	0	0	504	411	
0	0	0	0	0	504	411	
1	0	0	0	0	504	411	
2	0	0	0	0	504	411	
3	0	0	0	0	504	411	
4	0	0	0	0	504	411	
5	0	0	0	0	504	411	
6	0	0	0	0	504	411	
7	0	0	0	0	504	411	
8	0	0	0	0	504	411	
9	0	0	0	0	504	411	
10	0	0	0	0	504	411	
11	0	0	0	0	503	411	
12	0	0	0	0	503	411	
13	0	0	0	0	503	411	
14	0	0	0	0	503	411	
15	0	0	0	0	502	411	
0	0	0	0	0	502	411	
1	0	0	0	0	503	411	
2	0	0	0	0	504	411	
3	0	0	0	0	504	411	
4	0	0	0	0	504	411	
5	0	0	0	0	504	411	
6	0	0	0	0	505	411	
7	0	0	0	0	505	411	
8	0	0	0	0	505	411	
9	0	0	0	0	505	411	
10	0	0	0	0	504	411	
11	0	0	0	0	504	411	
12	0	0	0	0	504	411	
13	0	0	0	0	505	411	
14	0	0	0	0	504	411	
15	0	0	0	0	504	411	
0	0	0	0	0	504	411	
1	0	0	0	0	504	411	
2	0	0	0	0	504	411	
3	0	0	0	0	505	411	
4	0	0	0	0	506	411	
5	0	0	0	0	507	411	
6	0	0	0	0	507	411	
7	0	0	0	0	507	411	
8	0	0	0	0	507	411	
9	0	0	0	0	507	411	
10	0	0	0	0	507	411	
11	0	0	0	0	506	411	
12	0	0	0	0	505	411	
13	0	0	0	0	505	411	
14	0	0	0	0	505	411	
15	0	0	0	0	505	411	
0	0	0	0	0	504	411	
1	0	0	0	0	504	411	
2	0	0	0	0	504	411	
3	0	0	0	0	504	411	
4	0	0	0	0	504	411	
5	0	0	0	0	503	411	
6	0	0	0	0	503	411	
7	0	0	0	0	503	411	
8	0	0	0	0	503	411	
9	0	0	0	0	501	411	
10	0	0	0	0	501	411	
11	0	0	0	0	500	411	
12	0	0	0	0	500	411	
13	0	0	0	0	500	411	
14	0	0	0	0	499	411	
15	0	0	0	0	498	411	
0	0	0	0	0	497	411	
1	0	0	0	0	497	411	
2	0	0	0	0	498	411	
3	0	0	0	0	499	411	
4	0	0	0	0	499	411	
5	0	0	0	0	500	411	
6	0	0	0	0	500	411	
7	0	0	0	0	500	411	
8	0	0	0	0	500	411	
9	0	0	0	0	500	411	
10	0	0	0	0	499	411	
11	0	0	0	0	499	411	
12	0	0	0	0	498	411	
13	0	0	0	0	497	411	
14	0	0	0	0	496	411	
15	0	0	0	0	496	411	
0	0	0	0	0	496	411	
1	0	0	0	0	496	411	
2	0	0	0	0	496	411	
3	0	0	0	0	496	411	
4	0	0	0	0	497	411	
5	0	0	0	0	497	411	
6	0	0	0	0	497	411	
7	0	0	0	0	497	411	
8	0	0	0	0	498	410	
9	0	0	0	0	499	411	
10	0	0	0	0	500	410	
11	0	0	0	0	501	411	
12	0	0	0	0	500	411	
13	0	0	0	0	500	411	
14	0	0	0	0	500	411	
15	0	0	0	0	499	411	
0	0	0	0	0	499	411	
1	0	0	0	0	499	411	
2	0	0	0	0	499	410	
3	0	0	0	0	500	411	
4	0	0	0	0	500	411	
5	0	0	0	0	501	410	
6	0	0	0	0	502	410	
7	0	0	0	0	503	410	
8	0	0	0	0	504	410	
9	0	0	0	0	504	410	
10	0	0	0	0	504	410	
11	0	0	0	0	504	410	
12	0	0	0	0	503	410	
13	0	0	0	0	504	410	
14	0	0	0	0	503	410	
15	0	0	0	0	502	410	
0	0	0	0	0	503	410	
1	0	0	0	0	502	410	
2	0	0	0	0	502	410	
3	0	0	0	0	501	410	
4	0	0	0	0	501	410	
5	0	0	0	0	502	410	
6	0	0	0	0	502	410	
7	0	0	0	0	503	410	
8	0	0	0	0	503	410	
9	0	0	0	0	504	410	
10	0	0	0	0	504	410	
11	0	0	0	0	504	410	
12	0	0	0	0	505	410	
13	0	0	0	0	505	410	
14	0	0	0	0	505	410	
15	0	0	0	0	505	410	
0	0	0	0	0	504	410	
1	0	0	0	0	504	410	
2	0	0	0	0	504	410	
3	0	0	0	0	505	410	
4	0	0	0	0	505	410	
5	0	0	0	0	505	410	
6	0	0	0	0	506	410	
7	0	0	0	0	506	410	
8	0	0	0	0	507	410	
9	0	0	0	0	508	410	
10	0	0	0	0	509	410	
11	0	0	0	0	510	410	
12	0	0	0	0	510	410	
13	0	0	0	0	511	410	
14	0	0	0	0	511	410	
15	0	0	0	0	511	410	
0	0	0	0	0	511	410	
1	0	0	0	0	510	410	
2	0	0	0	0	511	410	
3	0	0	0	0	510	410	
4	0	0	0	0	510	410	
5	0	0	0	0	510	410	
6	0	0	0	0	510	410	
7	0	0	0	0	510	410	
8	0	0	0	0	510	410	
9	0	0	0	0	511	410	
10	0	0	0	0	511	410	
11	0	0	0	0	512	410	
12	0	0	0	0	511	410	
13	0	0	0	0	510	410	
14	0	0	0	0	509	410	
15	0	0	0	0	508	410	
0	0	0	0	0	508	410	
1	0	0	0	0	507	410	
2	0	0	0	0	508	410	
3	0	0	0	0	507	410	
4	0	0	0	0	507	410	
5	0	0	0	0	508	410	
6	0	0	0	0	508	410	
7	0	0	0	0	508	410	
8	0	0	0	0	508	409	
9	0	0	0	0	509	410	
10	0	0	0	0	509	409	
11	0	0	0	0	510	409	
12	0	0	0	0	510	409	
13	0	0	0	0	510	409	
14	0	0	0	0	510	409	
15	0	0	0	0	509	409	
0	0	0	0	0	508	409	
1	0	0	0	0	507	410	
2	0	0	0	0	506	409	
3	0	0	0	0	505	410	
4	0	0	0	0	505	409	
5	0	0	0	0	504	409	
6	0	0	0	0	504	409	
7	0	0	0	0	504	409	
8	0	0	0	0	505	409	
9	0	0	0	0	506	409	
10	0	0	0	0	506	409	
11	0	0	0	0	506	409	
12	0	0	0	0	506	409	
13	0	0	0	0	506	409	
14	0	0	0	0	506	409	
15	0	0	0	0	506	409	
0	0	0	0	0	505	409	
1	0	0	0	0	505	409	
2	0	0	0	0	505	409	
3	0	0	0	0	504	409	
4	0	0	0	0	504	410	
5	0	0	0	0	504	409	
6	0	0	0	0	504	409	
7	0	0	0	0	504	409	
8	0	0	0	0	504	409	
9	0	0	0	0	504	409	
10	0	0	0	0	504	409	
11	0	0	0	0	505	409	
12	0	0	0	0	504	409	
13	0	0	0	0	503	409	
14	0	0	0	0	502	409	
15	0	0	0	0	503	409	
0	0	0	0	0	502	409	
1	0	0	0	0	501	409	
2	0	0	0	0	500	409	
3	0	0	0	0	499	409	
4	0	0	0	0	498	409	
5	0	0	0	0	497	409	
6	0	0	0	0	496	409	
7	0	0	0	0	496	409	
8	0	0	0	0	496	409	
9	0	0	0	0	496	409	
10	0	0	0	0	496	409	
11	0	0	0	0	496	409	
12	0	0	0	0	497	409	
13	0	0	0	0	498	409	
14	0	0	0	0	499	409	
15	0	0	0	0	500	409	
0	0	0	0	0	500	409	
1	0	0	0	0	500	409	
2	0	0	0	0	500	409	
3	0	0	0	0	501	409	
4	0	0	0	0	500	409	
5	0	0	0	0	501	409	
6	0	0	0	0	501	409	
7	0	0	0	0	501	409	
8	0	0	0	0	501	409	
9	0	0	0	0	500	409	
10	0	0	0	0	500	409	
11	0	0	0	0	500	409	
12	0	0	0	0	502	409	
13	0	0	0	0	503	409	
14	0	0	0	0	503	409	
15	0	0	0	0	504	409	
0	0	0	0	0	504	409	
1	0	0	0	0	504	409	
2	0	0	0	0	504	409	
3	0	0	0	0	503	409	
4	0	0	0	0	503	409	
5	0	0	0	0	502	409	
6	0	0	0	0	501	409	
7	0	0	0	0	501	409	
8	0	0	0	0	501	409	
9	0	0	0	0	501	409	
10	0	0	0	0	502	409	
11	0	0	0	0	502	409	
12	0	0	0	0	503	409	
13	0	0	0	0	504	409	
14	0	0	0	0	504	409	
15	0	0	0	0	504	409	
0	0	0	0	0	505	409	
1	0	0	0	0	505	409	
2	0	0	0	0	505	408	
3	0	0	0	0	507	409	
4	0	0	0	0	507	409	
5	0	0	0	0	507	409	
6	0	0	0	0	507	409	
7	0	0	0	0	507	409	
8	0	0	0	0	507	409	
9	0	0	0	0	507	409	
10	0	0	0	0	508	409	
11	0	0	0	0	508	409	
12	0	0	0	0	508	408	
13	0	0	0	0	509	409	
14	0	0	0	0	509	408	
15	0	0	0	0	510	408	
0	0	0	0	0	511	409	
1	0	0	0	0	511	408	
2	0	0	0	0	512	408	
3	0	0	0	0	511	408	
4	0	0	0	0	511	408	
5	0	0	0	0	510	408	
6	0	0	0	0	510	408	
7	0	0	0	0	509	408	
8	0	0	0	0	509	408	
9	0	0	0	0	509	408	
10	0	0	0	0	510	408	
11	0	0	0	0	509	408	
12	0	0	0	0	509	409	
13	0	0	0	0	508	408	
14	0	0	0	0	509	408	
15	0	0	0	0	510	408	
0	0	0	0	0	511	408	
1	0	0	0	0	510	408	
2	0	0	0	0	511	408	
3	0	0	0	0	511	408	
4	0	0	0	0	511	408	
5	0	0	0	0	511	408	
6	0	0	0	0	511	408	
7	0	0	0	0	510	408	
8	0	0	0	0	510	408	
9	0	0	0	0	509	408	
10	0	0	0	0	509	408	
11	0	0	0	0	510	408	
12	0	0	0	0	509	408	
13	0	0	0	0	509	408	
14	0	0	0	0	509	408	
15	0	0	0	0	510	408	
0	0	0	0	0	511	408	
1	0	0	0	0	511	408	
2	0	0	0	0	511	408	
3	0	0	0	0	511	408	
4	0	0	0	0	511	408	
5	0	0	0	0	510	408	
6	0	0	0	0	510	408	
7	0	0	0	0	509	408	
8	0	0	0	0	509	408	
9	0	0	0	0	508	408	
10	0	0	0	0	509	408	
11	0	0	0	0	509	408	
12	0	0	0	0	509	408	
13	0	0	0	0	509	408	
14	0	0	0	0	509	408	
15	0	0	0	0	510	408	
0	0	0	0	0	510	408	
1	0	0	0	0	511	408	
2	0	0	0	0	512	408	
3	0	0	0	0	511	408	
4	0	0	0	0	512	408	
5	0	0	0	0	512	408	
6	0	0	0	0	512	408	
7	0	0	0	0	512	408	
8	0	0	0	0	512	408	
9	0	0	0	0	511	408	
10	0	0	0	0	512	408	
11	0	0	0	0	512	408	
12	0	0	0	0	512	408	
13	0	0	0	0	511	408	
14	0	0	0	0	511	408	
15	0	0	0	0	512	408	
0	0	0	0	0	512	408	
1	0	0	0	0	513	408	
2	0	0	0	0	513	408	
3	0	0	0	0	514	408	
4	0	0	0	0	514	408	
5	0	0	0	0	515	408	
6	0	0	0	0	515	408	
7	0	0	0	0	515	408	
8	0	0	0	0	516	408	
9	0	0	0	0	516	408	
10	0	0	0	0	515	408	
11	0	0	0	0	515	408	
12	0	0	0	0	515	408	
13	0	0	0	0	516	408	
14	0	0	0	0	518	408	
15	0	0	0	0	518	408	
0	0	0	0	0	519	408	
1	0	0	0	0	518	408	
2	0	0	0	0	519	408	
3	0	0	0	0	517	408	
4	0	0	0	0	516	408	
5	0	0	0	0	513	408	
6	0	0	0	0	511	408	
7	0	0	0	0	510	408	
8	0	0	0	0	507	408	
9	0	0	0	0	504	408	
10	0	0	0	0	502	408	
11	0	0	0	0	499	408	
12	0	0	0	0	497	408	
13	0	0	0	0	496	408	
14	0	0	0	0	495	408	
15	0	0	0	0	494	408	
0	0	0	0	0	492	408	
1	0	0	0	0	491	408	
2	0	0	0	0	491	408	
3	0	0	0	0	490	408	
4	0	0	0	0	491	408	
5	0	0	0	0	492	408	
6	0	0	0	0	494	408	
7	0	0	0	0	495	408	
8	0	0	0	0	497	408	
9	0	0	0	0	498	408	
10	0	0	0	0	498	408	
11	0	0	0	0	500	408	
12	0	0	0	0	500	408	
13	0	0	0	0	500	408	
14	0	0	0	0	501	408	
15	0	0	0	0	500	408	
0	0	0	0	0	500	408	
1	0	0	0	0	500	408	
2	0	0	0	0	500	408	
3	0	0	0	0	500	407	
4	0	0	0	0	500	408	
5	0	0	0	0	502	408	
6	0	0	0	0	504	408	
7	0	0	0	0	505	408	
8	0	0	0	0	506	408	
9	0	0	0	0	509	408	
10	0	0	0	0	510	407	
11	0	0	0	0	512	408	
12	0	0	0	0	513	408	
13	0	0	0	0	514	408	
14	0	0	0	0	514	407	
15	0	0	0	0	515	408	
0	0	0	0	0	515	407	
1	0	0	0	0	516	407	
2	0	0	0	0	518	407	
3	0	0	0	0	519	407	
4	0	0	0	0	520	407	
5	0	0	0	0	521	407	
6	0	0	0	0	522	407	
7	0	0	0	0	522	407	
8	0	0	0	0	522	407	
9	0	0	0	0	521	407	
10	0	0	0	0	519	407	
11	0	0	0	0	519	407	
12	0	0	0	0	519	407	
13	0	0	0	0	517	407	
14	0	0	0	0	517	407	
15	0	0	0	0	515	407	
0	0	0	0	0	515	407	
1	0	0	0	0	514	407	
2	0	0	0	0	514	407	
3	0	0	0	0	514	407	
4	0	0	0	0	514	407	
5	0	0	0	0	513	407	
6	0	0	0	0	511	407	
7	0	0	0	0	510	407	
8	0	0	0	0	509	407	
9	0	0	0	0	508	407	
10	0	0	0	0	507	407	
11	0	0	0	0	505	407	
12	0	0	0	0	505	407	
13	0	0	0	0	504	407	
14	0	0	0	0	504	407	
15	0	0	0	0	502	407	
0	0	0	0	0	502	407	
1	0	0	0	0	502	407	
2	0	0	0	0	502	407	
3	0	0	0	0	502	407	
4	0	0	0	0	504	407	
5	0	0	0	0	504	407	
6	0	0	0	0	504	407	
7	0	0	0	0	505	407	
8	0	0	0	0	505	407	
9	0	0	0	0	506	407	
10	0	0	0	0	507	407	
11	0	0	0	0	506	407	
12	0	0	0	0	506	407	
13	0	0	0	0	505	407	
14	0	0	0	0	506	407	
15	0	0	0	0	507	407	
0	0	0	0	0	507	407	
1	0	0	0	0	508	407	
2	0	0	0	0	508	407	
3	0	0	0	0	508	407	
4	0	0	0	0	510	407	
5	0	0	0	0	510	407	
6	0	0	0	0	511	407	
7	0	0	0	0	511	407	
8	0	0	0	0	510	407	
9	0	0	0	0	511	407	
10	0	0	0	0	510	407	
11	0	0	0	0	510	407	
12	0	0	0	0	509	407	
13	0	0	0	0	507	407	
14	0	0	0	0	506	407	
15	0	0	0	0	506	407	
0	0	0	0	0	506	407	
1	0	0	0	0	505	407	
2	0	0	0	0	505	407	
3	0	0	0	0	504	407	
4	0	0	0	0	505	407	
5	0	0	0	0	505	407	
6	0	0	0	0	504	407	
7	0	0	0	0	504	407	
8	0	0	0	0	504	407	
9	0	0	0	0	504	407	
10	0	0	0	0	504	407	
11	0	0	0	0	503	407	
12	0	0	0	0	503	407	
13	0	0	0	0	502	407	
14	0	0	0	0	502	407	
15	0	0	0	0	501	407	
0	0	0	0	0	501	407	
1	0	0	0	0	500	407	
2	0	0	0	0	500	407	
3	0	0	0	0	500	406	
4	0	0	0	0	500	407	
5	0	0	0	0	499	406	
6	0	0	0	0	500	406	
7	0	0	0	0	500	406	
8	0	0	0	0	501	407	
9	0	0	0	0	501	406	
10	0	0	0	0	502	407	
11	0	0	0	0	502	407	
12	0	0	0	0	502	407	
13	0	0	0	0	502	407	
14	0	0	0	0	502	407	
15	0	0	0	0	502	407	
0	0	0	0	0	502	406	
1	0	0	0	0	502	406	
2	0	0	0	0	503	406	
3	0	0	0	0	502	407	
4	0	0	0	0	502	407	
5	0	0	0	0	502	406	
6	0	0	0	0	503	406	
7	0	0	0	0	503	406	
8	0	0	0	0	504	406	
9	0	0	0	0	504	406	
10	0	0	0	0	504	406	
11	0	0	0	0	503	407	
12	0	0	0	0	503	406	
13	0	0	0	0	502	406	
14	0	0	0	0	502	406	
15	0	0	0	0	501	406	
0	0	0	0	0	500	406	
1	0	0	0	0	500	406	
2	0	0	0	0	501	406	
3	0	0	0	0	500	406	
4	0	0	0	0	500	406	
5	0	0	0	0	501	406	
6	0	0	0	0	501	406	
7	0	0	0	0	501	406	
8	0	0	0	0	502	406	
9	0	0	0	0	502	406	
10	0	0	0	0	503	406	
11	0	0	0	0	502	406	
12	0	0	0	0	503	406	
13	0	0	0	0	502	406	
14	0	0	0	0	502	406	
15	0	0	0	0	501	406	
0	0	0	0	0	500	406	
1	0	0	0	0	500	406	
2	0	0	0	0	500	406	
3	0	0	0	0	499	406	
4	0	0	0	0	499	406	
5	0	0	0	0	499	406	
6	0	0	0	0	499	406	
7	0	0	0	0	500	406	
8	0	0	0	0	500	406	
9	0	0	0	0	500	406	
10	0	0	0	0	500	406	
11	0	0	0	0	500	406	
12	0	0	0	0	500	406	
13	0	0	0	0	499	406	
14	0	0	0	0	500	406	
15	0	0	0	0	499	406	
0	0	0	0	0	498	406	
1	0	0	0	0	497	406	
2	0	0	0	0	497	406	
3	0	0	0	0	496	406	
4	0	0	0	0	495	406	
5	0	0	0	0	496	406	
6	0	0	0	0	495	406	
7	0	0	0	0	495	406	
8	0	0	0	0	496	406	
9	0	0	0	0	496	406	
10	0	0	0	0	497	406	
11	0	0	0	0	496	406	
12	0	0	0	0	496	406	
13	0	0	0	0	496	406	
14	0	0	0	0	495	406	
15	0	0	0	0	495	406	
0	0	0	0	0	494	406	
1	0	0	0	0	493	406	
2	0	0	0	0	492	406	
3	0	0	0	0	491	406	
4	0	0	0	0	491	406	
5	0	0	0	0	491	406	
6	0	0	0	0	492	406	
7	0	0	0	0	491	406	
8	0	0	0	0	492	406	
9	0	0	0	0	493	406	
10	0	0	0	0	493	406	
11	0	0	0	0	494	406	
12	0	0	0	0	494	406	
13	0	0	0	0	494	406	
14	0	0	0	0	494	406	
15	0	0	0	0	494	406	
0	0	0	0	0	494	406	
1	0	0	0	0	494	406	
2	0	0	0	0	494	406	
3	0	0	0	0	493	406	
4	0	0	0	0	492	406	
5	0	0	0	0	492	406	
6	0	0	0	0	492	406	
7	0	0	0	0	492	406	
8	0	0	0	0	492	406	
9	0	0	0	0	493	406	
10	0	0	0	0	494	406	
11	0	0	0	0	494	405	
12	0	0	0	0	494	405	
13	0	0	0	0	494	405	
14	0	0	0	0	494	405	
15	0	0	0	0	493	405	
0	0	0	0	0	493	406	
1	0	0	0	0	492	405	
2	0	0	0	0	494	406	
3	0	0	0	0	493	406	
4	0	0	0	0	492	406	
5	0	0	0	0	492	406	
6	0	0	0	0	492	405	
7	0	0	0	0	492	406	
8	0	0	0	0	492	406	
9	0	0	0	0	493	405	
10	0	0	0	0	494	405	
11	0	0	0	0	493	405	
12	0	0	0	0	494	406	
13	0	0	0	0	495	405	
14	0	0	0	0	495	405	
15	0	0	0	0	496	405	
0	0	0	0	0	496	405	
1	0	0	0	0	497	406	
2	0	0	0	0	498	405	
3	0	0	0	0	497	405	
4	0	0	0	0	497	405	
5	0	0	0	0	497	405	
6	0	0	0	0	497	405	
7	0	0	0	0	497	405	
8	0	0	0	0	498	405	
9	0	0	0	0	499	405	
10	0	0	0	0	500	405	
11	0	0	0	0	501	405	
12	0	0	0	0	502	405	
13	0	0	0	0	503	405	
14	0	0	0	0	504	405	
15	0	0	0	0	504	405	
0	0	0	0	0	505	405	
1	0	0	0	0	505	405	
2	0	0	0	0	505	405	
3	0	0	0	0	505	405	
4	0	0	0	0	504	405	
5	0	0	0	0	504	405	
6	0	0	0	0	504	405	
7	0	0	0	0	504	405	
8	0	0	0	0	504	405	
9	0	0	0	0	505	405	
10	0	0	0	0	505	405	
11	0	0	0	0	507	405	
12	0	0	0	0	509	405	
13	0	0	0	0	509	405	
14	0	0	0	0	510	405	
15	0	0	0	0	510	405	
0	0	0	0	0	511	405	
1	0	0	0	0	512	405	
2	0	0	0	0	512	405	
3	0	0	0	0	512	405	
4	0	0	0	0	512	405	
5	0	0	0	0	512	405	
6	0	0	0	0	512	405	
7	0	0	0	0	513	405	
8	0	0	0	0	513	405	
9	0	0	0	0	513	405	
10	0	0	0	0	514	405	
11	0	0	0	0	515	405	
12	0	0	0	0	515	405	
13	0	0	0	0	515	405	
14	0	0	0	0	516	405	
15	0	0	0	0	516	405	
0	0	0	0	0	516	405	
1	0	0	0	0	516	405	
2	0	0	0	0	517	404	
3	0	0	0	0	518	405	
4	0	0	0	0	517	404	
5	0	0	0	0	517	405	
6	0	0	0	0	518	404	
7	0	0	0	0	518	404	
8	0	0	0	0	519	405	
9	0	0	0	0	519	404	
10	0	0	0	0	521	405	
11	0	0	0	0	522	405	
12	0	0	0	0	523	404	
13	0	0	0	0	524	404	
14	0	0	0	0	524	404	
15	0	0	0	0	525	404	
0	0	0	0	0	527	404	
1	0	0	0	0	527	404	
2	0	0	0	0	528	405	
3	0	0	0	0	528	405	
4	0	0	0	0	529	405	
5	0	0	0	0	528	405	
6	0	0	0	0	527	404	
7	0	0	0	0	528	405	
8	0	0	0	0	528	405	
9	0	0	0	0	527	404	
10	0	0	0	0	528	405	
11	0	0	0	0	528	404	
12	0	0	0	0	529	404	
13	0	0	0	0	529	404	
14	0	0	0	0	529	404	
15	0	0	0	0	530	404	
0	0	0	0	0	529	404	
1	0	0	0	0	529	404	
2	0	0	0	0	529	404	
3	0	0	0	0	529	404	
4	0	0	0	0	529	404	
5	0	0	0	0	529	404	
6	0	0	0	0	529	404	
7	0	0	0	0	528	404	
8	0	0	0	0	528	404	
9	0	0	0	0	527	404	
10	0	0	0	0	528	404	
11	0	0	0	0	527	404	
12	0	0	0	0	527	404	
13	0	0	0	0	526	404	
14	0	0	0	0	526	404	
15	0	0	0	0	526	404	
0	0	0	0	0	527	404	
1	0	0	0	0	526	404	
2	0	0	0	0	525	404	
3	0	0	0	0	524	404	
4	0	0	0	0	525	404	
5	0	0	0	0	524	404	
6	0	0	0	0	524	404	
7	0	0	0	0	524	404	
8	0	0	0	0	524	404	
9	0	0	0	0	523	404	
10	0	0	0	0	523	404	
11	0	0	0	0	522	404	
12	0	0	0	0	523	404	
13	0	0	0	0	523	404	
14	0	0	0	0	523	404	
15	0	0	0	0	524	404	
0	0	0	0	0	525	404	
1	0	0	0	0	525	404	
2	0	0	0	0	526	404	
3	0	0	0	0	526	404	
4	0	0	0	0	526	404	
5	0	0	0	0	526	404	
6	0	0	0	0	526	404	
7	0	0	0	0	525	404	
8	0	0	0	0	524	404	
9	0	0	0	0	524	404	
10	0	0	0	0	524	404	
11	0	0	0	0	523	404	
12	0	0	0	0	523	404	
13	0	0	0	0	523	404	
14	0	0	0	0	524	404	
15	0	0	0	0	524	404	
0	0	0	0	0	524	404	
1	0	0	0	0	525	404	
2	0	0	0	0	525	404	
3	0	0	0	0	525	404	
4	0	0	0	0	525	404	
5	0	0	0	0	524	404	
6	0	0	0	0	524	404	
7	0	0	0	0	523	404	
8	0	0	0	0	523	404	
9	0	0	0	0	522	404	
10	0	0	0	0	521	404	
11	0	0	0	0	520	404	
12	0	0	0	0	520	404	
13	0	0	0	0	519	404	
14	0	0	0	0	519	404	
15	0	0	0	0	519	404	
0	0	0	0	0	519	404	
1	0	0	0	0	519	404	
2	0	0	0	0	520	404	
3	0	0	0	0	520	404	
4	0	0	0	0	519	404	
5	0	0	0	0	519	404	
6	0	0	0	0	518	404	
7	0	0	0	0	518	404	
8	0	0	0	0	516	404	
9	0	0	0	0	515	404	
10	0	0	0	0	515	404	
11	0	0	0	0	514	404	
12	0	0	0	0	515	404	
13	0	0	0	0	514	404	
14	0	0	0	0	513	404	
15	0	0	0	0	513	404	
0	0	0	0	0	513	404	
1	0	0	0	0	513	404	
2	0	0	0	0	513	404	
3	0	0	0	0	513	403	
4	0	0	0	0	513	403	
5	0	0	0	0	514	404	
6	0	0	0	0	513	404	
7	0	0	0	0	513	403	
8	0	0	0	0	512	404	
9	0	0	0	0	511	403	
10	0	0	0	0	510	404	
11	0	0	0	0	509	403	
12	0	0	0	0	510	404	
13	0	0	0	0	509	404	
14	0	0	0	0	508	404	
15	0	0	0	0	509	404	
0	0	0	0	0	509	404	
1	0	0	0	0	510	403	
2	0	0	0	0	511	403	
3	0	0	0	0	511	403	
4	0	0	0	0	511	403	
5	0	0	0	0	512	403	
6	0	0	0	0	512	403	
7	0	0	0	0	512	403	
8	0	0	0	0	512	403	
9	0	0	0	0	512	403	
10	0	0	0	0	512	403	
11	0	0	0	0	511	403	
12	0	0	0	0	511	403	
13	0	0	0	0	511	403	
14	0	0	0	0	511	403	
15	0	0	0	0	511	403	
0	0	0	0	0	511	403	
1	0	0	0	0	512	403	
2	0	0	0	0	512	403	
3	0	0	0	0	513	403	
4	0	0	0	0	513	403	
5	0	0	0	0	514	403	
6	0	0	0	0	514	403	
7	0	0	0	0	515	403	
8	0	0	0	0	515	403	
9	0	0	0	0	515	403	
10	0	0	0	0	515	403	
11	0	0	0	0	514	403	
12	0	0	0	0	514	403	
13	0	0	0	0	514	403	
14	0	0	0	0	514	403	
15	0	0	0	0	513	403	
0	0	0	0	0	513	403	
1	0	0	0	0	513	403	
2	0	0	0	0	514	403	
3	0	0	0	0	515	403	
4	0	0	0	0	515	403	
5	0	0	0	0	516	403	
6	0	0	0	0	516	403	
7	0	0	0	0	516	403	
8	0	0	0	0	516	403	
9	0	0	0	0	516	403	
10	0	0	0	0	516	403	
11	0	0	0	0	515	403	
12	0	0	0	0	515	403	
13	0	0	0	0	514	403	
14	0	0	0	0	514	403	
15	0	0	0	0	513	403	
0	0	0	0	0	514	403	
1	0	0	0	0	513	403	
2	0	0	0	0	514	403	
3	0	0	0	0	513	403	
4	0	0	0	0	513	403	
5	0	0	0	0	514	403	
6	0	0	0	0	514	403	
7	0	0	0	0	514	403	
8	0	0	0	0	513	403	
9	0	0	0	0	512	403	
10	0	0	0	0	513	403	
11	0	0	0	0	513	403	
12	0	0	0	0	513	403	
13	0	0	0	0	512	403	
14	0	0	0	0	512	403	
15	0	0	0	0	512	403	
0	0	0	0	0	512	403	
1	0	0	0	0	512	403	
2	0	0	0	0	512	403	
3	0	0	0	0	513	403	
4	0	0	0	0	513	403	
5	0	0	0	0	513	403	
6	0	0	0	0	513	403	
7	0	0	0	0	514	403	
8	0	0	0	0	514	403	
9	0	0	0	0	514	403	
10	0	0	0	0	514	403	
11	0	0	0	0	514	403	
12	0	0	0	0	513	403	
13	0	0	0	0	512	403	
14	0	0	0	0	512	403	
15	0	0	0	0	512	403	
0	0	0	0	0	513	403	
1	0	0	0	0	513	403	
2	0	0	0	0	513	403	
3	0	0	0	0	513	403	
4	0	0	0	0	514	403	
5	0	0	0	0	515	403	
6	0	0	0	0	515	403	
7	0	0	0	0	515	403	
8	0	0	0	0	515	403	
9	0	0	0	0	515	403	
10	0	0	0	0	515	403	
11	0	0	0	0	514	403	
12	0	0	0	0	514	403	
13	0	0	0	0	513	403	
14	0	0	0	0	512	403	
15	0	0	0	0	512	403	
0	0	0	0	0	511	403	
1	0	0	0	0	511	403	
2	0	0	0	0	511	403	
3	0	0	0	0	510	403	
4	0	0	0	0	511	403	
5	0	0	0	0	511	403	
6	0	0	0	0	512	403	
7	0	0	0	0	513	403	
8	0	0	0	0	513	403	
9	0	0	0	0	514	403	
10	0	0	0	0	514	403	
11	0	0	0	0	513	403	
12	0	0	0	0	514	403	
13	0	0	0	0	514	403	
14	0	0	0	0	514	403	
15	0	0	0	0	513	403	
0	0	0	0	0	513	403	
1	0	0	0	0	512	403	
2	0	0	0	0	513	403	
3	0	0	0	0	513	403	
4	0	0	0	0	513	403	
5	0	0	0	0	513	403	
6	0	0	0	0	514	403	
7	0	0	0	0	514	402	
8	0	0	0	0	515	402	
9	0	0	0	0	516	402	
10	0	0	0	0	515	402	
11	0	0	0	0	515	403	
12	0	0	0	0	515	402	
13	0	0	0	0	515	403	
14	0	0	0	0	514	403	
15	0	0	0	0	515	402	
0	0	0	0	0	514	403	
1	0	0	0	0	513	403	
2	0	0	0	0	513	403	
3	0	0	0	0	513	402	
4	0	0	0	0	513	402	
5	0	0	0	0	515	403	
6	0	0	0	0	514	402	
7	0	0	0	0	515	403	
8	0	0	0	0	515	402	
9	0	0	0	0	515	402	
10	0	0	0	0	516	402	
11	0	0	0	0	516	402	
12	0	0	0	0	516	402	
13	0	0	0	0	516	402	
14	0	0	0	0	516	402	
15	0	0	0	0	516	402	
0	0	0	0	0	516	402	
1	0	0	0	0	516	402	
2	0	0	0	0	515	402	
3	0	0	0	0	515	402	
4	0	0	0	0	515	402	
5	0	0	0	0	515	402	
6	0	0	0	0	515	402	
7	0	0	0	0	516	402	
8	0	0	0	0	516	402	
9	0	0	0	0	516	402	
10	0	0	0	0	517	402	
11	0	0	0	0	517	402	
12	0	0	0	0	517	402	
13	0	0	0	0	517	402	
14	0	0	0	0	518	402	
15	0	0	0	0	518	402	
0	0	0	0	0	517	402	
1	0	0	0	0	516	402	
2	0	0	0	0	516	402	
3	0	0	0	0	516	402	
4	0	0	0	0	515	402	
5	0	0	0	0	515	402	
6	0	0	0	0	515	402	
7	0	0	0	0	515	402	
8	0	0	0	0	515	402	
9	0	0	0	0	515	402	
10	0	0	0	0	515	402	
11	0	0	0	0	515	402	
12	0	0	0	0	515	402	
13	0	0	0	0	515	402	
14	0	0	0	0	515	402	
15	0	0	0	0	515	402	
0	0	0	0	0	514	402	
1	0	0	0	0	515	402	
2	0	0	0	0	515	402	
3	0	0	0	0	514	402	
4	0	0	0	0	514	402	
5	0	0	0	0	513	402	
6	0	0	0	0	513	402	
7	0	0	0	0	514	402	
8	0	0	0	0	514	402	
9	0	0	0	0	514	402	
10	0	0	0	0	515	402	
11	0	0	0	0	516	402	
12	0	0	0	0	516	402	
13	0	0	0	0	517	402	
14	0	0	0	0	517	402	
15	0	0	0	0	518	402	
0	0	0	0	0	517	402	
1	0	0	0	0	517	402	
2	0	0	0	0	516	402	
3	0	0	0	0	516	402	
4	0	0	0	0	516	402	
5	0	0	0	0	517	402	
6	0	0	0	0	517	402	
7	0	0	0	0	518	402	
8	0	0	0	0	518	402	
9	0	0	0	0	518	401	
10	0	0	0	0	519	402	
11	0	0	0	0	520	402	
12	0	0	0	0	520	401	
13	0	0	0	0	521	402	
14	0	0	0	0	520	402	
15	0	0	0	0	521	401	
0	0	0	0	0	521	402	
1	0	0	0	0	521	401	
2	0	0	0	0	520	401	
3	0	0	0	0	519	401	
4	0	0	0	0	520	402	
5	0	0	0	0	519	401	
6	0	0	0	0	519	401	
7	0	0	0	0	519	402	
8	0	0	0	0	520	401	
9	0	0	0	0	521	401	
10	0	0	0	0	522	401	
11	0	0	0	0	523	401	
12	0	0	0	0	524	401	
13	0	0	0	0	523	401	
14	0	0	0	0	524	401	
15	0	0	0	0	524	401	
0	0	0	0	0	524	401	
1	0	0	0	0	523	401	
2	0	0	0	0	522	401	
3	0	0	0	0	521	401	
4	0	0	0	0	521	401	
5	0	0	0	0	521	401	
6	0	0	0	0	522	402	
7	0	0	0	0	521	401	
8	0	0	0	0	522	402	
9	0	0	0	0	522	401	
10	0	0	0	0	523	401	
11	0	0	0	0	524	401	
12	0	0	0	0	524	401	
13	0	0	0	0	524	401	
14	0	0	0	0	525	401	
15	0	0	0	0	524	401	
0	0	0	0	0	524	401	
1	0	0	0	0	524	401	
2	0	0	0	0	524	401	
3	0	0	0	0	522	401	
4	0	0	0	0	521	401	
5	0	0	0	0	520	401	
6	0	0	0	0	520	401	
7	0	0	0	0	520	401	
8	0	0	0	0	519	401	
9	0	0	0	0	520	401	
10	0	0	0	0	520	401	
11	0	0	0	0	520	401	
12	0	0	0	0	520	401	
13	0	0	0	0	521	401	
14	0	0	0	0	521	401	
15	0	0	0	0	521	401	
0	0	0	0	0	522	401	
1	0	0	0	0	523	401	
2	0	0	0	0	523	401	
3	0	0	0	0	522	401	
4	0	0	0	0	522	401	
5	0	0	0	0	521	401	
6	0	0	0	0	520	401	
7	0	0	0	0	520	401	
8	0	0	0	0	519	401	
9	0	0	0	0	519	401	
10	0	0	0	0	518	401	
11	0	0	0	0	517	401	
12	0	0	0	0	517	401	
13	0	0	0	0	518	401	
14	0	0	0	0	518	401	
15	0	0	0	0	518	401	
0	0	0	0	0	518	401	
1	0	0	0	0	518	401	
2	0	0	0	0	518	401	
3	0	0	0	0	518	401	
4	0	0	0	0	517	401	
5	0	0	0	0	516	401	
6	0	0	0	0	516	401	
7	0	0	0	0	515	401	
8	0	0	0	0	515	401	
9	0	0	0	0	514	401	
10	0	0	0	0	515	401	
11	0	0	0	0	515	401	
12	0	0	0	0	515	401	
13	0	0	0	0	515	401	
14	0	0	0	0	515	401	
15	0	0	0	0	515	401	
0	0	0	0	0	514	401	
1	0	0	0	0	513	401	
2	0	0	0	0	513	401	
3	0	0	0	0	512	401	
4	0	0	0	0	512	401	
5	0	0	0	0	510	401	
6	0	0	0	0	510	401	
7	0	0	0	0	509	401	
8	0	0	0	0	508	401	
9	0	0	0	0	508	401	
10	0	0	0	0	508	401	
11	0	0	0	0	507	401	
12	0	0	0	0	508	401	
13	0	0	0	0	508	401	
14	0	0	0	0	509	401	
15	0	0	0	0	510	401	
0	0	0	0	0	510	401	
1	0	0	0	0	510	401	
2	0	0	0	0	510	401	
3	0	0	0	0	510	401	
4	0	0	0	0	511	401	
5	0	0	0	0	511	401	
6	0	0	0	0	511	401	
7	0	0	0	0	511	401	
8	0	0	0	0	510	401	
9	0	0	0	0	508	401	
10	0	0	0	0	507	401	
11	0	0	0	0	506	401	
12	0	0	0	0	505	400	
13	0	0	0	0	505	400	
14	0	0	0	0	505	400	
15	0	0	0	0	505	400	
0	0	0	0	0	505	400	
1	0	0	0	0	504	400	
2	0	0	0	0	504	400	
3	0	0	0	0	504	400	
4	0	0	0	0	504	400	
5	0	0	0	0	504	401	
6	0	0	0	0	504	400	
7	0	0	0	0	504	400	
8	0	0	0	0	504	400	
9	0	0	0	0	504	400	
10	0	0	0	0	504	401	
11	0	0	0	0	504	400	
12	0	0	0	0	504	400	
13	0	0	0	0	504	400	
14	0	0	0	0	505	400	
15	0	0	0	0	506	400	
0	0	0	0	0	507	400	
1	0	0	0	0	508	400	
2	0	0	0	0	508	400	
3	0	0	0	0	508	400	
4	0	0	0	0	508	400	
5	0	0	0	0	508	400	
6	0	0	0	0	508	400	
7	0	0	0	0	507	400	
8	0	0	0	0	506	400	
9	0	0	0	0	507	400	
10	0	0	0	0	507	400	
11	0	0	0	0	506	400	
12	0	0	0	0	505	400	
13	0	0	0	0	505	400	
14	0	0	0	0	506	400	
15	0	0	0	0	507	400	
0	0	0	0	0	507	400	
1	0	0	0	0	507	400	
2	0	0	0	0	507	400	
3	0	0	0	0	508	400	
4	0	0	0	0	507	400	
5	0	0	0	0	507	400	
6	0	0	0	0	506	400	
7	0	0	0	0	506	400	
8	0	0	0	0	506	400	
9	0	0	0	0	505	400	
10	0	0	0	0	504	400	
11	0	0	0	0	504	400	
12	0	0	0	0	504	400	
13	0	0	0	0	504	400	
14	0	0	0	0	504	400	
15	0	0	0	0	504	400	
0	0	0	0	0	505	400	
1	0	0	0	0	505	400	
2	0	0	0	0	507	400	
3	0	0	0	0	508	400	
4	0	0	0	0	508	400	
5	0	0	0	0	508	400	
6	0	0	0	0	507	400	
7	0	0	0	0	507	400	
8	0	0	0	0	507	400	
9	0	0	0	0	507	400	
10	0	0	0	0	506	400	
11	0	0	0	0	505	400	
12	0	0	0	0	505	400	
13	0	0	0	0	505	400	
14	0	0	0	0	506	400	
15	0	0	0	0	505	400	
0	0	0	0	0	505	399	
1	0	0	0	0	505	400	
2	0	0	0	0	506	400	
3	0	0	0	0	507	400	
4	0	0	0	0	506	400	
5	0	0	0	0	507	400	
6	0	0	0	0	507	400	
7	0	0	0	0	507	400	
8	0	0	0	0	507	400	
9	0	0	0	0	507	400	
10	0	0	0	0	506	400	
11	0	0	0	0	507	400	
12	0	0	0	0	505	399	
13	0	0	0	0	504	399	
14	0	0	0	0	505	399	
15	0	0	0	0	504	399	
0	0	0	0	0	505	399	
1	0	0	0	0	505	399	
2	0	0	0	0	506	399	
3	0	0	0	0	506	399	
4	0	0	0	0	505	399	
5	0	0	0	0	505	399	
6	0	0	0	0	506	399	
7	0	0	0	0	506	399	
8	0	0	0	0	506	400	
9	0	0	0	0	505	399	
10	0	0	0	0	505	400	
11	0	0	0	0	504	399	
12	0	0	0	0	504	399	
13	0	0	0	0	504	399	
14	0	0	0	0	504	399	
15	0	0	0	0	505	399	
0	0	0	0	0	506	399	
1	0	0	0	0	507	399	
2	0	0	0	0	509	399	
3	0	0	0	0	509	399	
4	0	0	0	0	510	399	
5	0	0	0	0	511	399	
6	0	0	0	0	511	399	
7	0	0	0	0	511	399	
8	0	0	0	0	510	399	
9	0	0	0	0	510	399	
10	0	0	0	0	510	399	
11	0	0	0	0	509	399	
12	0	0	0	0	508	399	
13	0	0	0	0	508	399	
14	0	0	0	0	509	399	
15	0	0	0	0	509	399	
0	0	0	0	0	509	399	
1	0	0	0	0	509	399	
2	0	0	0	0	508	399	
3	0	0	0	0	510	399	
4	0	0	0	0	510	399	
5	0	0	0	0	511	399	
6	0	0	0	0	512	399	
7	0	0	0	0	512	399	
8	0	0	0	0	512	399	
9	0	0	0	0	512	399	
10	0	0	0	0	512	399	
11	0	0	0	0	511	399	
12	0	0	0	0	510	399	
13	0	0	0	0	510	399	
14	0	0	0	0	510	399	
15	0	0	0	0	510	399	
0	0	0	0	0	510	399	
1	0	0	0	0	510	399	
2	0	0	0	0	511	399	
3	0	0	0	0	511	399	
4	0	0	0	0	511	399	
5	0	0	0	0	511	399	
6	0	0	0	0	512	399	
7	0	0	0	0	513	399	
8	0	0	0	0	513	399	
9	0	0	0	0	515	399	
10	0	0	0	0	515	399	
11	0	0	0	0	515	399	
12	0	0	0	0	515	399	
13	0	0	0	0	515	399	
14	0	0	0	0	515	399	
15	0	0	0	0	514	399	
0	0	0	0	0	513	399	
1	0	0	0	0	511	399	
2	0	0	0	0	509	399	
3	0	0	0	0	507	399	
4	0	0	0	0	505	399	
5	0	0	0	0	503	399	
6	0	0	0	0	500	399	
7	0	0	0	0	499	399	
8	0	0	0	0	497	399	
9	0	0	0	0	496	399	
10	0	0	0	0	494	399	
11	0	0	0	0	493	399	
12	0	0	0	0	491	399	
13	0	0	0	0	489	399	
14	0	0	0	0	487	399	
15	0	0	0	0	485	399	
0	0	0	0	0	485	399	
1	0	0	0	0	486	399	
2	0	0	0	0	487	399	
3	0	0	0	0	488	399	
4	0	0	0	0	491	399	
5	0	0	0	0	494	399	
6	0	0	0	0	495	399	
7	0	0	0	0	496	399	
8	0	0	0	0	497	399	
9	0	0	0	0	498	399	
10	0	0	0	0	499	399	
11	0	0	0	0	498	399	
12	0	0	0	0	497	399	
13	0	0	0	0	497	399	
14	0	0	0	0	496	399	
15	0	0	0	0	496	399	
0	0	0	0	0	495	399	
1	0	0	0	0	496	399	
2	0	0	0	0	498	399	
3	0	0	0	0	499	398	
4	0	0	0	0	502	399	
5	0	0	0	0	505	399	
6	0	0	0	0	508	399	
7	0	0	0	0	510	399	
8	0	0	0	0	512	398	
9	0	0	0	0	513	398	
10	0	0	0	0	515	398	
11	0	0	0	0	516	399	
12	0	0	0	0	518	398	
13	0	0	0	0	519	398	
14	0	0	0	0	520	399	
15	0	0	0	0	521	398	
0	0	0	0	0	521	398	
1	0	0	0	0	522	399	
2	0	0	0	0	523	398	
3	0	0	0	0	523	398	
4	0	0	0	0	523	398	
5	0	0	0	0	524	398	
6	0	0	0	0	524	398	
7	0	0	0	0	524	398	
8	0	0	0	0	525	399	
9	0	0	0	0	524	398	
10	0	0	0	0	524	398	
11	0	0	0	0	523	398	
12	0	0	0	0	522	398	
13	0	0	0	0	521	398	
14	0	0	0	0	519	398	
15	0	0	0	0	518	398	
0	0	0	0	0	516	398	
1	0	0	0	0	515	398	
2	0	0	0	0	514	398	
3	0	0	0	0	512	398	
4	0	0	0	0	512	398	
5	0	0	0	0	511	398	
6	0	0	0	0	511	398	
7	0	0	0	0	511	398	
8	0	0	0	0	511	398	
9	0	0	0	0	511	398	
10	0	0	0	0	511	398	
11	0	0	0	0	511	398	
12	0	0	0	0	510	398	
13	0	0	0	0	510	398	
14	0	0	0	0	510	398	
15	0	0	0	0	509	398	
0	0	0	0	0	508	398	
1	0	0	0	0	507	398	
2	0	0	0	0	507	398	
3	0	0	0	0	506	398	
4	0	0	0	0	506	398	
5	0	0	0	0	506	398	
6	0	0	0	0	507	398	
7	0	0	0	0	508	398	
8	0	0	0	0	509	398	
9	0	0	0	0	510	398	
10	0	0	0	0	511	398	
11	0	0	0	0	512	398	
12	0	0	0	0	512	398	
13	0	0	0	0	512	398	
14	0	0	0	0	513	398	
15	0	0	0	0	513	398	
0	0	0	0	0	513	398	
1	0	0	0	0	513	398	
2	0	0	0	0	513	398	
3	0	0	0	0	513	398	
4	0	0	0	0	513	398	
5	0	0	0	0	514	398	
6	0	0	0	0	513	398	
7	0	0	0	0	514	398	
8	0	0	0	0	515	398	
9	0	0	0	0	515	398	
10	0	0	0	0	516	398	
11	0	0	0	0	515	398	
12	0	0	0	0	515	398	
13	0	0	0	0	515	398	
14	0	0	0	0	515	398	
15	0	0	0	0	515	398	
0	0	0	0	0	515	398	
1	0	0	0	0	514	398	
2	0	0	0	0	513	398	
3	0	0	0	0	513	398	
4	0	0	0	0	513	398	
5	0	0	0	0	513	398	
6	0	0	0	0	514	398	
7	0	0	0	0	513	398	
8	0	0	0	0	513	398	
9	0	0	0	0	514	398	
10	0	0	0	0	515	398	
11	0	0	0	0	515	398	
12	0	0	0	0	515	398	
13	0	0	0	0	514	398	
14	0	0	0	0	514	398	
15	0	0	0	0	513	398	
0	0	0	0	0	512	398	
1	0	0	0	0	511	398	
2	0	0	0	0	510	397	
3	0	0	0	0	509	398	
4	0	0	0	0	508	398	
5	0	0	0	0	507	398	
6	0	0	0	0	507	398	
7	0	0	0	0	507	398	
8	0	0	0	0	507	398	
9	0	0	0	0	507	398	
10	0	0	0	0	508	398	
11	0	0	0	0	509	397	
12	0	0	0	0	509	397	
13	0	0	0	0	510	398	
14	0	0	0	0	510	398	
15	0	0	0	0	510	398	
0	0	0	0	0	510	397	
1	0	0	0	0	508	397	
2	0	0	0	0	508	398	
3	0	0	0	0	507	398	
4	0	0	0	0	506	397	
5	0	0	0	0	506	397	
6	0	0	0	0	505	397	
7	0	0	0	0	505	398	
8	0	0	0	0	504	397	
9	0	0	0	0	504	397	
10	0	0	0	0	504	397	
11	0	0	0	0	503	397	
12	0	0	0	0	504	397	
13	0	0	0	0	504	397	
14	0	0	0	0	504	397	
15	0	0	0	0	504	397	
0	0	0	0	0	504	397	
1	0	0	0	0	503	397	
2	0	0	0	0	502	397	
3	0	0	0	0	502	397	
4	0	0	0	0	500	397	
5	0	0	0	0	499	397	
6	0	0	0	0	499	397	
7	0	0	0	0	498	397	
8	0	0	0	0	499	397	
9	0	0	0	0	499	397	
10	0	0	0	0	499	397	
11	0	0	0	0	499	397	
12	0	0	0	0	500	397	
13	0	0	0	0	500	397	
14	0	0	0	0	501	397	
15	0	0	0	0	501	397	
0	0	0	0	0	500	397	
1	0	0	0	0	499	397	
2	0	0	0	0	498	397	
3	0	0	0	0	497	397	
4	0	0	0	0	497	397	
5	0	0	0	0	497	397	
6	0	0	0	0	496	397	
7	0	0	0	0	496	397	
8	0	0	0	0	496	397	
9	0	0	0	0	496	397	
10	0	0	0	0	496	397	
11	0	0	0	0	496	397	
12	0	0	0	0	496	397	
13	0	0	0	0	497	397	
14	0	0	0	0	497	397	
15	0	0	0	0	498	397	
0	0	0	0	0	498	397	
1	0	0	0	0	498	397	
2	0	0	0	0	498	397	
3	0	0	0	0	498	397	
4	0	0	0	0	498	397	
5	0	0	0	0	498	397	
6	0	0	0	0	498	397	
7	0	0	0	0	498	397	
8	0	0	0	0	498	397	
9	0	0	0	0	499	397	
10	0	0	0	0	498	397	
11	0	0	0	0	499	397	
12	0	0	0	0	499	397	
13	0	0	0	0	499	396	
14	0	0	0	0	500	397	
15	0	0	0	0	501	397	
0	0	0	0	0	500	396	
1	0	0	0	0	500	397	
2	0	0	0	0	501	396	
3	0	0	0	0	501	397	
4	0	0	0	0	501	397	
5	0	0	0	0	500	397	
6	0	0	0	0	500	397	
7	0	0	0	0	499	397	
8	0	0	0	0	498	397	
9	0	0	0	0	498	397	
10	0	0	0	0	498	396	
11	0	0	0	0	497	396	
12	0	0	0	0	497	396	
13	0	0	0	0	497	397	
14	0	0	0	0	497	396	
15	0	0	0	0	497	396	
0	0	0	0	0	497	396	
1	0	0	0	0	497	396	
2	0	0	0	0	497	396	
3	0	0	0	0	496	397	
4	0	0	0	0	496	396	
5	0	0	0	0	496	396	
6	0	0	0	0	495	396	
7	0	0	0	0	495	397	
8	0	0	0	0	495	396	
9	0	0	0	0	496	396	
10	0	0	0	0	496	396	
11	0	0	0	0	496	396	
12	0	0	0	0	496	396	
13	0	0	0	0	496	396	
14	0	0	0	0	497	396	
15	0	0	0	0	497	396	
0	0	0	0	0	498	396	
1	0	0	0	0	499	396	
2	0	0	0	0	499	396	
3	0	0	0	0	499	396	
4	0	0	0	0	499	396	
5	0	0	0	0	498	396	
6	0	0	0	0	498	396	
7	0	0	0	0	499	396	
8	0	0	0	0	498	396	
9	0	0	0	0	498	396	
10	0	0	0	0	497	396	
11	0	0	0	0	498	396	
12	0	0	0	0	497	396	
13	0	0	0	0	497	396	
14	0	0	0	0	497	396	
15	0	0	0	0	497	396	
0	0	0	0	0	499	396	
1	0	0	0	0	498	396	
2	0	0	0	0	498	396	
3	0	0	0	0	498	396	
4	0	0	0	0	497	396	
5	0	0	0	0	497	396	
6	0	0	0	0	497	396	
7	0	0	0	0	496	396	
8	0	0	0	0	497	396	
9	0	0	0	0	497	396	
10	0	0	0	0	497	396	
11	0	0	0	0	498	396	
12	0	0	0	0	499	396	
13	0	0	0	0	499	396	
14	0	0	0	0	500	396	
15	0	0	0	0	501	396	
0	0	0	0	0	502	396	
1	0	0	0	0	503	396	
2	0	0	0	0	504	396	
3	0	0	0	0	504	396	
4	0	0	0	0	505	396	
5	0	0	0	0	504	396	
6	0	0	0	0	504	396	
7	0	0	0	0	504	396	
8	0	0	0	0	504	396	
9	0	0	0	0	505	396	
10	0	0	0	0	505	396	
11	0	0	0	0	504	396	
12	0	0	0	0	504	396	
13	0	0	0	0	505	396	
14	0	0	0	0	507	396	
15	0	0	0	0	508	396	
0	0	0	0	0	508	396	
1	0	0	0	0	508	396	
2	0	0	0	0	510	396	
3	0	0	0	0	511	396	
4	0	0	0	0	511	396	
5	0	0	0	0	512	396	
6	0	0	0	0	512	396	
7	0	0	0	0	512	396	
8	0	0	0	0	512	396	
9	0	0	0	0	511	396	
10	0	0	0	0	511	396	
11	0	0	0	0	511	396	
12	0	0	0	0	511	396	
13	0	0	0	0	512	396	
14	0	0	0	0	512	396	
15	0	0	0	0	513	396	
0	0	0	0	0	513	396	
1	0	0	0	0	513	396	
2	0	0	0	0	515	396	
3	0	0	0	0	515	396	
4	0	0	0	0	516	396	
5	0	0	0	0	516	396	
6	0	0	0	0	516	396	
7	0	0	0	0	517	396	
8	0	0	0	0	518	396	
9	0	0	0	0	518	396	
10	0	0	0	0	519	396	
11	0	0	0	0	518	396	
12	0	0	0	0	519	396	
13	0	0	0	0	518	396	
14	0	0	0	0	519	396	
15	0	0	0	0	519	396	
0	0	0	0	0	520	395	
1	0	0	0	0	521	396	
2	0	0	0	0	522	396	
3	0	0	0	0	523	396	
4	0	0	0	0	523	395	
5	0	0	0	0	523	396	
6	0	0	0	0	523	395	
7	0	0	0	0	523	396	
8	0	0	0	0	523	396	
9	0	0	0	0	524	396	
10	0	0	0	0	523	396	
11	0	0	0	0	522	396	
12	0	0	0	0	521	396	
13	0	0	0	0	521	395	
14	0	0	0	0	521	396	
15	0	0	0	0	521	395	
0	0	0	0	0	521	395	
1	0	0	0	0	521	395	
2	0	0	0	0	521	395	
3	0	0	0	0	521	395	
4	0	0	0	0	521	395	
5	0	0	0	0	521	395	
6	0	0	0	0	521	395	
7	0	0	0	0	521	395	
8	0	0	0	0	520	395	
9	0	0	0	0	520	395	
10	0	0	0	0	520	395	
11	0	0	0	0	519	395	
12	0	0	0	0	519	395	
13	0	0	0	0	519	395	
14	0	0	0	0	518	395	
15	0	0	0	0	519	395	
0	0	0	0	0	518	395	
1	0	0	0	0	518	395	
2	0	0	0	0	518	395	
3	0	0	0	0	518	395	
4	0	0	0	0	518	395	
5	0	0	0	0	518	395	
6	0	0	0	0	519	395	
7	0	0	0	0	519	395	
8	0	0	0	0	517	395	
9	0	0	0	0	516	395	
10	0	0	0	0	515	395	
11	0	0	0	0	513	395	
12	0	0	0	0	513	395	
13	0	0	0	0	512	395	
14	0	0	0	0	511	395	
15	0	0	0	0	511	395	
0	0	0	0	0	511	395	
1	0	0	0	0	511	395	
2	0	0	0	0	512	395	
3	0	0	0	0	512	395	
4	0	0	0	0	512	395	
5	0	0	0	0	512	395	
6	0	0	0	0	513	395	
7	0	0	0	0	513	395	
8	0	0	0	0	513	395	
9	0	0	0	0	512	395	
10	0	0	0	0	513	395	
11	0	0	0	0	513	395	
12	0	0	0	0	512	395	
13	0	0	0	0	511	395	
14	0	0	0	0	511	395	
15	0	0	0	0	510	395	
0	0	0	0	0	511	395	
1	0	0	0	0	510	395	
2	0	0	0	0	510	395	
3	0	0	0	0	509	395	
4	0	0	0	0	510	395	
5	0	0	0	0	510	395	
6	0	0	0	0	510	395	
7	0	0	0	0	510	395	
8	0	0	0	0	510	395	
9	0	0	0	0	510	395	
10	0	0	0	0	511	395	
11	0	0	0	0	511	395	
12	0	0	0	0	511	395	
13	0	0	0	0	510	395	
14	0	0	0	0	510	395	
15	0	0	0	0	510	395	
0	0	0	0	0	509	395	
1	0	0	0	0	509	395	
2	0	0	0	0	509	395	
3	0	0	0	0	509	395	
4	0	0	0	0	510	395	
5	0	0	0	0	510	395	
6	0	0	0	0	512	395	
7	0	0	0	0	512	395	
8	0	0	0	0	512	395	
9	0	0	0	0	511	395	
10	0	0	0	0	511	394	
11	0	0	0	0	511	395	
12	0	0	0	0	511	395	
13	0	0	0	0	511	395	
14	0	0	0	0	510	395	
15	0	0	0	0	509	395	
0	0	0	0	0	509	395	
1	0	0	0	0	510	395	
2	0	0	0	0	510	395	
3	0	0	0	0	510	395	
4	0	0	0	0	510	394	
5	0	0	0	0	511	395	
6	0	0	0	0	510	395	
7	0	0	0	0	511	394	
8	0	0	0	0	510	395	
9	0	0	0	0	510	394	
10	0	0	0	0	511	395	
11	0	0	0	0	510	395	
12	0	0	0	0	510	394	
13	0	0	0	0	510	395	
14	0	0	0	0	509	394	
15	0	0	0	0	509	395	
0	0	0	0	0	508	394	
1	0	0	0	0	508	395	
2	0	0	0	0	508	394	
3	0	0	0	0	507	394	
4	0	0	0	0	507	394	
5	0	0	0	0	508	394	
6	0	0	0	0	507	394	
7	0	0	0	0	507	394	
8	0	0	0	0	508	394	
9	0	0	0	0	508	394	
10	0	0	0	0	508	394	
11	0	0	0	0	507	394	
12	0	0	0	0	507	394	
13	0	0	0	0	507	394	
14	0	0	0	0	507	394	
15	0	0	0	0	507	394	
0	0	0	0	0	506	394	
1	0	0	0	0	507	394	
2	0	0	0	0	507	394	
3	0	0	0	0	507	394	
4	0	0	0	0	507	394	
5	0	0	0	0	507	394	
6	0	0	0	0	506	394	
7	0	0	0	0	506	394	
8	0	0	0	0	507	394	
9	0	0	0	0	507	394	
10	0	0	0	0	507	394	
11	0	0	0	0	507	394	
12	0	0	0	0	507	394	
13	0	0	0	0	507	394	
14	0	0	0	0	506	394	
15	0	0	0	0	505	394	
0	0	0	0	0	505	394	
1	0	0	0	0	504	394	
2	0	0	0	0	504	394	
3	0	0	0	0	503	394	
4	0	0	0	0	503	394	
5	0	0	0	0	503	394	
6	0	0	0	0	503	394	
7	0	0	0	0	504	394	
8	0	0	0	0	505	394	
9	0	0	0	0	505	394	
10	0	0	0	0	506	394	
11	0	0	0	0	506	394	
12	0	0	0	0	507	394	
13	0	0	0	0	507	394	
14	0	0	0	0	506	394	
15	0	0	0	0	505	394	
0	0	0	0	0	505	394	
1	0	0	0	0	506	394	
2	0	0	0	0	506	394	
3	0	0	0	0	505	394	
4	0	0	0	0	505	394	
5	0	0	0	0	504	394	
6	0	0	0	0	504	394	
7	0	0	0	0	504	394	
8	0	0	0	0	506	394	
9	0	0	0	0	507	394	
10	0	0	0	0	507	393	
11	0	0	0	0	507	394	
12	0	0	0	0	506	394	
13	0	0	0	0	507	394	
14	0	0	0	0	507	394	
15	0	0	0	0	505	393	
0	0	0	0	0	505	394	
1	0	0	0	0	504	394	
2	0	0	0	0	503	394	
3	0	0	0	0	501	394	
4	0	0	0	0	501	393	
5	0	0	0	0	501	394	
6	0	0	0	0	501	393	
7	0	0	0	0	500	393	
8	0	0	0	0	500	393	
9	0	0	0	0	500	393	
10	0	0	0	0	501	393	
11	0	0	0	0	500	393	
12	0	0	0	0	502	393	
13	0	0	0	0	501	393	
14	0	0	0	0	500	393	
15	0	0	0	0	500	393	
0	0	0	0	0	500	393	
1	0	0	0	0	500	393	
2	0	0	0	0	500	393	
3	0	0	0	0	499	393	
4	0	0	0	0	499	393	
5	0	0	0	0	499	393	
6	0	0	0	0	499	393	
7	0	0	0	0	499	393	
8	0	0	0	0	499	393	
9	0	0	0	0	500	393	
10	0	0	0	0	500	393	
11	0	0	0	0	501	393	
12	0	0	0	0	501	393	
13	0	0	0	0	502	393	
14	0	0	0	0	502	393	
15	0	0	0	0	502	393	
0	0	0	0	0	502	393	
1	0	0	0	0	501	393	
2	0	0	0	0	502	393	
3	0	0	0	0	501	393	
4	0	0	0	0	500	393	
5	0	0	0	0	499	393	
6	0	0	0	0	499	393	
7	0	0	0	0	499	393	
8	0	0	0	0	499	393	
9	0	0	0	0	500	393	
10	0	0	0	0	501	393	
11	0	0	0	0	502	393	
12	0	0	0	0	502	393	
13	0	0	0	0	503	393	
14	0	0	0	0	502	393	
15	0	0	0	0	502	393	
0	0	0	0	0	501	393	
1	0	0	0	0	501	393	
2	0	0	0	0	500	393	
3	0	0	0	0	499	393	
4	0	0	0	0	498	393	
5	0	0	0	0	498	393	
6	0	0	0	0	498	393	
7	0	0	0	0	498	393	
8	0	0	0	0	498	393	
9	0	0	0	0	498	393	
10	0	0	0	0	499	393	
11	0	0	0	0	499	393	
12	0	0	0	0	500	393	
13	0	0	0	0	500	393	
14	0	0	0	0	500	393	
15	0	0	0	0	499	393	
0	0	0	0	0	500	393	
1	0	0	0	0	500	393	
2	0	0	0	0	499	393	
3	0	0	0	0	500	393	
4	0	0	0	0	499	393	
5	0	0	0	0	499	393	
6	0	0	0	0	498	393	
7	0	0	0	0	499	393	
8	0	0	0	0	498	393	
9	0	0	0	0	498	393	
10	0	0	0	0	499	393	
11	0	0	0	0	499	393	
12	0	0	0	0	500	393	
13	0	0	0	0	500	393	
14	0	0	0	0	500	393	
15	0	0	0	0	500	393	
0	0	0	0	0	501	393	
1	0	0	0	0	501	393	
2	0	0	0	0	500	393	
3	0	0	0	0	499	393	
4	0	0	0	0	498	393	
5	0	0	0	0	498	393	
6	0	0	0	0	497	393	
7	0	0	0	0	497	393	
8	0	0	0	0	497	393	
9	0	0	0	0	498	393	
10	0	0	0	0	498	393	
11	0	0	0	0	498	393	
12	0	0	0	0	498	393	
13	0	0	0	0	498	393	
14	0	0	0	0	499	393	
15	0	0	0	0	500	393	
0	0	0	0	0	501	393	
1	0	0	0	0	500	393	
2	0	0	0	0	500	393	
3	0	0	0	0	499	393	
4	0	0	0	0	498	393	
5	0	0	0	0	497	393	
6	0	0	0	0	497	393	
7	0	0	0	0	496	393	
8	0	0	0	0	496	393	
9	0	0	0	0	496	393	
10	0	0	0	0	497	393	
11	0	0	0	0	497	393	
12	0	0	0	0	498	393	
13	0	0	0	0	499	393	
14	0	0	0	0	500	393	
15	0	0	0	0	500	393	
0	0	0	0	0	501	393	
1	0	0	0	0	501	392	
2	0	0	0	0	501	393	
3	0	0	0	0	500	393	
4	0	0	0	0	500	392	
5	0	0	0	0	500	393	
6	0	0	0	0	500	393	
7	0	0	0	0	500	393	
8	0	0	0	0	500	393	
9	0	0	0	0	499	393	
10	0	0	0	0	499	393	
11	0	0	0	0	499	392	
12	0	0	0	0	499	392	
13	0	0	0	0	500	393	
14	0	0	0	0	501	392	
15	0	0	0	0	502	393	
0	0	0	0	0	502	392	
1	0	0	0	0	503	392	
2	0	0	0	0	504	392	
3	0	0	0	0	503	392	
4	0	0	0	0	503	392	
5	0	0	0	0	503	392	
6	0	0	0	0	503	392	
7	0	0	0	0	503	393	
8	0	0	0	0	503	392	
9	0	0	0	0	504	393	
10	0	0	0	0	504	392	
11	0	0	0	0	504	392	
12	0	0	0	0	505	393	
13	0	0	0	0	506	392	
14	0	0	0	0	507	392	
15	0	0	0	0	507	392	
0	0	0	0	0	508	392	
1	0	0	0	0	509	393	
2	0	0	0	0	510	392	
3	0	0	0	0	510	393	
4	0	0	0	0	509	392	
5	0	0	0	0	509	392	
6	0	0	0	0	508	392	
7	0	0	0	0	507	392	
8	0	0	0	0	506	392	
9	0	0	0	0	506	392	
10	0	0	0	0	505	392	
11	0	0	0	0	505	392	
12	0	0	0	0	505	392	
13	0	0	0	0	505	392	
14	0	0	0	0	505	392	
15	0	0	0	0	506	392	
0	0	0	0	0	507	392	
1	0	0	0	0	507	392	
2	0	0	0	0	508	392	
3	0	0	0	0	508	392	
4	0	0	0	0	507	392	
5	0	0	0	0	505	392	
6	0	0	0	0	504	392	
7	0	0	0	0	504	392	
8	0	0	0	0	503	392	
9	0	0	0	0	502	392	
10	0	0	0	0	502	392	
11	0	0	0	0	502	392	
12	0	0	0	0	503	392	
13	0	0	0	0	503	392	
14	0	0	0	0	503	392	
15	0	0	0	0	503	392	
0	0	0	0	0	503	392	
1	0	0	0	0	503	392	
2	0	0	0	0	504	392	
3	0	0	0	0	504	392	
4	0	0	0	0	504	392	
5	0	0	0	0	505	392	
6	0	0	0	0	505	392	
7	0	0	0	0	505	392	
8	0	0	0	0	505	392	
9	0	0	0	0	505	392	
10	0	0	0	0	505	392	
11	0	0	0	0	505	392	
12	0	0	0	0	505	392	
13	0	0	0	0	505	392	
14	0	0	0	0	505	392	
15	0	0	0	0	505	392	
0	0	0	0	0	507	392	
1	0	0	0	0	508	392	
2	0	0	0	0	509	392	
3	0	0	0	0	508	392	
4	0	0	0	0	509	392	
5	0	0	0	0	509	392	
6	0	0	0	0	509	392	
7	0	0	0	0	509	392	
8	0	0	0	0	509	392	
9	0	0	0	0	508	392	
10	0	0	0	0	509	392	
11	0	0	0	0	508	392	
12	0	0	0	0	508	392	
13	0	0	0	0	508	392	
14	0	0	0	0	508	392	
15	0	0	0	0	508	392	
0	0	0	0	0	508	392	
1	0	0	0	0	508	392	
2	0	0	0	0	508	392	
3	0	0	0	0	508	391	
4	0	0	0	0	508	392	
5	0	0	0	0	508	392	
6	0	0	0	0	510	391	
7	0	0	0	0	510	392	
8	0	0	0	0	509	391	
9	0	0	0	0	508	392	
10	0	0	0	0	508	392	
11	0	0	0	0	508	391	
12	0	0	0	0	508	392	
13	0	0	0	0	507	392	
14	0	0	0	0	506	391	
15	0	0	0	0	506	392	
0	0	0	0	0	505	392	
1	0	0	0	0	505	392	
2	0	0	0	0	505	391	
3	0	0	0	0	505	392	
4	0	0	0	0	505	391	
5	0	0	0	0	504	391	
6	0	0	0	0	504	392	
7	0	0	0	0	504	391	
8	0	0	0	0	505	392	
9	0	0	0	0	504	392	
10	0	0	0	0	503	391	
11	0	0	0	0	503	392	
12	0	0	0	0	503	391	
13	0	0	0	0	504	391	
14	0	0	0	0	504	392	
15	0	0	0	0	504	391	
0	0	0	0	0	504	391	
1	0	0	0	0	504	391	
2	0	0	0	0	505	391	
3	0	0	0	0	506	391	
4	0	0	0	0	507	391	
5	0	0	0	0	508	391	
6	0	0	0	0	508	391	
7	0	0	0	0	507	391	
8	0	0	0	0	507	391	
9	0	0	0	0	506	391	
10	0	0	0	0	505	391	
11	0	0	0	0	504	391	
12	0	0	0	0	504	391	
13	0	0	0	0	503	391	
14	0	0	0	0	503	391	
15	0	0	0	0	502	391	
0	0	0	0	0	502	391	
1	0	0	0	0	503	391	
2	0	0	0	0	504	391	
3	0	0	0	0	505	391	
4	0	0	0	0	507	391	
5	0	0	0	0	508	391	
6	0	0	0	0	508	391	
7	0	0	0	0	507	391	
8	0	0	0	0	507	391	
9	0	0	0	0	507	391	
10	0	0	0	0	508	391	
11	0	0	0	0	507	391	
12	0	0	0	0	508	391	
13	0	0	0	0	508	391	
14	0	0	0	0	507	391	
15	0	0	0	0	506	391	
0	0	0	0	0	506	391	
1	0	0	0	0	506	391	
2	0	0	0	0	507	391	
3	0	0	0	0	507	391	
4	0	0	0	0	507	391	
5	0	0	0	0	508	391	
6	0	0	0	0	509	391	
7	0	0	0	0	509	391	
8	0	0	0	0	509	391	
9	0	0	0	0	508	391	
10	0	0	0	0	508	391	
11	0	0	0	0	508	391	
12	0	0	0	0	508	391	
13	0	0	0	0	509	391	
14	0	0	0	0	510	391	
15	0	0	0	0	509	391	
0	0	0	0	0	510	391	
1	0	0	0	0	510	391	
2	0	0	0	0	510	391	
3	0	0	0	0	510	391	
4	0	0	0	0	510	391	
5	0	0	0	0	510	391	
6	0	0	0	0	510	391	
7	0	0	0	0	511	391	
8	0	0	0	0	512	391	
9	0	0	0	0	513	391	
10	0	0	0	0	514	391	
11	0	0	0	0	514	391	
12	0	0	0	0	514	391	
13	0	0	0	0	514	391	
14	0	0	0	0	515	391	
15	0	0	0	0	515	391	
0	0	0	0	0	515	391	
1	0	0	0	0	516	391	
2	0	0	0	0	517	391	
3	0	0	0	0	517	391	
4	0	0	0	0	518	391	
5	0	0	0	0	518	391	
6	0	0	0	0	519	391	
7	0	0	0	0	519	391	
8	0	0	0	0	521	391	
9	0	0	0	0	520	391	
10	0	0	0	0	519	391	
11	0	0	0	0	520	391	
12	0	0	0	0	520	391	
13	0	0	0	0	519	391	
14	0	0	0	0	519	391	
15	0	0	0	0	519	391	
0	0	0	0	0	519	391	
1	0	0	0	0	519	391	
2	0	0	0	0	519	391	
3	0	0	0	0	519	391	
4	0	0	0	0	518	391	
5	0	0	0	0	518	391	
6	0	0	0	0	519	391	
7	0	0	0	0	519	391	
8	0	0	0	0	520	391	
9	0	0	0	0	520	391	
10	0	0	0	0	520	391	
11	0	0	0	0	520	391	
12	0	0	0	0	520	391	
13	0	0	0	0	520	391	
14	0	0	0	0	520	391	
15	0	0	0	0	520	391	
0	0	0	0	0	519	391	
1	0	0	0	0	519	391	
2	0	0	0	0	519	391	
3	0	0	0	0	519	391	
4	0	0	0	0	520	391	
5	0	0	0	0	520	391	
6	0	0	0	0	519	391	
7	0	0	0	0	520	391	
8	0	0	0	0	520	391	
9	0	0	0	0	519	391	
10	0	0	0	0	518	391	
11	0	0	0	0	518	391	
12	0	0	0	0	517	391	
13	0	0	0	0	516	391	
14	0	0	0	0	516	391	
15	0	0	0	0	515	391	
0	0	0	0	0	515	391	
1	0	0	0	0	514	391	
2	0	0	0	0	514	391	
3	0	0	0	0	513	391	
4	0	0	0	0	514	391	
5	0	0	0	0	514	391	
6	0	0	0	0	514	391	
7	0	0	0	0	514	391	
8	0	0	0	0	515	391	
9	0	0	0	0	515	391	
10	0	0	0	0	515	391	
11	0	0	0	0	514	391	
12	0	0	0	0	514	391	
13	0	0	0	0	514	391	
14	0	0	0	0	513	391	
15	0	0	0	0	513	391	
0	0	0	0	0	513	391	
1	0	0	0	0	512	391	
2	0	0	0	0	513	391	
3	0	0	0	0	513	391	
4	0	0	0	0	513	391	
5	0	0	0	0	513	391	
6	0	0	0	0	513	391	
7	0	0	0	0	513	391	
8	0	0	0	0	513	391	
9	0	0	0	0	514	391	
10	0	0	0	0	514	390	
11	0	0	0	0	513	390	
12	0	0	0	0	513	390	
13	0	0	0	0	513	390	
14	0	0	0	0	513	391	
15	0	0	0	0	512	391	
0	0	0	0	0	510	390	
1	0	0	0	0	510	391	
2	0	0	0	0	510	391	
3	0	0	0	0	510	390	
4	0	0	0	0	510	391	
5	0	0	0	0	510	390	
6	0	0	0	0	511	390	
7	0	0	0	0	512	391	
8	0	0	0	0	512	390	
9	0	0	0	0	513	391	
10	0	0	0	0	513	390	
11	0	0	0	0	512	390	
12	0	0	0	0	511	390	
13	0	0	0	0	510	390	
14	0	0	0	0	508	390	
15	0	0	0	0	506	390	
0	0	0	0	0	504	390	
1	0	0	0	0	502	390	
2	0	0	0	0	499	390	
3	0	0	0	0	497	390	
4	0	0	0	0	495	390	
5	0	0	0	0	492	390	
6	0	0	0	0	490	390	
7	0	0	0	0	489	390	
8	0	0	0	0	488	390	
9	0	0	0	0	486	390	
10	0	0	0	0	484	390	
11	0	0	0	0	482	390	
12	0	0	0	0	481	390	
13	0	0	0	0	480	390	
14	0	0	0	0	478	390	
15	0	0	0	0	478	390	
0	0	0	0	0	480	390	
1	0	0	0	0	481	391	
2	0	0	0	0	483	390	
3	0	0	0	0	484	390	
4	0	0	0	0	484	390	
5	0	0	0	0	487	390	
6	0	0	0	0	489	390	
7	0	0	0	0	489	390	
8	0	0	0	0	489	390	
9	0	0	0	0	489	390	
10	0	0	0	0	488	390	
11	0	0	0	0	488	390	
12	0	0	0	0	488	390	
13	0	0	0	0	488	390	
14	0	0	0	0	488	390	
15	0	0	0	0	489	390	
0	0	0	0	0	492	390	
1	0	0	0	0	494	390	
2	0	0	0	0	496	390	
3	0	0	0	0	497	390	
4	0	0	0	0	499	390	
5	0	0	0	0	501	390	
6	0	0	0	0	503	390	
7	0	0	0	0	503	390	
8	0	0	0	0	504	390	
9	0	0	0	0	504	390	
10	0	0	0	0	506	390	
11	0	0	0	0	507	390	
12	0	0	0	0	508	390	
13	0	0	0	0	509	390	
14	0	0	0	0	510	390	
15	0	0	0	0	511	390	
0	0	0	0	0	511	390	
1	0	0	0	0	512	390	
2	0	0	0	0	512	390	
3	0	0	0	0	512	390	
4	0	0	0	0	512	390	
5	0	0	0	0	512	390	
6	0	0	0	0	511	390	
7	0	0	0	0	511	390	
8	0	0	0	0	510	390	
9	0	0	0	0	511	390	
10	0	0	0	0	510	390	
11	0	0	0	0	509	390	
12	0	0	0	0	509	390	
13	0	0	0	0	509	390	
14	0	0	0	0	508	390	
15	0	0	0	0	508	390	
0	0	0	0	0	507	390	
1	0	0	0	0	505	390	
2	0	0	0	0	505	390	
3	0	0	0	0	504	390	
4	0	0	0	0	503	390	
5	0	0	0	0	502	390	
6	0	0	0	0	500	390	
7	0	0	0	0	500	390	
8	0	0	0	0	500	390	
9	0	0	0	0	500	390	
10	0	0	0	0	501	390	
11	0	0	0	0	502	390	
12	0	0	0	0	503	390	
13	0	0	0	0	503	390	
14	0	0	0	0	503	390	
15	0	0	0	0	503	390	
0	0	0	0	0	502	390	
1	0	0	0	0	502	390	
2	0	0	0	0	502	390	
3	0	0	0	0	502	390	
4	0	0	0	0	502	390	
5	0	0	0	0	503	390	
6	0	0	0	0	503	390	
7	0	0	0	0	504	390	
8	0	0	0	0	504	390	
9	0	0	0	0	504	390	
10	0	0	0	0	505	390	
11	0	0	0	0	505	390	
12	0	0	0	0	506	390	
13	0	0	0	0	507	390	
14	0	0	0	0	507	389	
15	0	0	0	0	508	390	
0	0	0	0	0	508	390	
1	0	0	0	0	509	390	
2	0	0	0	0	509	390	
3	0	0	0	0	509	390	
4	0	0	0	0	510	390	
5	0	0	0	0	510	390	
6	0	0	0	0	510	390	
7	0	0	0	0	510	390	
8	0	0	0	0	510	390	
9	0	0	0	0	511	390	
10	0	0	0	0	510	390	
11	0	0	0	0	510	390	
12	0	0	0	0	510	389	
13	0	0	0	0	510	389	
14	0	0	0	0	511	390	
15	0	0	0	0	511	389	
0	0	0	0	0	511	389	
1	0	0	0	0	510	390	
2	0	0	0	0	510	389	
3	0	0	0	0	510	390	
4	0	0	0	0	510	390	
5	0	0	0	0	510	390	
6	0	0	0	0	509	390	
7	0	0	0	0	508	389	
8	0	0	0	0	508	389	
9	0	0	0	0	508	390	
10	0	0	0	0	507	390	
11	0	0	0	0	507	390	
12	0	0	0	0	507	389	
13	0	0	0	0	507	390	
14	0	0	0	0	507	389	
15	0	0	0	0	508	389	
0	0	0	0	0	508	389	
1	0	0	0	0	508	389	
2	0	0	0	0	508	389	
3	0	0	0	0	508	389	
4	0	0	0	0	507	389	
5	0	0	0	0	507	390	
6	0	0	0	0	506	389	
7	0	0	0	0	506	390	
8	0	0	0	0	504	389	
9	0	0	0	0	503	389	
10	0	0	0	0	504	389	
11	0	0	0	0	504	389	
12	0	0	0	0	504	389	
13	0	0	0	0	504	389	
14	0	0	0	0	504	389	
15	0	0	0	0	504	389	
0	0	0	0	0	504	389	
1	0	0	0	0	504	389	
2	0	0	0	0	504	389	
3	0	0	0	0	503	389	
4	0	0	0	0	503	389	
5	0	0	0	0	502	389	
6	0	0	0	0	502	390	
7	0	0	0	0	500	389	
8	0	0	0	0	499	389	
9	0	0	0	0	499	389	
10	0	0	0	0	499	389	
11	0	0	0	0	499	389	
12	0	0	0	0	499	389	
13	0	0	0	0	499	389	
14	0	0	0	0	500	389	
15	0	0	0	0	500	389	
0	0	0	0	0	501	389	
1	0	0	0	0	503	389	
2	0	0	0	0	504	389	
