# OpenSignals Text File Format. Version 1
# {"98:D3:B1:FD:3D:90": {"position": 0, "device": "bitalino_rev", "device name": "98:D3:B1:FD:3D:90", "device connection": "BTH98:D3:B1:FD:3D:90", "sampling rate": 1000, "resolution": [4, 1, 1, 1, 1, 10, 10], "firmware version": 1281, "comments": "", "keywords": "", "mode": 0, "sync interval": 2, "date": "2022-4-13", "time": "12:21:39.929", "channels": [2, 3], "sensor": ["ECGBIT", "EDABITREV"], "label": ["A2", "A3"], "column": ["nSeq", "I1", "I2", "O1", "O2", "A2", "A3"], "special": [{}, {}], "digital IO": [0, 0, 1, 1]}}
# EndOfHeader
0	0	0	0	0	563	61	
1	0	0	0	0	561	60	
2	0	0	0	0	559	60	
3	0	0	0	0	557	60	
4	0	0	0	0	555	61	
5	0	0	0	0	553	61	
6	0	0	0	0	551	61	
7	0	0	0	0	549	60	
8	0	0	0	0	547	61	
9	0	0	0	0	546	61	
10	0	0	0	0	544	60	
11	0	0	0	0	543	60	
12	0	0	0	0	542	60	
13	0	0	0	0	540	61	
14	0	0	0	0	539	61	
15	0	0	0	0	538	61	
0	0	0	0	0	536	60	
1	0	0	0	0	535	61	
2	0	0	0	0	535	61	
3	0	0	0	0	533	60	
4	0	0	0	0	532	61	
5	0	0	0	0	531	61	
6	0	0	0	0	531	61	
7	0	0	0	0	530	60	
8	0	0	0	0	529	61	
9	0	0	0	0	527	61	
10	0	0	0	0	527	60	
11	0	0	0	0	526	60	
12	0	0	0	0	526	61	
13	0	0	0	0	525	61	
14	0	0	0	0	526	60	
15	0	0	0	0	541	61	
0	0	0	0	0	571	61	
1	0	0	0	0	610	61	
2	0	0	0	0	657	60	
3	0	0	0	0	709	60	
4	0	0	0	0	766	61	
5	0	0	0	0	824	61	
6	0	0	0	0	883	60	
7	0	0	0	0	942	60	
8	0	0	0	0	1002	61	
9	0	0	0	0	1022	60	
10	0	0	0	0	1022	59	
11	0	0	0	0	1022	60	
12	0	0	0	0	1022	61	
13	0	0	0	0	1022	60	
14	0	0	0	0	1022	59	
15	0	0	0	0	1022	60	
0	0	0	0	0	1022	61	
1	0	0	0	0	1022	60	
2	0	0	0	0	1022	59	
3	0	0	0	0	1022	60	
4	0	0	0	0	1022	61	
5	0	0	0	0	1022	60	
6	0	0	0	0	1022	60	
7	0	0	0	0	1022	60	
8	0	0	0	0	1022	61	
9	0	0	0	0	1022	60	
10	0	0	0	0	1022	59	
11	0	0	0	0	1022	60	
12	0	0	0	0	1022	61	
13	0	0	0	0	1022	60	
14	0	0	0	0	1022	59	
15	0	0	0	0	1022	60	
0	0	0	0	0	1022	60	
1	0	0	0	0	1022	61	
2	0	0	0	0	1022	59	
3	0	0	0	0	1022	60	
4	0	0	0	0	1022	61	
5	0	0	0	0	1022	60	
6	0	0	0	0	1022	59	
7	0	0	0	0	1022	61	
8	0	0	0	0	1022	60	
9	0	0	0	0	1022	59	
10	0	0	0	0	1022	61	
11	0	0	0	0	1022	61	
12	0	0	0	0	1022	59	
13	0	0	0	0	1022	60	
14	0	0	0	0	1022	61	
15	0	0	0	0	1022	60	
0	0	0	0	0	1022	59	
1	0	0	0	0	1022	60	
2	0	0	0	0	1022	61	
3	0	0	0	0	1022	60	
4	0	0	0	0	1022	60	
5	0	0	0	0	1022	61	
6	0	0	0	0	1022	61	
7	0	0	0	0	1022	61	
8	0	0	0	0	1022	60	
9	0	0	0	0	1023	60	
10	0	0	0	0	1022	61	
11	0	0	0	0	1022	61	
12	0	0	0	0	1022	60	
13	0	0	0	0	1022	60	
14	0	0	0	0	1022	60	
15	0	0	0	0	1022	61	
0	0	0	0	0	1022	60	
1	0	0	0	0	1022	60	
2	0	0	0	0	1022	59	
3	0	0	0	0	1022	60	
4	0	0	0	0	1022	61	
5	0	0	0	0	1022	60	
6	0	0	0	0	1022	60	
7	0	0	0	0	1022	60	
8	0	0	0	0	1023	61	
9	0	0	0	0	1022	62	
10	0	0	0	0	1022	60	
11	0	0	0	0	1022	60	
12	0	0	0	0	1022	61	
13	0	0	0	0	1022	60	
14	0	0	0	0	1022	60	
15	0	0	0	0	1022	60	
0	0	0	0	0	1022	61	
1	0	0	0	0	1022	60	
2	0	0	0	0	1022	60	
3	0	0	0	0	1022	61	
4	0	0	0	0	1022	61	
5	0	0	0	0	1022	60	
6	0	0	0	0	1022	60	
7	0	0	0	0	1022	61	
8	0	0	0	0	1022	62	
9	0	0	0	0	1022	60	
10	0	0	0	0	1022	60	
11	0	0	0	0	1022	61	
12	0	0	0	0	1022	61	
13	0	0	0	0	1022	60	
14	0	0	0	0	1022	60	
15	0	0	0	0	1022	61	
0	0	0	0	0	1022	62	
1	0	0	0	0	1023	60	
2	0	0	0	0	1022	60	
3	0	0	0	0	1022	61	
4	0	0	0	0	1022	61	
5	0	0	0	0	1022	60	
6	0	0	0	0	1022	60	
7	0	0	0	0	1022	61	
8	0	0	0	0	1022	62	
9	0	0	0	0	1022	60	
10	0	0	0	0	1022	60	
11	0	0	0	0	1022	61	
12	0	0	0	0	1022	61	
13	0	0	0	0	1022	62	
14	0	0	0	0	1022	61	
15	0	0	0	0	1022	60	
0	0	0	0	0	1022	60	
1	0	0	0	0	1022	61	
2	0	0	0	0	1022	61	
3	0	0	0	0	1022	60	
4	0	0	0	0	1022	60	
5	0	0	0	0	1022	61	
6	0	0	0	0	1022	61	
7	0	0	0	0	1022	60	
8	0	0	0	0	1022	60	
9	0	0	0	0	1022	61	
10	0	0	0	0	1022	60	
11	0	0	0	0	1022	60	
12	0	0	0	0	1022	61	
13	0	0	0	0	1022	62	
14	0	0	0	0	1022	60	
15	0	0	0	0	1022	60	
0	0	0	0	0	1022	61	
1	0	0	0	0	1022	62	
2	0	0	0	0	1022	61	
3	0	0	0	0	1022	60	
4	0	0	0	0	1022	61	
5	0	0	0	0	1022	62	
6	0	0	0	0	1022	61	
7	0	0	0	0	1022	60	
8	0	0	0	0	1022	61	
9	0	0	0	0	1023	61	
10	0	0	0	0	1022	61	
11	0	0	0	0	1022	60	
12	0	0	0	0	1022	61	
13	0	0	0	0	1022	62	
14	0	0	0	0	1022	60	
15	0	0	0	0	1022	60	
0	0	0	0	0	1022	61	
1	0	0	0	0	1022	62	
2	0	0	0	0	1022	60	
3	0	0	0	0	1022	60	
4	0	0	0	0	1022	61	
5	0	0	0	0	1022	61	
6	0	0	0	0	1022	60	
7	0	0	0	0	1022	61	
8	0	0	0	0	1022	62	
9	0	0	0	0	1022	60	
10	0	0	0	0	1022	60	
11	0	0	0	0	1022	62	
12	0	0	0	0	1022	61	
13	0	0	0	0	1022	60	
14	0	0	0	0	1022	61	
15	0	0	0	0	1022	62	
0	0	0	0	0	1022	61	
1	0	0	0	0	1022	60	
2	0	0	0	0	1022	60	
3	0	0	0	0	1022	61	
4	0	0	0	0	1022	62	
5	0	0	0	0	1022	60	
6	0	0	0	0	1022	60	
7	0	0	0	0	1022	61	
8	0	0	0	0	1022	62	
9	0	0	0	0	1022	60	
10	0	0	0	0	1022	60	
11	0	0	0	0	1022	62	
12	0	0	0	0	1022	61	
13	0	0	0	0	1022	60	
14	0	0	0	0	1022	61	
15	0	0	0	0	1022	62	
0	0	0	0	0	1022	60	
1	0	0	0	0	1022	60	
2	0	0	0	0	1022	61	
3	0	0	0	0	1022	62	
4	0	0	0	0	1022	60	
5	0	0	0	0	1022	60	
6	0	0	0	0	1022	61	
7	0	0	0	0	721	62	
8	0	0	0	0	101	63	
9	0	0	0	0	0	63	
10	0	0	0	0	0	63	
11	0	0	0	0	0	63	
12	0	0	0	0	0	63	
13	0	0	0	0	0	63	
14	0	0	0	0	0	63	
15	0	0	0	0	0	63	
0	0	0	0	0	0	63	
1	0	0	0	0	0	63	
2	0	0	0	0	0	63	
3	0	0	0	0	0	63	
4	0	0	0	0	0	63	
5	0	0	0	0	0	63	
6	0	0	0	0	0	63	
7	0	0	0	0	0	63	
8	0	0	0	0	0	63	
9	0	0	0	0	0	63	
10	0	0	0	0	0	63	
11	0	0	0	0	0	63	
12	0	0	0	0	0	63	
13	0	0	0	0	0	63	
14	0	0	0	0	0	63	
15	0	0	0	0	0	63	
0	0	0	0	0	0	63	
1	0	0	0	0	0	63	
2	0	0	0	0	0	63	
3	0	0	0	0	0	63	
4	0	0	0	0	0	63	
5	0	0	0	0	0	63	
6	0	0	0	0	0	63	
7	0	0	0	0	0	63	
8	0	0	0	0	0	63	
9	0	0	0	0	0	63	
10	0	0	0	0	0	63	
11	0	0	0	0	0	63	
12	0	0	0	0	0	63	
13	0	0	0	0	0	63	
14	0	0	0	0	0	63	
15	0	0	0	0	0	63	
0	0	0	0	0	0	63	
1	0	0	0	0	0	63	
2	0	0	0	0	0	63	
3	0	0	0	0	0	63	
4	0	0	0	0	0	63	
5	0	0	0	0	0	63	
6	0	0	0	0	0	63	
7	0	0	0	0	0	63	
8	0	0	0	0	0	63	
9	0	0	0	0	0	63	
10	0	0	0	0	0	63	
11	0	0	0	0	0	63	
12	0	0	0	0	0	63	
13	0	0	0	0	0	63	
14	0	0	0	0	0	63	
15	0	0	0	0	0	63	
0	0	0	0	0	0	63	
1	0	0	0	0	0	63	
2	0	0	0	0	0	63	
3	0	0	0	0	0	63	
4	0	0	0	0	0	63	
5	0	0	0	0	0	63	
6	0	0	0	0	0	63	
7	0	0	0	0	0	63	
8	0	0	0	0	0	63	
9	0	0	0	0	0	63	
10	0	0	0	0	0	63	
11	0	0	0	0	0	63	
12	0	0	0	0	0	63	
13	0	0	0	0	0	63	
14	0	0	0	0	0	63	
15	0	0	0	0	0	63	
0	0	0	0	0	0	63	
1	0	0	0	0	0	63	
2	0	0	0	0	0	63	
3	0	0	0	0	0	63	
4	0	0	0	0	0	63	
5	0	0	0	0	0	63	
6	0	0	0	0	0	63	
7	0	0	0	0	0	63	
8	0	0	0	0	0	63	
9	0	0	0	0	0	63	
10	0	0	0	0	0	63	
11	0	0	0	0	0	63	
12	0	0	0	0	0	63	
13	0	0	0	0	0	63	
14	0	0	0	0	0	63	
15	0	0	0	0	0	63	
0	0	0	0	0	0	63	
1	0	0	0	0	0	63	
2	0	0	0	0	0	63	
3	0	0	0	0	0	63	
4	0	0	0	0	0	63	
5	0	0	0	0	0	63	
6	0	0	0	0	0	63	
7	0	0	0	0	0	63	
8	0	0	0	0	0	63	
9	0	0	0	0	0	63	
10	0	0	0	0	0	63	
11	0	0	0	0	0	63	
12	0	0	0	0	0	63	
13	0	0	0	0	0	63	
14	0	0	0	0	0	63	
15	0	0	0	0	0	63	
0	0	0	0	0	0	63	
1	0	0	0	0	0	63	
2	0	0	0	0	0	63	
3	0	0	0	0	0	63	
4	0	0	0	0	0	63	
5	0	0	0	0	0	63	
6	0	0	0	0	0	63	
7	0	0	0	0	0	63	
8	0	0	0	0	0	63	
9	0	0	0	0	0	63	
10	0	0	0	0	0	63	
11	0	0	0	0	0	63	
12	0	0	0	0	11	63	
13	0	0	0	0	32	63	
14	0	0	0	0	51	63	
15	0	0	0	0	71	63	
0	0	0	0	0	89	63	
1	0	0	0	0	106	63	
2	0	0	0	0	122	63	
3	0	0	0	0	137	63	
4	0	0	0	0	152	63	
5	0	0	0	0	167	63	
6	0	0	0	0	181	63	
7	0	0	0	0	196	63	
8	0	0	0	0	209	63	
9	0	0	0	0	223	63	
10	0	0	0	0	235	63	
11	0	0	0	0	246	63	
12	0	0	0	0	257	63	
13	0	0	0	0	267	63	
14	0	0	0	0	277	63	
15	0	0	0	0	287	63	
0	0	0	0	0	296	62	
1	0	0	0	0	305	63	
2	0	0	0	0	314	63	
3	0	0	0	0	323	63	
4	0	0	0	0	331	63	
5	0	0	0	0	338	62	
6	0	0	0	0	345	63	
7	0	0	0	0	352	63	
8	0	0	0	0	359	62	
9	0	0	0	0	365	62	
10	0	0	0	0	371	63	
11	0	0	0	0	377	63	
12	0	0	0	0	382	62	
13	0	0	0	0	387	62	
14	0	0	0	0	392	63	
15	0	0	0	0	398	63	
0	0	0	0	0	402	62	
1	0	0	0	0	407	62	
2	0	0	0	0	412	63	
3	0	0	0	0	416	63	
4	0	0	0	0	419	63	
5	0	0	0	0	423	62	
6	0	0	0	0	427	62	
7	0	0	0	0	431	63	
8	0	0	0	0	434	62	
9	0	0	0	0	438	62	
10	0	0	0	0	441	62	
11	0	0	0	0	444	63	
12	0	0	0	0	446	62	
13	0	0	0	0	448	62	
14	0	0	0	0	450	62	
15	0	0	0	0	453	63	
0	0	0	0	0	455	63	
1	0	0	0	0	458	62	
2	0	0	0	0	460	62	
3	0	0	0	0	462	63	
4	0	0	0	0	463	63	
5	0	0	0	0	465	62	
6	0	0	0	0	466	62	
7	0	0	0	0	467	63	
8	0	0	0	0	470	63	
9	0	0	0	0	473	62	
10	0	0	0	0	482	62	
11	0	0	0	0	496	62	
12	0	0	0	0	514	62	
13	0	0	0	0	535	62	
14	0	0	0	0	556	62	
15	0	0	0	0	576	62	
0	0	0	0	0	599	62	
1	0	0	0	0	622	62	
2	0	0	0	0	645	61	
3	0	0	0	0	668	62	
4	0	0	0	0	692	62	
5	0	0	0	0	716	63	
6	0	0	0	0	739	62	
7	0	0	0	0	760	61	
8	0	0	0	0	781	62	
9	0	0	0	0	801	62	
10	0	0	0	0	820	62	
11	0	0	0	0	838	61	
12	0	0	0	0	855	62	
13	0	0	0	0	872	62	
14	0	0	0	0	890	61	
15	0	0	0	0	907	61	
0	0	0	0	0	923	62	
1	0	0	0	0	939	62	
2	0	0	0	0	956	60	
3	0	0	0	0	971	61	
4	0	0	0	0	988	62	
5	0	0	0	0	1003	62	
6	0	0	0	0	1018	61	
7	0	0	0	0	1022	61	
8	0	0	0	0	1022	62	
9	0	0	0	0	1022	61	
10	0	0	0	0	1022	60	
11	0	0	0	0	1022	62	
12	0	0	0	0	1022	62	
13	0	0	0	0	1022	61	
14	0	0	0	0	1022	60	
15	0	0	0	0	1022	61	
0	0	0	0	0	1022	62	
1	0	0	0	0	1022	62	
2	0	0	0	0	1022	61	
3	0	0	0	0	1022	60	
4	0	0	0	0	1022	62	
5	0	0	0	0	1022	62	
6	0	0	0	0	1022	61	
7	0	0	0	0	1022	60	
8	0	0	0	0	1022	61	
9	0	0	0	0	1022	62	
10	0	0	0	0	1022	62	
11	0	0	0	0	1022	62	
12	0	0	0	0	1022	61	
13	0	0	0	0	1022	60	
14	0	0	0	0	1022	61	
15	0	0	0	0	1022	62	
0	0	0	0	0	1022	61	
1	0	0	0	0	1022	60	
2	0	0	0	0	1022	62	
3	0	0	0	0	1022	62	
4	0	0	0	0	1022	62	
5	0	0	0	0	1022	60	
6	0	0	0	0	1022	60	
7	0	0	0	0	1022	62	
8	0	0	0	0	1022	62	
9	0	0	0	0	1022	62	
10	0	0	0	0	1022	61	
11	0	0	0	0	1022	60	
12	0	0	0	0	1022	62	
13	0	0	0	0	1022	62	
14	0	0	0	0	1022	62	
15	0	0	0	0	1022	61	
0	0	0	0	0	1022	60	
1	0	0	0	0	1022	61	
2	0	0	0	0	1022	62	
3	0	0	0	0	1022	62	
4	0	0	0	0	1022	61	
5	0	0	0	0	1022	61	
6	0	0	0	0	1022	62	
7	0	0	0	0	1022	61	
8	0	0	0	0	1022	60	
9	0	0	0	0	1022	62	
10	0	0	0	0	1022	62	
11	0	0	0	0	1022	61	
12	0	0	0	0	1022	61	
13	0	0	0	0	1022	62	
14	0	0	0	0	1022	62	
15	0	0	0	0	1022	61	
0	0	0	0	0	1022	61	
1	0	0	0	0	1022	61	
2	0	0	0	0	1022	62	
3	0	0	0	0	1022	62	
4	0	0	0	0	1022	61	
5	0	0	0	0	1022	61	
6	0	0	0	0	1022	62	
7	0	0	0	0	1022	62	
8	0	0	0	0	1022	62	
9	0	0	0	0	1022	62	
10	0	0	0	0	1022	62	
11	0	0	0	0	1022	62	
12	0	0	0	0	1022	62	
13	0	0	0	0	1022	62	
14	0	0	0	0	1022	61	
15	0	0	0	0	1022	61	
0	0	0	0	0	1022	62	
1	0	0	0	0	1022	62	
2	0	0	0	0	1022	62	
3	0	0	0	0	1022	62	
4	0	0	0	0	1022	62	
5	0	0	0	0	1022	62	
6	0	0	0	0	1022	61	
7	0	0	0	0	1022	61	
8	0	0	0	0	1022	61	
9	0	0	0	0	1022	61	
10	0	0	0	0	1022	61	
11	0	0	0	0	1022	61	
12	0	0	0	0	1022	60	
13	0	0	0	0	1022	60	
14	0	0	0	0	1022	61	
15	0	0	0	0	1022	61	
0	0	0	0	0	1022	61	
1	0	0	0	0	1022	61	
2	0	0	0	0	1022	60	
3	0	0	0	0	1022	60	
4	0	0	0	0	1022	61	
5	0	0	0	0	1022	61	
6	0	0	0	0	1022	61	
7	0	0	0	0	1022	62	
8	0	0	0	0	1022	62	
9	0	0	0	0	1022	62	
10	0	0	0	0	1022	62	
11	0	0	0	0	1022	62	
12	0	0	0	0	1022	62	
13	0	0	0	0	1022	62	
14	0	0	0	0	1022	62	
15	0	0	0	0	1022	62	
0	0	0	0	0	1022	62	
1	0	0	0	0	1022	62	
2	0	0	0	0	1022	62	
3	0	0	0	0	1022	62	
4	0	0	0	0	1022	62	
5	0	0	0	0	1022	62	
6	0	0	0	0	1022	62	
7	0	0	0	0	1022	62	
8	0	0	0	0	1022	62	
9	0	0	0	0	1022	63	
10	0	0	0	0	1022	62	
11	0	0	0	0	1022	62	
12	0	0	0	0	1022	62	
13	0	0	0	0	1022	62	
14	0	0	0	0	1022	62	
15	0	0	0	0	1022	62	
0	0	0	0	0	1022	61	
1	0	0	0	0	1022	61	
2	0	0	0	0	1022	61	
3	0	0	0	0	1022	61	
4	0	0	0	0	1022	60	
5	0	0	0	0	1022	61	
6	0	0	0	0	1022	62	
7	0	0	0	0	1022	61	
8	0	0	0	0	1022	62	
9	0	0	0	0	1022	61	
10	0	0	0	0	1022	61	
11	0	0	0	0	1022	61	
12	0	0	0	0	1022	61	
13	0	0	0	0	1022	61	
14	0	0	0	0	1022	61	
15	0	0	0	0	1022	60	
0	0	0	0	0	1022	61	
1	0	0	0	0	1022	61	
2	0	0	0	0	1022	61	
3	0	0	0	0	1022	60	
4	0	0	0	0	1022	60	
5	0	0	0	0	1022	61	
6	0	0	0	0	1022	62	
7	0	0	0	0	1022	62	
8	0	0	0	0	1022	60	
9	0	0	0	0	1022	61	
10	0	0	0	0	1022	61	
11	0	0	0	0	1022	61	
12	0	0	0	0	1022	61	
13	0	0	0	0	1022	61	
14	0	0	0	0	1022	62	
15	0	0	0	0	1022	62	
0	0	0	0	0	1022	62	
1	0	0	0	0	1022	62	
2	0	0	0	0	1022	62	
3	0	0	0	0	1022	62	
4	0	0	0	0	1022	62	
5	0	0	0	0	1022	62	
6	0	0	0	0	1022	62	
7	0	0	0	0	1022	62	
8	0	0	0	0	1022	62	
9	0	0	0	0	1022	62	
10	0	0	0	0	1022	62	
11	0	0	0	0	1022	62	
12	0	0	0	0	1022	62	
13	0	0	0	0	1022	62	
14	0	0	0	0	1022	62	
15	0	0	0	0	1022	62	
0	0	0	0	0	1022	62	
1	0	0	0	0	1022	63	
2	0	0	0	0	1022	62	
3	0	0	0	0	1022	62	
4	0	0	0	0	1022	61	
5	0	0	0	0	1022	62	
6	0	0	0	0	1022	61	
7	0	0	0	0	1022	61	
8	0	0	0	0	1022	61	
9	0	0	0	0	1022	60	
10	0	0	0	0	1022	61	
11	0	0	0	0	1022	61	
12	0	0	0	0	1022	61	
13	0	0	0	0	1022	61	
14	0	0	0	0	1022	62	
15	0	0	0	0	1022	63	
0	0	0	0	0	1022	63	
1	0	0	0	0	1022	62	
2	0	0	0	0	1022	62	
3	0	0	0	0	1022	61	
4	0	0	0	0	1022	61	
5	0	0	0	0	1022	62	
6	0	0	0	0	1022	62	
7	0	0	0	0	1022	62	
8	0	0	0	0	1022	62	
9	0	0	0	0	1022	62	
10	0	0	0	0	1022	62	
11	0	0	0	0	1022	62	
12	0	0	0	0	1022	62	
13	0	0	0	0	1022	62	
14	0	0	0	0	1022	62	
15	0	0	0	0	1022	62	
0	0	0	0	0	1022	62	
1	0	0	0	0	1022	62	
2	0	0	0	0	1022	62	
3	0	0	0	0	1022	62	
4	0	0	0	0	1022	62	
5	0	0	0	0	1022	62	
6	0	0	0	0	1022	62	
7	0	0	0	0	1022	62	
8	0	0	0	0	1022	63	
9	0	0	0	0	1022	63	
10	0	0	0	0	1022	63	
11	0	0	0	0	1022	62	
12	0	0	0	0	1022	62	
13	0	0	0	0	1022	61	
14	0	0	0	0	1022	61	
15	0	0	0	0	1022	61	
0	0	0	0	0	1022	61	
1	0	0	0	0	1022	61	
2	0	0	0	0	1022	61	
3	0	0	0	0	1022	60	
4	0	0	0	0	1022	60	
5	0	0	0	0	1022	61	
6	0	0	0	0	1022	61	
7	0	0	0	0	1022	61	
8	0	0	0	0	1022	61	
9	0	0	0	0	1022	61	
10	0	0	0	0	1022	61	
11	0	0	0	0	1022	61	
12	0	0	0	0	1022	61	
13	0	0	0	0	1022	61	
14	0	0	0	0	1022	61	
15	0	0	0	0	1022	62	
0	0	0	0	0	1022	62	
1	0	0	0	0	1022	62	
2	0	0	0	0	1022	62	
3	0	0	0	0	1022	62	
4	0	0	0	0	1022	62	
5	0	0	0	0	1022	62	
6	0	0	0	0	1022	62	
7	0	0	0	0	1022	62	
8	0	0	0	0	1022	62	
9	0	0	0	0	1022	62	
10	0	0	0	0	1022	62	
11	0	0	0	0	1022	63	
12	0	0	0	0	1022	63	
13	0	0	0	0	1022	62	
14	0	0	0	0	1022	63	
15	0	0	0	0	1022	62	
0	0	0	0	0	1022	62	
1	0	0	0	0	1022	62	
2	0	0	0	0	1022	62	
3	0	0	0	0	1022	61	
4	0	0	0	0	1022	61	
5	0	0	0	0	1022	61	
6	0	0	0	0	1022	61	
7	0	0	0	0	1022	61	
8	0	0	0	0	1022	61	
9	0	0	0	0	1022	60	
10	0	0	0	0	1022	61	
11	0	0	0	0	1022	61	
12	0	0	0	0	1022	61	
13	0	0	0	0	1022	61	
14	0	0	0	0	1022	61	
15	0	0	0	0	1022	61	
0	0	0	0	0	1022	61	
1	0	0	0	0	1022	61	
2	0	0	0	0	1022	62	
3	0	0	0	0	1022	62	
4	0	0	0	0	1022	62	
5	0	0	0	0	1022	62	
6	0	0	0	0	1022	62	
7	0	0	0	0	1022	62	
8	0	0	0	0	1022	62	
9	0	0	0	0	1022	62	
10	0	0	0	0	1022	62	
11	0	0	0	0	1022	63	
12	0	0	0	0	1022	63	
13	0	0	0	0	1022	62	
14	0	0	0	0	1022	63	
15	0	0	0	0	1022	62	
0	0	0	0	0	1022	63	
1	0	0	0	0	1022	63	
2	0	0	0	0	1022	63	
3	0	0	0	0	1022	62	
4	0	0	0	0	1022	62	
5	0	0	0	0	1022	62	
6	0	0	0	0	1022	62	
7	0	0	0	0	1022	62	
8	0	0	0	0	1022	62	
9	0	0	0	0	1022	62	
10	0	0	0	0	1022	61	
11	0	0	0	0	1022	61	
12	0	0	0	0	1022	62	
13	0	0	0	0	1022	62	
14	0	0	0	0	1022	63	
15	0	0	0	0	1022	62	
0	0	0	0	0	1017	62	
1	0	0	0	0	1006	62	
2	0	0	0	0	1000	62	
3	0	0	0	0	999	62	
4	0	0	0	0	1001	62	
5	0	0	0	0	1004	61	
6	0	0	0	0	1003	61	
7	0	0	0	0	999	62	
8	0	0	0	0	994	62	
9	0	0	0	0	990	62	
10	0	0	0	0	985	62	
11	0	0	0	0	980	61	
12	0	0	0	0	976	61	
13	0	0	0	0	973	61	
14	0	0	0	0	968	61	
15	0	0	0	0	966	61	
0	0	0	0	0	962	61	
1	0	0	0	0	958	61	
2	0	0	0	0	953	61	
3	0	0	0	0	948	61	
4	0	0	0	0	944	61	
5	0	0	0	0	941	62	
6	0	0	0	0	938	62	
7	0	0	0	0	935	62	
8	0	0	0	0	931	61	
9	0	0	0	0	927	61	
10	0	0	0	0	921	61	
11	0	0	0	0	917	62	
12	0	0	0	0	915	62	
13	0	0	0	0	914	62	
14	0	0	0	0	915	62	
15	0	0	0	0	916	62	
0	0	0	0	0	918	63	
1	0	0	0	0	919	63	
2	0	0	0	0	919	63	
3	0	0	0	0	918	63	
4	0	0	0	0	915	62	
5	0	0	0	0	911	62	
6	0	0	0	0	909	62	
7	0	0	0	0	904	62	
8	0	0	0	0	898	62	
9	0	0	0	0	892	62	
10	0	0	0	0	886	63	
11	0	0	0	0	880	62	
12	0	0	0	0	874	62	
13	0	0	0	0	869	62	
14	0	0	0	0	864	62	
15	0	0	0	0	861	63	
0	0	0	0	0	856	63	
1	0	0	0	0	848	63	
2	0	0	0	0	840	63	
3	0	0	0	0	834	63	
4	0	0	0	0	829	63	
5	0	0	0	0	827	63	
6	0	0	0	0	826	62	
7	0	0	0	0	826	63	
8	0	0	0	0	825	63	
9	0	0	0	0	822	62	
10	0	0	0	0	820	62	
11	0	0	0	0	820	62	
12	0	0	0	0	822	62	
13	0	0	0	0	824	63	
14	0	0	0	0	823	62	
15	0	0	0	0	822	62	
0	0	0	0	0	820	62	
1	0	0	0	0	819	62	
2	0	0	0	0	818	62	
3	0	0	0	0	815	62	
4	0	0	0	0	812	63	
5	0	0	0	0	807	63	
6	0	0	0	0	802	63	
7	0	0	0	0	796	63	
8	0	0	0	0	790	63	
9	0	0	0	0	785	63	
10	0	0	0	0	780	62	
11	0	0	0	0	777	62	
12	0	0	0	0	776	62	
13	0	0	0	0	775	62	
14	0	0	0	0	775	62	
15	0	0	0	0	771	62	
0	0	0	0	0	769	62	
1	0	0	0	0	765	62	
2	0	0	0	0	763	61	
3	0	0	0	0	761	62	
4	0	0	0	0	761	62	
5	0	0	0	0	760	62	
6	0	0	0	0	757	62	
7	0	0	0	0	755	62	
8	0	0	0	0	753	62	
9	0	0	0	0	753	63	
10	0	0	0	0	753	63	
11	0	0	0	0	752	63	
12	0	0	0	0	750	63	
13	0	0	0	0	747	63	
14	0	0	0	0	740	63	
15	0	0	0	0	733	63	
0	0	0	0	0	724	63	
1	0	0	0	0	715	63	
2	0	0	0	0	709	62	
3	0	0	0	0	705	62	
4	0	0	0	0	704	62	
5	0	0	0	0	706	62	
6	0	0	0	0	707	62	
7	0	0	0	0	708	62	
8	0	0	0	0	709	62	
9	0	0	0	0	709	62	
10	0	0	0	0	710	62	
11	0	0	0	0	711	62	
12	0	0	0	0	712	62	
13	0	0	0	0	712	62	
14	0	0	0	0	712	62	
15	0	0	0	0	711	62	
0	0	0	0	0	709	62	
1	0	0	0	0	709	62	
2	0	0	0	0	709	62	
3	0	0	0	0	710	62	
4	0	0	0	0	707	62	
5	0	0	0	0	702	62	
6	0	0	0	0	691	62	
7	0	0	0	0	677	62	
8	0	0	0	0	664	63	
9	0	0	0	0	655	63	
10	0	0	0	0	653	63	
11	0	0	0	0	658	63	
12	0	0	0	0	666	62	
13	0	0	0	0	670	62	
14	0	0	0	0	670	62	
15	0	0	0	0	665	62	
0	0	0	0	0	657	62	
1	0	0	0	0	649	62	
2	0	0	0	0	646	62	
3	0	0	0	0	642	62	
4	0	0	0	0	639	62	
5	0	0	0	0	638	62	
6	0	0	0	0	635	62	
7	0	0	0	0	632	62	
8	0	0	0	0	630	62	
9	0	0	0	0	628	62	
10	0	0	0	0	625	62	
11	0	0	0	0	622	62	
12	0	0	0	0	621	63	
13	0	0	0	0	620	62	
14	0	0	0	0	620	62	
15	0	0	0	0	619	62	
0	0	0	0	0	617	62	
1	0	0	0	0	615	62	
2	0	0	0	0	613	62	
3	0	0	0	0	610	63	
4	0	0	0	0	607	63	
5	0	0	0	0	604	63	
6	0	0	0	0	599	63	
7	0	0	0	0	596	63	
8	0	0	0	0	594	63	
9	0	0	0	0	592	63	
10	0	0	0	0	590	63	
11	0	0	0	0	589	63	
12	0	0	0	0	587	62	
13	0	0	0	0	584	62	
14	0	0	0	0	583	62	
15	0	0	0	0	582	62	
0	0	0	0	0	581	62	
1	0	0	0	0	580	62	
2	0	0	0	0	580	62	
3	0	0	0	0	580	62	
4	0	0	0	0	579	62	
5	0	0	0	0	577	62	
6	0	0	0	0	574	62	
7	0	0	0	0	568	62	
8	0	0	0	0	562	62	
9	0	0	0	0	557	62	
10	0	0	0	0	552	63	
11	0	0	0	0	548	63	
12	0	0	0	0	543	62	
13	0	0	0	0	538	63	
14	0	0	0	0	532	62	
15	0	0	0	0	527	62	
0	0	0	0	0	524	62	
1	0	0	0	0	524	62	
2	0	0	0	0	526	62	
3	0	0	0	0	527	62	
4	0	0	0	0	527	62	
5	0	0	0	0	526	62	
6	0	0	0	0	523	62	
7	0	0	0	0	522	62	
8	0	0	0	0	521	62	
9	0	0	0	0	521	63	
10	0	0	0	0	519	62	
11	0	0	0	0	518	62	
12	0	0	0	0	516	62	
13	0	0	0	0	515	62	
14	0	0	0	0	513	62	
15	0	0	0	0	510	62	
0	0	0	0	0	508	63	
1	0	0	0	0	506	63	
2	0	0	0	0	503	63	
3	0	0	0	0	502	63	
4	0	0	0	0	500	62	
5	0	0	0	0	498	62	
6	0	0	0	0	496	62	
7	0	0	0	0	495	62	
8	0	0	0	0	493	63	
9	0	0	0	0	493	63	
10	0	0	0	0	494	63	
11	0	0	0	0	493	63	
12	0	0	0	0	492	63	
13	0	0	0	0	491	63	
14	0	0	0	0	490	63	
15	0	0	0	0	490	63	
0	0	0	0	0	490	63	
1	0	0	0	0	488	63	
2	0	0	0	0	487	63	
3	0	0	0	0	481	63	
4	0	0	0	0	474	63	
5	0	0	0	0	468	63	
6	0	0	0	0	463	63	
7	0	0	0	0	462	63	
8	0	0	0	0	463	63	
9	0	0	0	0	467	63	
10	0	0	0	0	470	63	
11	0	0	0	0	467	63	
12	0	0	0	0	463	63	
13	0	0	0	0	455	63	
14	0	0	0	0	448	63	
15	0	0	0	0	443	63	
0	0	0	0	0	438	63	
1	0	0	0	0	436	63	
2	0	0	0	0	437	63	
3	0	0	0	0	438	63	
4	0	0	0	0	438	63	
5	0	0	0	0	436	63	
6	0	0	0	0	434	63	
7	0	0	0	0	432	63	
8	0	0	0	0	435	63	
9	0	0	0	0	439	63	
10	0	0	0	0	440	63	
11	0	0	0	0	440	63	
12	0	0	0	0	440	63	
13	0	0	0	0	440	63	
14	0	0	0	0	439	63	
15	0	0	0	0	437	62	
0	0	0	0	0	436	63	
1	0	0	0	0	435	62	
2	0	0	0	0	434	63	
3	0	0	0	0	433	63	
4	0	0	0	0	432	63	
5	0	0	0	0	432	63	
6	0	0	0	0	433	63	
7	0	0	0	0	434	63	
8	0	0	0	0	435	63	
9	0	0	0	0	436	63	
10	0	0	0	0	438	63	
11	0	0	0	0	438	63	
12	0	0	0	0	438	63	
13	0	0	0	0	436	63	
14	0	0	0	0	433	63	
15	0	0	0	0	429	63	
0	0	0	0	0	424	63	
1	0	0	0	0	419	63	
2	0	0	0	0	413	63	
3	0	0	0	0	407	63	
4	0	0	0	0	403	63	
5	0	0	0	0	399	63	
6	0	0	0	0	396	63	
7	0	0	0	0	393	63	
8	0	0	0	0	393	63	
9	0	0	0	0	396	63	
10	0	0	0	0	399	63	
11	0	0	0	0	403	63	
12	0	0	0	0	404	63	
13	0	0	0	0	404	63	
14	0	0	0	0	404	63	
15	0	0	0	0	404	63	
0	0	0	0	0	402	63	
1	0	0	0	0	399	63	
2	0	0	0	0	397	63	
3	0	0	0	0	395	63	
4	0	0	0	0	393	63	
5	0	0	0	0	393	63	
6	0	0	0	0	394	63	
7	0	0	0	0	395	63	
8	0	0	0	0	396	63	
9	0	0	0	0	396	63	
10	0	0	0	0	396	63	
11	0	0	0	0	394	63	
12	0	0	0	0	392	63	
13	0	0	0	0	391	63	
14	0	0	0	0	390	63	
15	0	0	0	0	388	63	
0	0	0	0	0	388	63	
1	0	0	0	0	387	63	
2	0	0	0	0	384	63	
3	0	0	0	0	381	63	
4	0	0	0	0	375	63	
5	0	0	0	0	370	63	
6	0	0	0	0	366	63	
7	0	0	0	0	365	63	
8	0	0	0	0	364	63	
9	0	0	0	0	364	63	
10	0	0	0	0	365	63	
11	0	0	0	0	366	63	
12	0	0	0	0	365	63	
13	0	0	0	0	364	63	
14	0	0	0	0	364	63	
15	0	0	0	0	364	63	
0	0	0	0	0	364	63	
1	0	0	0	0	363	63	
2	0	0	0	0	362	63	
3	0	0	0	0	360	63	
4	0	0	0	0	359	63	
5	0	0	0	0	357	63	
6	0	0	0	0	355	63	
7	0	0	0	0	353	63	
8	0	0	0	0	353	63	
9	0	0	0	0	352	63	
10	0	0	0	0	352	63	
11	0	0	0	0	351	63	
12	0	0	0	0	352	63	
13	0	0	0	0	354	63	
14	0	0	0	0	356	63	
15	0	0	0	0	357	63	
0	0	0	0	0	358	63	
1	0	0	0	0	355	63	
2	0	0	0	0	347	63	
3	0	0	0	0	337	63	
4	0	0	0	0	327	63	
5	0	0	0	0	319	63	
6	0	0	0	0	315	63	
7	0	0	0	0	313	63	
8	0	0	0	0	314	63	
9	0	0	0	0	317	63	
10	0	0	0	0	322	63	
11	0	0	0	0	327	63	
12	0	0	0	0	330	63	
13	0	0	0	0	331	63	
14	0	0	0	0	326	63	
15	0	0	0	0	321	63	
0	0	0	0	0	319	63	
1	0	0	0	0	317	63	
2	0	0	0	0	315	63	
3	0	0	0	0	313	63	
4	0	0	0	0	314	63	
5	0	0	0	0	313	63	
6	0	0	0	0	313	63	
7	0	0	0	0	313	63	
8	0	0	0	0	316	63	
9	0	0	0	0	319	63	
10	0	0	0	0	321	63	
11	0	0	0	0	322	63	
12	0	0	0	0	321	63	
13	0	0	0	0	319	63	
14	0	0	0	0	320	63	
15	0	0	0	0	320	63	
0	0	0	0	0	319	63	
1	0	0	0	0	318	63	
2	0	0	0	0	316	63	
3	0	0	0	0	313	63	
4	0	0	0	0	308	63	
5	0	0	0	0	302	63	
6	0	0	0	0	296	63	
7	0	0	0	0	291	63	
8	0	0	0	0	287	63	
9	0	0	0	0	286	63	
10	0	0	0	0	283	63	
11	0	0	0	0	279	63	
12	0	0	0	0	276	63	
13	0	0	0	0	275	63	
14	0	0	0	0	273	63	
15	0	0	0	0	271	63	
0	0	0	0	0	268	63	
1	0	0	0	0	267	63	
2	0	0	0	0	266	63	
3	0	0	0	0	266	64	
4	0	0	0	0	267	64	
5	0	0	0	0	267	63	
6	0	0	0	0	267	63	
7	0	0	0	0	266	63	
8	0	0	0	0	265	63	
9	0	0	0	0	267	63	
10	0	0	0	0	268	63	
11	0	0	0	0	269	63	
12	0	0	0	0	270	63	
13	0	0	0	0	270	63	
14	0	0	0	0	269	63	
15	0	0	0	0	268	63	
0	0	0	0	0	266	63	
1	0	0	0	0	265	63	
2	0	0	0	0	264	63	
3	0	0	0	0	264	63	
4	0	0	0	0	265	63	
5	0	0	0	0	268	63	
6	0	0	0	0	269	63	
7	0	0	0	0	271	63	
8	0	0	0	0	272	63	
9	0	0	0	0	274	63	
10	0	0	0	0	276	63	
11	0	0	0	0	279	63	
12	0	0	0	0	281	63	
13	0	0	0	0	283	63	
14	0	0	0	0	284	63	
15	0	0	0	0	285	63	
0	0	0	0	0	286	63	
1	0	0	0	0	286	63	
2	0	0	0	0	287	63	
3	0	0	0	0	288	63	
4	0	0	0	0	288	63	
5	0	0	0	0	287	63	
6	0	0	0	0	285	63	
7	0	0	0	0	283	63	
8	0	0	0	0	281	63	
9	0	0	0	0	279	63	
10	0	0	0	0	280	63	
11	0	0	0	0	279	63	
12	0	0	0	0	278	63	
13	0	0	0	0	277	63	
14	0	0	0	0	276	63	
15	0	0	0	0	274	63	
0	0	0	0	0	272	63	
1	0	0	0	0	270	63	
2	0	0	0	0	269	64	
3	0	0	0	0	268	63	
4	0	0	0	0	268	63	
5	0	0	0	0	267	63	
6	0	0	0	0	265	63	
7	0	0	0	0	263	63	
8	0	0	0	0	260	63	
9	0	0	0	0	258	63	
10	0	0	0	0	258	63	
11	0	0	0	0	258	63	
12	0	0	0	0	257	63	
13	0	0	0	0	257	63	
14	0	0	0	0	256	63	
15	0	0	0	0	254	63	
0	0	0	0	0	253	63	
1	0	0	0	0	253	63	
2	0	0	0	0	253	63	
3	0	0	0	0	253	64	
4	0	0	0	0	254	63	
5	0	0	0	0	253	64	
6	0	0	0	0	253	63	
7	0	0	0	0	253	63	
8	0	0	0	0	252	63	
9	0	0	0	0	252	63	
10	0	0	0	0	252	63	
11	0	0	0	0	252	63	
12	0	0	0	0	252	63	
13	0	0	0	0	252	63	
14	0	0	0	0	252	63	
15	0	0	0	0	253	63	
0	0	0	0	0	255	63	
1	0	0	0	0	257	63	
2	0	0	0	0	259	63	
3	0	0	0	0	259	63	
4	0	0	0	0	260	63	
5	0	0	0	0	260	63	
6	0	0	0	0	259	63	
7	0	0	0	0	257	63	
8	0	0	0	0	256	63	
9	0	0	0	0	256	63	
10	0	0	0	0	255	63	
11	0	0	0	0	254	63	
12	0	0	0	0	253	63	
13	0	0	0	0	252	63	
14	0	0	0	0	252	63	
15	0	0	0	0	252	63	
0	0	0	0	0	251	63	
1	0	0	0	0	251	63	
2	0	0	0	0	251	63	
3	0	0	0	0	251	63	
4	0	0	0	0	251	63	
5	0	0	0	0	251	63	
6	0	0	0	0	250	63	
7	0	0	0	0	250	63	
8	0	0	0	0	250	63	
9	0	0	0	0	250	63	
10	0	0	0	0	249	63	
11	0	0	0	0	250	64	
12	0	0	0	0	250	63	
13	0	0	0	0	249	63	
14	0	0	0	0	248	63	
15	0	0	0	0	248	63	
0	0	0	0	0	248	63	
1	0	0	0	0	247	63	
2	0	0	0	0	246	63	
3	0	0	0	0	245	63	
4	0	0	0	0	245	63	
5	0	0	0	0	245	63	
6	0	0	0	0	245	63	
7	0	0	0	0	245	63	
8	0	0	0	0	245	63	
9	0	0	0	0	245	63	
10	0	0	0	0	246	63	
11	0	0	0	0	244	63	
12	0	0	0	0	243	63	
13	0	0	0	0	242	63	
14	0	0	0	0	241	63	
15	0	0	0	0	241	63	
0	0	0	0	0	240	63	
1	0	0	0	0	239	63	
2	0	0	0	0	240	63	
3	0	0	0	0	240	63	
4	0	0	0	0	241	63	
5	0	0	0	0	241	63	
6	0	0	0	0	240	63	
7	0	0	0	0	241	63	
8	0	0	0	0	241	63	
9	0	0	0	0	241	63	
10	0	0	0	0	240	63	
11	0	0	0	0	240	63	
12	0	0	0	0	239	63	
13	0	0	0	0	240	63	
14	0	0	0	0	240	63	
15	0	0	0	0	241	63	
0	0	0	0	0	240	63	
1	0	0	0	0	241	63	
2	0	0	0	0	241	63	
3	0	0	0	0	242	63	
4	0	0	0	0	243	63	
5	0	0	0	0	243	64	
6	0	0	0	0	242	63	
7	0	0	0	0	243	63	
8	0	0	0	0	243	63	
9	0	0	0	0	243	63	
10	0	0	0	0	243	63	
11	0	0	0	0	244	63	
12	0	0	0	0	244	63	
13	0	0	0	0	244	63	
14	0	0	0	0	244	63	
15	0	0	0	0	244	63	
0	0	0	0	0	244	63	
1	0	0	0	0	245	63	
2	0	0	0	0	246	63	
3	0	0	0	0	246	63	
4	0	0	0	0	246	63	
5	0	0	0	0	247	63	
6	0	0	0	0	248	63	
7	0	0	0	0	248	63	
8	0	0	0	0	248	63	
9	0	0	0	0	248	63	
10	0	0	0	0	247	63	
11	0	0	0	0	247	63	
12	0	0	0	0	246	63	
13	0	0	0	0	246	63	
14	0	0	0	0	246	63	
15	0	0	0	0	247	63	
0	0	0	0	0	247	63	
1	0	0	0	0	248	63	
2	0	0	0	0	247	63	
3	0	0	0	0	246	63	
4	0	0	0	0	246	63	
5	0	0	0	0	247	63	
6	0	0	0	0	248	63	
7	0	0	0	0	248	63	
8	0	0	0	0	249	63	
9	0	0	0	0	251	63	
10	0	0	0	0	251	64	
11	0	0	0	0	252	63	
12	0	0	0	0	252	63	
13	0	0	0	0	252	63	
14	0	0	0	0	251	63	
15	0	0	0	0	251	63	
0	0	0	0	0	251	63	
1	0	0	0	0	251	63	
2	0	0	0	0	251	63	
3	0	0	0	0	252	63	
4	0	0	0	0	251	63	
5	0	0	0	0	249	63	
6	0	0	0	0	248	63	
7	0	0	0	0	246	63	
8	0	0	0	0	244	63	
9	0	0	0	0	243	63	
10	0	0	0	0	243	64	
11	0	0	0	0	243	63	
12	0	0	0	0	243	63	
13	0	0	0	0	242	63	
14	0	0	0	0	241	63	
15	0	0	0	0	240	63	
0	0	0	0	0	240	63	
1	0	0	0	0	240	63	
2	0	0	0	0	241	63	
3	0	0	0	0	241	63	
4	0	0	0	0	242	63	
5	0	0	0	0	242	63	
6	0	0	0	0	243	63	
7	0	0	0	0	243	63	
8	0	0	0	0	244	63	
9	0	0	0	0	244	63	
10	0	0	0	0	244	63	
11	0	0	0	0	243	63	
12	0	0	0	0	243	63	
13	0	0	0	0	244	63	
14	0	0	0	0	244	63	
15	0	0	0	0	244	63	
0	0	0	0	0	243	63	
1	0	0	0	0	241	63	
2	0	0	0	0	240	63	
3	0	0	0	0	239	63	
4	0	0	0	0	239	63	
5	0	0	0	0	241	63	
6	0	0	0	0	244	63	
7	0	0	0	0	246	63	
8	0	0	0	0	247	63	
9	0	0	0	0	249	63	
10	0	0	0	0	251	63	
11	0	0	0	0	252	63	
12	0	0	0	0	252	63	
13	0	0	0	0	253	63	
14	0	0	0	0	252	63	
15	0	0	0	0	249	63	
0	0	0	0	0	247	63	
1	0	0	0	0	246	63	
2	0	0	0	0	246	63	
3	0	0	0	0	247	63	
4	0	0	0	0	248	63	
5	0	0	0	0	249	63	
6	0	0	0	0	250	63	
7	0	0	0	0	252	63	
8	0	0	0	0	253	63	
9	0	0	0	0	255	63	
10	0	0	0	0	256	63	
11	0	0	0	0	256	63	
12	0	0	0	0	258	64	
13	0	0	0	0	258	63	
14	0	0	0	0	257	63	
15	0	0	0	0	257	63	
0	0	0	0	0	257	63	
1	0	0	0	0	257	63	
2	0	0	0	0	258	63	
3	0	0	0	0	259	63	
4	0	0	0	0	259	63	
5	0	0	0	0	260	63	
6	0	0	0	0	262	63	
7	0	0	0	0	262	63	
8	0	0	0	0	262	63	
9	0	0	0	0	263	63	
10	0	0	0	0	264	63	
11	0	0	0	0	265	63	
12	0	0	0	0	265	63	
13	0	0	0	0	265	63	
14	0	0	0	0	265	63	
15	0	0	0	0	265	63	
0	0	0	0	0	266	63	
1	0	0	0	0	267	63	
2	0	0	0	0	268	63	
3	0	0	0	0	270	63	
4	0	0	0	0	271	63	
5	0	0	0	0	273	63	
6	0	0	0	0	275	63	
7	0	0	0	0	275	63	
8	0	0	0	0	276	63	
9	0	0	0	0	277	63	
10	0	0	0	0	279	63	
11	0	0	0	0	280	63	
12	0	0	0	0	281	63	
13	0	0	0	0	281	63	
14	0	0	0	0	281	63	
15	0	0	0	0	283	63	
0	0	0	0	0	283	63	
1	0	0	0	0	284	63	
2	0	0	0	0	284	63	
3	0	0	0	0	285	63	
4	0	0	0	0	286	63	
5	0	0	0	0	287	63	
6	0	0	0	0	288	63	
7	0	0	0	0	289	63	
8	0	0	0	0	291	63	
9	0	0	0	0	293	63	
10	0	0	0	0	294	63	
11	0	0	0	0	296	63	
12	0	0	0	0	297	63	
13	0	0	0	0	298	63	
14	0	0	0	0	299	63	
15	0	0	0	0	299	63	
0	0	0	0	0	300	63	
1	0	0	0	0	300	63	
2	0	0	0	0	300	63	
3	0	0	0	0	299	63	
4	0	0	0	0	300	63	
5	0	0	0	0	300	63	
6	0	0	0	0	300	63	
7	0	0	0	0	301	63	
8	0	0	0	0	302	63	
9	0	0	0	0	302	63	
10	0	0	0	0	302	63	
11	0	0	0	0	303	63	
12	0	0	0	0	304	63	
13	0	0	0	0	304	63	
14	0	0	0	0	305	63	
15	0	0	0	0	306	63	
0	0	0	0	0	307	63	
1	0	0	0	0	306	63	
2	0	0	0	0	307	63	
3	0	0	0	0	307	63	
4	0	0	0	0	308	63	
5	0	0	0	0	310	63	
6	0	0	0	0	311	63	
7	0	0	0	0	312	63	
8	0	0	0	0	314	63	
9	0	0	0	0	314	63	
10	0	0	0	0	315	63	
11	0	0	0	0	315	63	
12	0	0	0	0	316	63	
13	0	0	0	0	316	63	
14	0	0	0	0	315	63	
15	0	0	0	0	314	63	
0	0	0	0	0	313	63	
1	0	0	0	0	312	63	
2	0	0	0	0	311	63	
3	0	0	0	0	309	63	
4	0	0	0	0	308	63	
5	0	0	0	0	307	63	
6	0	0	0	0	305	63	
7	0	0	0	0	304	63	
8	0	0	0	0	304	63	
9	0	0	0	0	303	63	
10	0	0	0	0	303	63	
11	0	0	0	0	304	63	
12	0	0	0	0	305	63	
13	0	0	0	0	306	63	
14	0	0	0	0	307	63	
15	0	0	0	0	307	63	
0	0	0	0	0	307	63	
1	0	0	0	0	305	63	
2	0	0	0	0	304	63	
3	0	0	0	0	303	63	
4	0	0	0	0	302	63	
5	0	0	0	0	301	63	
6	0	0	0	0	300	63	
7	0	0	0	0	300	63	
8	0	0	0	0	301	63	
9	0	0	0	0	301	63	
10	0	0	0	0	301	63	
11	0	0	0	0	302	63	
12	0	0	0	0	301	63	
13	0	0	0	0	301	63	
14	0	0	0	0	301	63	
15	0	0	0	0	301	63	
0	0	0	0	0	300	63	
1	0	0	0	0	300	63	
2	0	0	0	0	298	63	
3	0	0	0	0	297	63	
4	0	0	0	0	297	63	
5	0	0	0	0	295	63	
6	0	0	0	0	295	63	
7	0	0	0	0	295	63	
8	0	0	0	0	295	63	
9	0	0	0	0	296	63	
10	0	0	0	0	295	63	
11	0	0	0	0	295	63	
12	0	0	0	0	295	63	
13	0	0	0	0	295	63	
14	0	0	0	0	295	63	
15	0	0	0	0	295	63	
0	0	0	0	0	295	63	
1	0	0	0	0	295	63	
2	0	0	0	0	294	63	
3	0	0	0	0	294	63	
4	0	0	0	0	294	63	
5	0	0	0	0	295	63	
6	0	0	0	0	294	63	
7	0	0	0	0	294	63	
8	0	0	0	0	295	63	
9	0	0	0	0	295	63	
10	0	0	0	0	295	63	
11	0	0	0	0	294	63	
12	0	0	0	0	294	63	
13	0	0	0	0	292	63	
14	0	0	0	0	290	63	
15	0	0	0	0	290	63	
0	0	0	0	0	289	63	
1	0	0	0	0	290	63	
2	0	0	0	0	291	63	
3	0	0	0	0	292	63	
4	0	0	0	0	291	63	
5	0	0	0	0	291	63	
6	0	0	0	0	290	63	
7	0	0	0	0	289	63	
8	0	0	0	0	290	63	
9	0	0	0	0	290	63	
10	0	0	0	0	291	63	
11	0	0	0	0	291	63	
12	0	0	0	0	293	63	
13	0	0	0	0	294	63	
14	0	0	0	0	294	63	
15	0	0	0	0	295	63	
0	0	0	0	0	295	63	
1	0	0	0	0	295	63	
2	0	0	0	0	295	63	
3	0	0	0	0	295	63	
4	0	0	0	0	295	63	
5	0	0	0	0	294	63	
6	0	0	0	0	295	63	
7	0	0	0	0	294	63	
8	0	0	0	0	294	63	
9	0	0	0	0	293	63	
10	0	0	0	0	292	63	
11	0	0	0	0	291	63	
12	0	0	0	0	289	63	
13	0	0	0	0	288	63	
14	0	0	0	0	288	63	
15	0	0	0	0	289	63	
0	0	0	0	0	290	63	
1	0	0	0	0	291	63	
2	0	0	0	0	294	63	
3	0	0	0	0	294	63	
4	0	0	0	0	294	63	
5	0	0	0	0	294	63	
6	0	0	0	0	293	63	
7	0	0	0	0	292	63	
8	0	0	0	0	291	63	
9	0	0	0	0	291	63	
10	0	0	0	0	291	63	
11	0	0	0	0	291	63	
12	0	0	0	0	291	63	
13	0	0	0	0	292	63	
14	0	0	0	0	292	63	
15	0	0	0	0	293	63	
0	0	0	0	0	294	63	
1	0	0	0	0	294	63	
2	0	0	0	0	294	63	
3	0	0	0	0	295	63	
4	0	0	0	0	296	63	
5	0	0	0	0	296	63	
6	0	0	0	0	295	63	
7	0	0	0	0	294	63	
8	0	0	0	0	293	63	
9	0	0	0	0	292	63	
10	0	0	0	0	292	63	
11	0	0	0	0	294	63	
12	0	0	0	0	294	63	
13	0	0	0	0	294	63	
14	0	0	0	0	294	63	
15	0	0	0	0	294	63	
0	0	0	0	0	295	63	
1	0	0	0	0	294	63	
2	0	0	0	0	294	63	
3	0	0	0	0	294	63	
4	0	0	0	0	293	63	
5	0	0	0	0	293	63	
6	0	0	0	0	291	63	
7	0	0	0	0	291	63	
8	0	0	0	0	290	63	
9	0	0	0	0	288	63	
10	0	0	0	0	287	63	
11	0	0	0	0	287	63	
12	0	0	0	0	287	63	
13	0	0	0	0	287	63	
14	0	0	0	0	287	63	
15	0	0	0	0	287	63	
0	0	0	0	0	288	63	
1	0	0	0	0	288	63	
2	0	0	0	0	289	63	
3	0	0	0	0	290	63	
4	0	0	0	0	291	63	
5	0	0	0	0	291	63	
6	0	0	0	0	291	63	
7	0	0	0	0	290	63	
8	0	0	0	0	289	63	
9	0	0	0	0	288	63	
10	0	0	0	0	287	63	
11	0	0	0	0	287	63	
12	0	0	0	0	288	63	
13	0	0	0	0	289	63	
14	0	0	0	0	289	63	
15	0	0	0	0	289	63	
0	0	0	0	0	289	63	
1	0	0	0	0	290	63	
2	0	0	0	0	289	63	
3	0	0	0	0	288	63	
4	0	0	0	0	288	63	
5	0	0	0	0	287	63	
6	0	0	0	0	287	63	
7	0	0	0	0	287	63	
8	0	0	0	0	287	63	
9	0	0	0	0	286	63	
10	0	0	0	0	286	63	
11	0	0	0	0	286	63	
12	0	0	0	0	285	63	
13	0	0	0	0	286	63	
14	0	0	0	0	285	63	
15	0	0	0	0	284	63	
0	0	0	0	0	284	63	
1	0	0	0	0	285	63	
2	0	0	0	0	286	63	
3	0	0	0	0	286	63	
4	0	0	0	0	286	63	
5	0	0	0	0	286	63	
6	0	0	0	0	286	63	
7	0	0	0	0	287	63	
8	0	0	0	0	287	63	
9	0	0	0	0	285	63	
10	0	0	0	0	285	63	
11	0	0	0	0	284	63	
12	0	0	0	0	284	63	
13	0	0	0	0	285	63	
14	0	0	0	0	285	63	
15	0	0	0	0	285	63	
0	0	0	0	0	285	63	
1	0	0	0	0	284	63	
2	0	0	0	0	284	63	
3	0	0	0	0	284	63	
4	0	0	0	0	285	63	
5	0	0	0	0	285	63	
6	0	0	0	0	286	63	
7	0	0	0	0	286	63	
8	0	0	0	0	285	63	
9	0	0	0	0	284	63	
10	0	0	0	0	284	63	
11	0	0	0	0	284	63	
12	0	0	0	0	284	63	
13	0	0	0	0	283	63	
14	0	0	0	0	284	63	
15	0	0	0	0	284	63	
0	0	0	0	0	284	63	
1	0	0	0	0	284	63	
2	0	0	0	0	283	63	
3	0	0	0	0	283	63	
4	0	0	0	0	283	63	
5	0	0	0	0	283	63	
6	0	0	0	0	283	63	
7	0	0	0	0	284	63	
8	0	0	0	0	285	63	
9	0	0	0	0	287	63	
10	0	0	0	0	287	63	
11	0	0	0	0	287	63	
12	0	0	0	0	287	63	
13	0	0	0	0	287	63	
14	0	0	0	0	287	63	
15	0	0	0	0	287	63	
0	0	0	0	0	286	63	
1	0	0	0	0	286	63	
2	0	0	0	0	287	63	
3	0	0	0	0	288	63	
4	0	0	0	0	288	63	
5	0	0	0	0	289	63	
6	0	0	0	0	290	63	
7	0	0	0	0	290	63	
8	0	0	0	0	290	63	
9	0	0	0	0	289	63	
10	0	0	0	0	287	63	
11	0	0	0	0	284	63	
12	0	0	0	0	284	63	
13	0	0	0	0	284	63	
14	0	0	0	0	285	63	
15	0	0	0	0	286	63	
0	0	0	0	0	287	63	
1	0	0	0	0	287	63	
2	0	0	0	0	288	63	
3	0	0	0	0	288	63	
4	0	0	0	0	288	63	
5	0	0	0	0	288	63	
6	0	0	0	0	288	63	
7	0	0	0	0	288	63	
8	0	0	0	0	289	63	
9	0	0	0	0	289	63	
10	0	0	0	0	289	63	
11	0	0	0	0	288	63	
12	0	0	0	0	288	63	
13	0	0	0	0	287	63	
14	0	0	0	0	287	63	
15	0	0	0	0	288	63	
0	0	0	0	0	288	63	
1	0	0	0	0	288	63	
2	0	0	0	0	287	63	
3	0	0	0	0	287	63	
4	0	0	0	0	287	63	
5	0	0	0	0	287	63	
6	0	0	0	0	287	63	
7	0	0	0	0	288	63	
8	0	0	0	0	289	63	
9	0	0	0	0	290	63	
10	0	0	0	0	291	63	
11	0	0	0	0	292	63	
12	0	0	0	0	292	63	
13	0	0	0	0	292	63	
14	0	0	0	0	293	63	
15	0	0	0	0	294	63	
0	0	0	0	0	294	63	
1	0	0	0	0	295	63	
2	0	0	0	0	295	63	
3	0	0	0	0	295	63	
4	0	0	0	0	296	63	
5	0	0	0	0	297	63	
6	0	0	0	0	297	63	
7	0	0	0	0	299	63	
8	0	0	0	0	299	63	
9	0	0	0	0	299	63	
10	0	0	0	0	300	63	
11	0	0	0	0	300	63	
12	0	0	0	0	300	63	
13	0	0	0	0	299	63	
14	0	0	0	0	299	63	
15	0	0	0	0	298	63	
0	0	0	0	0	297	63	
1	0	0	0	0	297	63	
2	0	0	0	0	298	63	
3	0	0	0	0	298	63	
4	0	0	0	0	299	63	
5	0	0	0	0	300	63	
6	0	0	0	0	302	63	
7	0	0	0	0	303	63	
8	0	0	0	0	303	63	
9	0	0	0	0	304	63	
10	0	0	0	0	304	63	
11	0	0	0	0	305	63	
12	0	0	0	0	305	63	
13	0	0	0	0	306	63	
14	0	0	0	0	305	63	
15	0	0	0	0	306	63	
0	0	0	0	0	306	63	
1	0	0	0	0	307	63	
2	0	0	0	0	307	63	
3	0	0	0	0	307	63	
4	0	0	0	0	309	63	
5	0	0	0	0	309	63	
6	0	0	0	0	310	63	
7	0	0	0	0	310	63	
8	0	0	0	0	310	63	
9	0	0	0	0	311	63	
10	0	0	0	0	312	63	
11	0	0	0	0	311	63	
12	0	0	0	0	311	63	
13	0	0	0	0	312	63	
14	0	0	0	0	312	63	
15	0	0	0	0	312	63	
0	0	0	0	0	312	63	
1	0	0	0	0	312	63	
2	0	0	0	0	313	63	
3	0	0	0	0	314	63	
4	0	0	0	0	315	63	
5	0	0	0	0	316	63	
6	0	0	0	0	317	63	
7	0	0	0	0	318	63	
8	0	0	0	0	318	63	
9	0	0	0	0	319	63	
10	0	0	0	0	319	63	
11	0	0	0	0	319	63	
12	0	0	0	0	319	63	
13	0	0	0	0	319	63	
14	0	0	0	0	319	63	
15	0	0	0	0	320	63	
0	0	0	0	0	320	63	
1	0	0	0	0	320	63	
2	0	0	0	0	319	63	
3	0	0	0	0	319	63	
4	0	0	0	0	319	63	
5	0	0	0	0	320	63	
6	0	0	0	0	320	63	
7	0	0	0	0	319	63	
8	0	0	0	0	319	63	
9	0	0	0	0	318	63	
10	0	0	0	0	319	63	
11	0	0	0	0	319	63	
12	0	0	0	0	319	63	
13	0	0	0	0	318	63	
14	0	0	0	0	318	63	
15	0	0	0	0	317	63	
0	0	0	0	0	318	63	
1	0	0	0	0	318	63	
2	0	0	0	0	317	63	
3	0	0	0	0	317	63	
4	0	0	0	0	318	63	
5	0	0	0	0	317	63	
6	0	0	0	0	318	63	
7	0	0	0	0	318	63	
8	0	0	0	0	319	63	
9	0	0	0	0	319	63	
10	0	0	0	0	320	63	
11	0	0	0	0	320	63	
12	0	0	0	0	320	63	
13	0	0	0	0	319	63	
14	0	0	0	0	319	63	
15	0	0	0	0	319	63	
0	0	0	0	0	318	63	
1	0	0	0	0	318	63	
2	0	0	0	0	318	63	
3	0	0	0	0	319	63	
4	0	0	0	0	320	63	
5	0	0	0	0	321	63	
6	0	0	0	0	323	63	
7	0	0	0	0	323	63	
8	0	0	0	0	323	63	
9	0	0	0	0	323	63	
10	0	0	0	0	324	63	
11	0	0	0	0	324	63	
12	0	0	0	0	324	63	
13	0	0	0	0	324	63	
14	0	0	0	0	324	63	
15	0	0	0	0	324	63	
0	0	0	0	0	324	63	
1	0	0	0	0	324	63	
2	0	0	0	0	324	63	
3	0	0	0	0	325	63	
4	0	0	0	0	324	63	
5	0	0	0	0	325	63	
6	0	0	0	0	326	63	
7	0	0	0	0	327	63	
8	0	0	0	0	329	63	
9	0	0	0	0	329	63	
10	0	0	0	0	331	63	
11	0	0	0	0	333	63	
12	0	0	0	0	334	63	
13	0	0	0	0	335	63	
14	0	0	0	0	336	63	
15	0	0	0	0	337	63	
0	0	0	0	0	337	63	
1	0	0	0	0	338	63	
2	0	0	0	0	339	63	
3	0	0	0	0	339	63	
4	0	0	0	0	340	63	
5	0	0	0	0	341	63	
6	0	0	0	0	343	63	
7	0	0	0	0	344	63	
8	0	0	0	0	344	63	
9	0	0	0	0	345	63	
10	0	0	0	0	345	63	
11	0	0	0	0	345	63	
12	0	0	0	0	345	63	
13	0	0	0	0	346	63	
14	0	0	0	0	346	63	
15	0	0	0	0	346	63	
0	0	0	0	0	347	63	
1	0	0	0	0	346	63	
2	0	0	0	0	346	63	
3	0	0	0	0	346	63	
4	0	0	0	0	347	63	
5	0	0	0	0	347	63	
6	0	0	0	0	348	63	
7	0	0	0	0	349	63	
8	0	0	0	0	350	63	
9	0	0	0	0	350	63	
10	0	0	0	0	351	63	
11	0	0	0	0	352	63	
12	0	0	0	0	352	63	
13	0	0	0	0	352	63	
14	0	0	0	0	352	63	
15	0	0	0	0	353	63	
0	0	0	0	0	353	63	
1	0	0	0	0	353	63	
2	0	0	0	0	353	63	
3	0	0	0	0	352	63	
4	0	0	0	0	352	63	
5	0	0	0	0	352	63	
6	0	0	0	0	353	63	
7	0	0	0	0	353	63	
8	0	0	0	0	353	63	
9	0	0	0	0	354	63	
10	0	0	0	0	355	63	
11	0	0	0	0	356	63	
12	0	0	0	0	357	63	
13	0	0	0	0	359	63	
14	0	0	0	0	360	63	
15	0	0	0	0	360	63	
0	0	0	0	0	359	63	
1	0	0	0	0	356	63	
2	0	0	0	0	355	63	
3	0	0	0	0	354	63	
4	0	0	0	0	355	63	
5	0	0	0	0	356	63	
6	0	0	0	0	357	63	
7	0	0	0	0	357	63	
8	0	0	0	0	358	63	
9	0	0	0	0	359	63	
10	0	0	0	0	360	63	
11	0	0	0	0	360	63	
12	0	0	0	0	361	63	
13	0	0	0	0	364	63	
14	0	0	0	0	364	63	
15	0	0	0	0	364	63	
0	0	0	0	0	364	63	
1	0	0	0	0	364	63	
2	0	0	0	0	366	63	
3	0	0	0	0	366	63	
4	0	0	0	0	366	63	
5	0	0	0	0	366	63	
6	0	0	0	0	366	63	
7	0	0	0	0	365	63	
8	0	0	0	0	364	63	
9	0	0	0	0	364	63	
10	0	0	0	0	364	63	
11	0	0	0	0	364	63	
12	0	0	0	0	365	63	
13	0	0	0	0	365	63	
14	0	0	0	0	364	63	
15	0	0	0	0	365	63	
0	0	0	0	0	366	63	
1	0	0	0	0	366	63	
2	0	0	0	0	366	63	
3	0	0	0	0	366	63	
4	0	0	0	0	365	63	
5	0	0	0	0	365	63	
6	0	0	0	0	366	63	
7	0	0	0	0	366	63	
8	0	0	0	0	367	63	
9	0	0	0	0	367	63	
10	0	0	0	0	367	63	
11	0	0	0	0	367	63	
12	0	0	0	0	368	63	
13	0	0	0	0	368	63	
14	0	0	0	0	368	63	
15	0	0	0	0	369	63	
0	0	0	0	0	369	63	
1	0	0	0	0	370	63	
2	0	0	0	0	371	63	
3	0	0	0	0	371	63	
4	0	0	0	0	372	63	
5	0	0	0	0	372	63	
6	0	0	0	0	371	63	
7	0	0	0	0	371	63	
8	0	0	0	0	371	63	
9	0	0	0	0	371	63	
10	0	0	0	0	371	63	
11	0	0	0	0	372	63	
12	0	0	0	0	373	63	
13	0	0	0	0	375	63	
14	0	0	0	0	376	63	
15	0	0	0	0	376	63	
0	0	0	0	0	377	63	
1	0	0	0	0	378	63	
2	0	0	0	0	379	63	
3	0	0	0	0	379	63	
4	0	0	0	0	380	63	
5	0	0	0	0	380	63	
6	0	0	0	0	380	63	
7	0	0	0	0	380	63	
8	0	0	0	0	380	63	
9	0	0	0	0	380	63	
10	0	0	0	0	379	63	
11	0	0	0	0	378	63	
12	0	0	0	0	377	63	
13	0	0	0	0	378	63	
14	0	0	0	0	378	63	
15	0	0	0	0	380	63	
0	0	0	0	0	380	63	
1	0	0	0	0	379	63	
2	0	0	0	0	378	63	
3	0	0	0	0	378	63	
4	0	0	0	0	378	63	
5	0	0	0	0	379	63	
6	0	0	0	0	378	63	
7	0	0	0	0	378	63	
8	0	0	0	0	378	63	
9	0	0	0	0	378	63	
10	0	0	0	0	378	63	
11	0	0	0	0	378	63	
12	0	0	0	0	378	63	
13	0	0	0	0	379	63	
14	0	0	0	0	379	63	
15	0	0	0	0	380	63	
0	0	0	0	0	380	63	
1	0	0	0	0	379	63	
2	0	0	0	0	380	63	
3	0	0	0	0	380	63	
4	0	0	0	0	380	63	
5	0	0	0	0	381	63	
6	0	0	0	0	382	63	
7	0	0	0	0	382	63	
8	0	0	0	0	382	63	
9	0	0	0	0	382	63	
10	0	0	0	0	381	63	
11	0	0	0	0	380	63	
12	0	0	0	0	380	63	
13	0	0	0	0	381	63	
14	0	0	0	0	382	63	
15	0	0	0	0	382	63	
0	0	0	0	0	383	63	
1	0	0	0	0	384	63	
2	0	0	0	0	384	63	
3	0	0	0	0	385	63	
4	0	0	0	0	385	63	
5	0	0	0	0	385	63	
6	0	0	0	0	385	63	
7	0	0	0	0	385	63	
8	0	0	0	0	385	63	
9	0	0	0	0	385	62	
10	0	0	0	0	384	63	
11	0	0	0	0	385	63	
12	0	0	0	0	385	63	
13	0	0	0	0	386	63	
14	0	0	0	0	387	63	
15	0	0	0	0	386	63	
0	0	0	0	0	387	63	
1	0	0	0	0	387	63	
2	0	0	0	0	388	63	
3	0	0	0	0	389	63	
4	0	0	0	0	389	63	
5	0	0	0	0	389	63	
6	0	0	0	0	390	63	
7	0	0	0	0	391	63	
8	0	0	0	0	392	63	
9	0	0	0	0	392	63	
10	0	0	0	0	393	63	
11	0	0	0	0	393	63	
12	0	0	0	0	394	63	
13	0	0	0	0	395	63	
14	0	0	0	0	395	63	
15	0	0	0	0	396	63	
0	0	0	0	0	395	62	
1	0	0	0	0	395	63	
2	0	0	0	0	396	63	
3	0	0	0	0	396	63	
4	0	0	0	0	397	63	
5	0	0	0	0	397	63	
6	0	0	0	0	396	63	
7	0	0	0	0	396	63	
8	0	0	0	0	395	62	
9	0	0	0	0	395	63	
10	0	0	0	0	395	63	
11	0	0	0	0	395	63	
12	0	0	0	0	394	63	
13	0	0	0	0	394	63	
14	0	0	0	0	394	63	
15	0	0	0	0	395	63	
0	0	0	0	0	395	62	
1	0	0	0	0	395	63	
2	0	0	0	0	395	63	
3	0	0	0	0	395	63	
4	0	0	0	0	395	63	
5	0	0	0	0	395	63	
6	0	0	0	0	396	63	
7	0	0	0	0	397	63	
8	0	0	0	0	397	63	
9	0	0	0	0	397	63	
10	0	0	0	0	397	63	
11	0	0	0	0	397	63	
12	0	0	0	0	396	63	
13	0	0	0	0	394	63	
14	0	0	0	0	394	63	
15	0	0	0	0	395	63	
0	0	0	0	0	396	62	
1	0	0	0	0	397	63	
2	0	0	0	0	397	63	
3	0	0	0	0	397	63	
4	0	0	0	0	398	63	
5	0	0	0	0	399	63	
6	0	0	0	0	399	63	
7	0	0	0	0	400	63	
8	0	0	0	0	399	63	
9	0	0	0	0	399	63	
10	0	0	0	0	399	63	
11	0	0	0	0	398	63	
12	0	0	0	0	396	63	
13	0	0	0	0	396	63	
14	0	0	0	0	396	63	
15	0	0	0	0	396	63	
0	0	0	0	0	397	62	
1	0	0	0	0	399	63	
2	0	0	0	0	401	63	
3	0	0	0	0	402	63	
4	0	0	0	0	402	63	
5	0	0	0	0	402	62	
6	0	0	0	0	403	63	
7	0	0	0	0	402	63	
8	0	0	0	0	403	63	
9	0	0	0	0	403	63	
10	0	0	0	0	402	63	
11	0	0	0	0	402	63	
12	0	0	0	0	401	63	
13	0	0	0	0	401	62	
14	0	0	0	0	402	63	
15	0	0	0	0	402	63	
0	0	0	0	0	403	63	
1	0	0	0	0	404	62	
2	0	0	0	0	405	63	
3	0	0	0	0	406	63	
4	0	0	0	0	405	63	
5	0	0	0	0	404	63	
6	0	0	0	0	405	63	
7	0	0	0	0	406	63	
8	0	0	0	0	406	63	
9	0	0	0	0	406	63	
10	0	0	0	0	405	63	
11	0	0	0	0	404	63	
12	0	0	0	0	404	63	
13	0	0	0	0	404	63	
14	0	0	0	0	403	63	
15	0	0	0	0	404	63	
0	0	0	0	0	404	63	
1	0	0	0	0	405	62	
2	0	0	0	0	406	63	
3	0	0	0	0	405	63	
4	0	0	0	0	406	63	
5	0	0	0	0	407	63	
6	0	0	0	0	408	63	
7	0	0	0	0	408	63	
8	0	0	0	0	407	63	
9	0	0	0	0	408	63	
10	0	0	0	0	408	63	
11	0	0	0	0	408	63	
12	0	0	0	0	408	63	
13	0	0	0	0	407	63	
14	0	0	0	0	406	63	
15	0	0	0	0	404	62	
0	0	0	0	0	401	63	
1	0	0	0	0	399	63	
2	0	0	0	0	396	63	
3	0	0	0	0	393	63	
4	0	0	0	0	391	63	
5	0	0	0	0	388	63	
6	0	0	0	0	385	63	
7	0	0	0	0	383	63	
8	0	0	0	0	381	63	
9	0	0	0	0	378	63	
10	0	0	0	0	377	63	
11	0	0	0	0	375	63	
12	0	0	0	0	372	63	
13	0	0	0	0	370	63	
14	0	0	0	0	368	63	
15	0	0	0	0	366	63	
0	0	0	0	0	365	63	
1	0	0	0	0	364	63	
2	0	0	0	0	366	63	
3	0	0	0	0	367	63	
4	0	0	0	0	369	63	
5	0	0	0	0	370	63	
6	0	0	0	0	371	63	
7	0	0	0	0	374	63	
8	0	0	0	0	376	63	
9	0	0	0	0	379	63	
10	0	0	0	0	381	63	
11	0	0	0	0	380	63	
12	0	0	0	0	380	63	
13	0	0	0	0	380	63	
14	0	0	0	0	380	63	
15	0	0	0	0	382	63	
0	0	0	0	0	383	63	
1	0	0	0	0	386	63	
2	0	0	0	0	387	63	
3	0	0	0	0	391	63	
4	0	0	0	0	393	63	
5	0	0	0	0	396	63	
6	0	0	0	0	399	62	
7	0	0	0	0	403	63	
8	0	0	0	0	405	63	
9	0	0	0	0	408	63	
10	0	0	0	0	410	63	
11	0	0	0	0	412	63	
12	0	0	0	0	414	63	
13	0	0	0	0	416	63	
14	0	0	0	0	418	63	
15	0	0	0	0	420	62	
0	0	0	0	0	420	63	
1	0	0	0	0	422	63	
2	0	0	0	0	423	63	
3	0	0	0	0	423	62	
4	0	0	0	0	422	62	
5	0	0	0	0	423	63	
6	0	0	0	0	422	63	
7	0	0	0	0	422	63	
8	0	0	0	0	423	62	
9	0	0	0	0	423	62	
10	0	0	0	0	421	63	
11	0	0	0	0	420	63	
12	0	0	0	0	419	63	
13	0	0	0	0	417	62	
14	0	0	0	0	417	63	
15	0	0	0	0	416	63	
0	0	0	0	0	415	63	
1	0	0	0	0	415	63	
2	0	0	0	0	414	62	
3	0	0	0	0	412	63	
4	0	0	0	0	412	63	
5	0	0	0	0	412	63	
6	0	0	0	0	411	63	
7	0	0	0	0	411	63	
8	0	0	0	0	409	62	
9	0	0	0	0	408	63	
10	0	0	0	0	407	63	
11	0	0	0	0	406	63	
12	0	0	0	0	406	63	
13	0	0	0	0	404	62	
14	0	0	0	0	404	63	
15	0	0	0	0	402	63	
0	0	0	0	0	402	63	
1	0	0	0	0	402	63	
2	0	0	0	0	402	62	
3	0	0	0	0	402	63	
4	0	0	0	0	402	63	
5	0	0	0	0	401	63	
6	0	0	0	0	402	62	
7	0	0	0	0	401	63	
8	0	0	0	0	403	63	
9	0	0	0	0	404	63	
10	0	0	0	0	405	62	
11	0	0	0	0	405	63	
12	0	0	0	0	405	63	
13	0	0	0	0	405	63	
14	0	0	0	0	406	63	
15	0	0	0	0	407	62	
0	0	0	0	0	407	63	
1	0	0	0	0	407	63	
2	0	0	0	0	408	63	
3	0	0	0	0	407	63	
4	0	0	0	0	408	62	
5	0	0	0	0	408	63	
6	0	0	0	0	409	63	
7	0	0	0	0	410	63	
8	0	0	0	0	411	62	
9	0	0	0	0	412	63	
10	0	0	0	0	412	63	
11	0	0	0	0	412	63	
12	0	0	0	0	412	62	
13	0	0	0	0	412	63	
14	0	0	0	0	412	63	
15	0	0	0	0	412	63	
0	0	0	0	0	412	62	
1	0	0	0	0	412	63	
2	0	0	0	0	411	63	
3	0	0	0	0	411	63	
4	0	0	0	0	411	62	
5	0	0	0	0	411	62	
6	0	0	0	0	412	63	
7	0	0	0	0	412	63	
8	0	0	0	0	413	63	
9	0	0	0	0	414	62	
10	0	0	0	0	414	63	
11	0	0	0	0	415	63	
12	0	0	0	0	415	63	
13	0	0	0	0	416	62	
14	0	0	0	0	415	63	
15	0	0	0	0	414	63	
0	0	0	0	0	414	62	
1	0	0	0	0	412	63	
2	0	0	0	0	413	63	
3	0	0	0	0	412	62	
4	0	0	0	0	412	63	
5	0	0	0	0	413	63	
6	0	0	0	0	412	63	
7	0	0	0	0	412	62	
8	0	0	0	0	413	62	
9	0	0	0	0	413	63	
10	0	0	0	0	414	63	
11	0	0	0	0	414	63	
12	0	0	0	0	415	62	
13	0	0	0	0	415	62	
14	0	0	0	0	415	63	
15	0	0	0	0	416	63	
0	0	0	0	0	415	63	
1	0	0	0	0	415	62	
2	0	0	0	0	415	63	
3	0	0	0	0	415	63	
4	0	0	0	0	415	63	
5	0	0	0	0	415	62	
6	0	0	0	0	415	63	
7	0	0	0	0	415	63	
8	0	0	0	0	415	62	
9	0	0	0	0	415	62	
10	0	0	0	0	415	63	
11	0	0	0	0	415	63	
12	0	0	0	0	415	63	
13	0	0	0	0	415	62	
14	0	0	0	0	416	62	
15	0	0	0	0	416	63	
0	0	0	0	0	416	63	
1	0	0	0	0	415	63	
2	0	0	0	0	413	63	
3	0	0	0	0	413	63	
4	0	0	0	0	412	62	
5	0	0	0	0	412	63	
6	0	0	0	0	412	63	
7	0	0	0	0	412	63	
8	0	0	0	0	413	63	
9	0	0	0	0	414	63	
10	0	0	0	0	414	62	
11	0	0	0	0	415	63	
12	0	0	0	0	415	63	
13	0	0	0	0	415	63	
14	0	0	0	0	415	63	
15	0	0	0	0	415	62	
0	0	0	0	0	415	63	
1	0	0	0	0	415	63	
2	0	0	0	0	415	63	
3	0	0	0	0	415	63	
4	0	0	0	0	415	62	
5	0	0	0	0	414	62	
6	0	0	0	0	414	62	
7	0	0	0	0	414	63	
8	0	0	0	0	414	63	
9	0	0	0	0	414	63	
10	0	0	0	0	414	63	
11	0	0	0	0	415	63	
12	0	0	0	0	416	63	
13	0	0	0	0	417	62	
14	0	0	0	0	417	63	
15	0	0	0	0	418	63	
0	0	0	0	0	419	63	
1	0	0	0	0	419	63	
2	0	0	0	0	419	63	
3	0	0	0	0	418	62	
4	0	0	0	0	417	62	
5	0	0	0	0	415	63	
6	0	0	0	0	415	63	
7	0	0	0	0	415	63	
8	0	0	0	0	415	63	
9	0	0	0	0	416	63	
10	0	0	0	0	416	62	
11	0	0	0	0	418	62	
12	0	0	0	0	419	63	
13	0	0	0	0	419	63	
14	0	0	0	0	420	63	
15	0	0	0	0	420	63	
0	0	0	0	0	420	62	
1	0	0	0	0	420	63	
2	0	0	0	0	420	63	
3	0	0	0	0	420	63	
4	0	0	0	0	419	63	
5	0	0	0	0	419	63	
6	0	0	0	0	418	63	
7	0	0	0	0	417	62	
8	0	0	0	0	417	62	
9	0	0	0	0	416	62	
10	0	0	0	0	417	63	
11	0	0	0	0	416	63	
12	0	0	0	0	416	63	
13	0	0	0	0	417	63	
14	0	0	0	0	416	63	
15	0	0	0	0	416	62	
0	0	0	0	0	416	63	
1	0	0	0	0	415	63	
2	0	0	0	0	416	63	
3	0	0	0	0	415	63	
4	0	0	0	0	415	63	
5	0	0	0	0	414	63	
6	0	0	0	0	413	63	
7	0	0	0	0	412	63	
8	0	0	0	0	412	62	
9	0	0	0	0	412	63	
10	0	0	0	0	412	63	
11	0	0	0	0	412	63	
12	0	0	0	0	411	63	
13	0	0	0	0	411	63	
14	0	0	0	0	412	62	
15	0	0	0	0	412	62	
0	0	0	0	0	411	63	
1	0	0	0	0	411	63	
2	0	0	0	0	412	63	
3	0	0	0	0	413	63	
4	0	0	0	0	414	62	
5	0	0	0	0	413	62	
6	0	0	0	0	412	62	
7	0	0	0	0	412	62	
8	0	0	0	0	412	62	
9	0	0	0	0	412	63	
10	0	0	0	0	411	62	
11	0	0	0	0	411	62	
12	0	0	0	0	412	63	
13	0	0	0	0	413	63	
14	0	0	0	0	414	63	
15	0	0	0	0	415	63	
0	0	0	0	0	414	62	
1	0	0	0	0	414	62	
2	0	0	0	0	415	63	
3	0	0	0	0	414	63	
4	0	0	0	0	414	63	
5	0	0	0	0	414	63	
6	0	0	0	0	414	62	
7	0	0	0	0	414	63	
8	0	0	0	0	413	63	
9	0	0	0	0	413	63	
10	0	0	0	0	414	63	
11	0	0	0	0	414	63	
12	0	0	0	0	414	63	
13	0	0	0	0	414	62	
14	0	0	0	0	415	62	
15	0	0	0	0	416	63	
0	0	0	0	0	416	63	
1	0	0	0	0	415	63	
2	0	0	0	0	415	62	
3	0	0	0	0	416	62	
4	0	0	0	0	417	63	
5	0	0	0	0	418	63	
6	0	0	0	0	418	63	
7	0	0	0	0	419	63	
8	0	0	0	0	420	62	
9	0	0	0	0	420	62	
10	0	0	0	0	420	63	
11	0	0	0	0	419	63	
12	0	0	0	0	419	63	
13	0	0	0	0	421	63	
14	0	0	0	0	422	63	
15	0	0	0	0	423	63	
0	0	0	0	0	423	63	
1	0	0	0	0	424	62	
2	0	0	0	0	425	62	
3	0	0	0	0	427	63	
4	0	0	0	0	427	63	
5	0	0	0	0	427	63	
6	0	0	0	0	428	63	
7	0	0	0	0	430	62	
8	0	0	0	0	431	63	
9	0	0	0	0	432	62	
10	0	0	0	0	432	63	
11	0	0	0	0	431	63	
12	0	0	0	0	431	63	
13	0	0	0	0	432	63	
14	0	0	0	0	433	63	
15	0	0	0	0	435	63	
0	0	0	0	0	437	62	
1	0	0	0	0	438	62	
2	0	0	0	0	439	63	
3	0	0	0	0	440	63	
4	0	0	0	0	441	63	
5	0	0	0	0	442	63	
6	0	0	0	0	442	63	
7	0	0	0	0	443	63	
8	0	0	0	0	443	63	
9	0	0	0	0	443	63	
10	0	0	0	0	443	62	
11	0	0	0	0	442	62	
12	0	0	0	0	442	63	
13	0	0	0	0	442	63	
14	0	0	0	0	444	63	
15	0	0	0	0	444	62	
0	0	0	0	0	445	62	
1	0	0	0	0	444	63	
2	0	0	0	0	444	63	
3	0	0	0	0	445	63	
4	0	0	0	0	445	63	
5	0	0	0	0	446	62	
6	0	0	0	0	447	62	
7	0	0	0	0	447	63	
8	0	0	0	0	447	63	
9	0	0	0	0	446	63	
10	0	0	0	0	445	63	
11	0	0	0	0	445	63	
12	0	0	0	0	444	63	
13	0	0	0	0	445	63	
14	0	0	0	0	445	63	
15	0	0	0	0	446	62	
0	0	0	0	0	445	62	
1	0	0	0	0	445	62	
2	0	0	0	0	446	62	
3	0	0	0	0	446	62	
4	0	0	0	0	447	63	
5	0	0	0	0	447	63	
6	0	0	0	0	447	63	
7	0	0	0	0	447	63	
8	0	0	0	0	446	63	
9	0	0	0	0	445	62	
10	0	0	0	0	445	62	
11	0	0	0	0	444	62	
12	0	0	0	0	445	63	
13	0	0	0	0	444	63	
14	0	0	0	0	445	63	
15	0	0	0	0	445	63	
0	0	0	0	0	444	63	
1	0	0	0	0	446	63	
2	0	0	0	0	447	63	
3	0	0	0	0	448	62	
4	0	0	0	0	448	62	
5	0	0	0	0	449	63	
6	0	0	0	0	450	63	
7	0	0	0	0	450	63	
8	0	0	0	0	450	63	
9	0	0	0	0	451	63	
10	0	0	0	0	451	62	
11	0	0	0	0	452	62	
12	0	0	0	0	452	63	
13	0	0	0	0	452	63	
14	0	0	0	0	451	63	
15	0	0	0	0	451	62	
0	0	0	0	0	451	62	
1	0	0	0	0	453	62	
2	0	0	0	0	454	62	
3	0	0	0	0	453	63	
4	0	0	0	0	453	63	
5	0	0	0	0	453	63	
6	0	0	0	0	454	63	
7	0	0	0	0	454	62	
8	0	0	0	0	454	62	
9	0	0	0	0	454	62	
10	0	0	0	0	454	63	
11	0	0	0	0	454	63	
12	0	0	0	0	453	63	
13	0	0	0	0	453	63	
14	0	0	0	0	452	62	
15	0	0	0	0	451	62	
0	0	0	0	0	450	62	
1	0	0	0	0	450	63	
2	0	0	0	0	450	63	
3	0	0	0	0	450	63	
4	0	0	0	0	450	62	
5	0	0	0	0	449	62	
6	0	0	0	0	449	63	
7	0	0	0	0	448	63	
8	0	0	0	0	449	63	
9	0	0	0	0	448	63	
10	0	0	0	0	448	62	
11	0	0	0	0	448	62	
12	0	0	0	0	447	63	
13	0	0	0	0	447	63	
14	0	0	0	0	446	63	
15	0	0	0	0	445	62	
0	0	0	0	0	444	62	
1	0	0	0	0	445	62	
2	0	0	0	0	443	62	
3	0	0	0	0	444	62	
4	0	0	0	0	443	63	
5	0	0	0	0	443	63	
6	0	0	0	0	443	63	
7	0	0	0	0	444	63	
8	0	0	0	0	444	63	
9	0	0	0	0	444	62	
10	0	0	0	0	443	62	
11	0	0	0	0	443	62	
12	0	0	0	0	442	63	
13	0	0	0	0	442	63	
14	0	0	0	0	441	63	
15	0	0	0	0	441	62	
0	0	0	0	0	441	63	
1	0	0	0	0	441	63	
2	0	0	0	0	442	62	
3	0	0	0	0	443	62	
4	0	0	0	0	444	63	
5	0	0	0	0	443	63	
6	0	0	0	0	443	62	
7	0	0	0	0	443	63	
8	0	0	0	0	443	63	
9	0	0	0	0	442	62	
10	0	0	0	0	441	63	
11	0	0	0	0	442	63	
12	0	0	0	0	442	63	
13	0	0	0	0	441	63	
14	0	0	0	0	440	62	
15	0	0	0	0	439	62	
0	0	0	0	0	440	63	
1	0	0	0	0	440	63	
2	0	0	0	0	440	63	
3	0	0	0	0	440	63	
4	0	0	0	0	440	62	
5	0	0	0	0	441	63	
6	0	0	0	0	441	63	
7	0	0	0	0	442	62	
8	0	0	0	0	441	62	
9	0	0	0	0	441	62	
10	0	0	0	0	442	63	
11	0	0	0	0	443	63	
12	0	0	0	0	443	63	
13	0	0	0	0	444	62	
14	0	0	0	0	444	62	
15	0	0	0	0	443	63	
0	0	0	0	0	443	63	
1	0	0	0	0	443	62	
2	0	0	0	0	444	63	
3	0	0	0	0	444	63	
4	0	0	0	0	444	63	
5	0	0	0	0	444	63	
6	0	0	0	0	444	62	
7	0	0	0	0	444	62	
8	0	0	0	0	444	62	
9	0	0	0	0	445	63	
10	0	0	0	0	447	63	
11	0	0	0	0	446	63	
12	0	0	0	0	445	62	
13	0	0	0	0	445	62	
14	0	0	0	0	444	63	
15	0	0	0	0	444	63	
0	0	0	0	0	444	62	
1	0	0	0	0	444	62	
2	0	0	0	0	444	63	
3	0	0	0	0	444	63	
4	0	0	0	0	444	62	
5	0	0	0	0	444	62	
6	0	0	0	0	445	63	
7	0	0	0	0	447	63	
8	0	0	0	0	448	62	
9	0	0	0	0	448	62	
10	0	0	0	0	449	63	
11	0	0	0	0	448	63	
12	0	0	0	0	448	63	
13	0	0	0	0	448	63	
14	0	0	0	0	449	62	
15	0	0	0	0	448	63	
0	0	0	0	0	448	63	
1	0	0	0	0	448	63	
2	0	0	0	0	448	62	
3	0	0	0	0	448	63	
4	0	0	0	0	448	63	
5	0	0	0	0	448	62	
6	0	0	0	0	448	62	
7	0	0	0	0	447	63	
8	0	0	0	0	447	63	
9	0	0	0	0	447	63	
10	0	0	0	0	447	62	
11	0	0	0	0	447	62	
12	0	0	0	0	448	63	
13	0	0	0	0	449	63	
14	0	0	0	0	449	63	
15	0	0	0	0	449	63	
0	0	0	0	0	449	62	
1	0	0	0	0	450	62	
2	0	0	0	0	450	63	
3	0	0	0	0	450	63	
4	0	0	0	0	449	62	
5	0	0	0	0	450	63	
6	0	0	0	0	451	63	
7	0	0	0	0	451	62	
8	0	0	0	0	452	62	
9	0	0	0	0	451	63	
10	0	0	0	0	452	62	
11	0	0	0	0	453	62	
12	0	0	0	0	455	62	
13	0	0	0	0	456	63	
14	0	0	0	0	457	63	
15	0	0	0	0	458	62	
0	0	0	0	0	458	62	
1	0	0	0	0	459	62	
2	0	0	0	0	458	63	
3	0	0	0	0	458	63	
4	0	0	0	0	456	63	
5	0	0	0	0	456	62	
6	0	0	0	0	457	62	
7	0	0	0	0	459	63	
8	0	0	0	0	460	63	
9	0	0	0	0	461	62	
10	0	0	0	0	460	62	
11	0	0	0	0	461	63	
12	0	0	0	0	462	63	
13	0	0	0	0	462	62	
14	0	0	0	0	463	62	
15	0	0	0	0	464	63	
0	0	0	0	0	465	63	
1	0	0	0	0	465	62	
2	0	0	0	0	465	62	
3	0	0	0	0	464	63	
4	0	0	0	0	464	63	
5	0	0	0	0	465	62	
6	0	0	0	0	465	62	
7	0	0	0	0	466	63	
8	0	0	0	0	466	63	
9	0	0	0	0	467	62	
10	0	0	0	0	468	62	
11	0	0	0	0	468	63	
12	0	0	0	0	468	62	
13	0	0	0	0	468	62	
14	0	0	0	0	468	63	
15	0	0	0	0	468	63	
0	0	0	0	0	468	63	
1	0	0	0	0	469	62	
2	0	0	0	0	468	63	
3	0	0	0	0	467	63	
4	0	0	0	0	467	62	
5	0	0	0	0	466	62	
6	0	0	0	0	466	63	
7	0	0	0	0	467	63	
8	0	0	0	0	465	62	
9	0	0	0	0	465	63	
10	0	0	0	0	465	63	
11	0	0	0	0	465	63	
12	0	0	0	0	466	62	
13	0	0	0	0	466	62	
14	0	0	0	0	467	63	
15	0	0	0	0	467	63	
0	0	0	0	0	467	62	
1	0	0	0	0	467	62	
2	0	0	0	0	467	62	
3	0	0	0	0	468	63	
4	0	0	0	0	466	63	
5	0	0	0	0	464	62	
6	0	0	0	0	464	62	
7	0	0	0	0	463	63	
8	0	0	0	0	463	63	
9	0	0	0	0	462	62	
10	0	0	0	0	462	63	
11	0	0	0	0	462	63	
12	0	0	0	0	463	62	
13	0	0	0	0	464	62	
14	0	0	0	0	464	63	
15	0	0	0	0	465	63	
0	0	0	0	0	464	62	
1	0	0	0	0	464	62	
2	0	0	0	0	464	63	
3	0	0	0	0	465	63	
4	0	0	0	0	467	62	
5	0	0	0	0	467	62	
6	0	0	0	0	467	63	
7	0	0	0	0	468	63	
8	0	0	0	0	468	62	
9	0	0	0	0	468	63	
10	0	0	0	0	469	63	
11	0	0	0	0	469	62	
12	0	0	0	0	468	62	
13	0	0	0	0	468	63	
14	0	0	0	0	468	63	
15	0	0	0	0	468	62	
0	0	0	0	0	468	62	
1	0	0	0	0	470	62	
2	0	0	0	0	468	63	
3	0	0	0	0	469	63	
4	0	0	0	0	468	62	
5	0	0	0	0	467	62	
6	0	0	0	0	467	63	
7	0	0	0	0	467	63	
8	0	0	0	0	466	62	
9	0	0	0	0	465	62	
10	0	0	0	0	465	63	
11	0	0	0	0	466	63	
12	0	0	0	0	465	62	
13	0	0	0	0	465	63	
14	0	0	0	0	464	63	
15	0	0	0	0	465	63	
0	0	0	0	0	466	63	
1	0	0	0	0	466	62	
2	0	0	0	0	467	62	
3	0	0	0	0	467	63	
4	0	0	0	0	466	63	
5	0	0	0	0	466	62	
6	0	0	0	0	466	62	
7	0	0	0	0	465	63	
8	0	0	0	0	465	62	
9	0	0	0	0	464	62	
10	0	0	0	0	463	63	
11	0	0	0	0	464	62	
12	0	0	0	0	464	62	
13	0	0	0	0	463	63	
14	0	0	0	0	464	63	
15	0	0	0	0	466	63	
0	0	0	0	0	466	63	
1	0	0	0	0	466	63	
2	0	0	0	0	466	62	
3	0	0	0	0	465	63	
4	0	0	0	0	466	63	
5	0	0	0	0	465	63	
6	0	0	0	0	466	62	
7	0	0	0	0	465	62	
8	0	0	0	0	464	63	
9	0	0	0	0	463	63	
10	0	0	0	0	463	62	
11	0	0	0	0	464	62	
12	0	0	0	0	465	63	
13	0	0	0	0	464	63	
14	0	0	0	0	464	62	
15	0	0	0	0	465	62	
0	0	0	0	0	464	63	
1	0	0	0	0	464	63	
2	0	0	0	0	463	63	
3	0	0	0	0	463	62	
4	0	0	0	0	464	63	
5	0	0	0	0	464	63	
6	0	0	0	0	464	62	
7	0	0	0	0	464	62	
8	0	0	0	0	464	63	
9	0	0	0	0	464	63	
10	0	0	0	0	463	62	
11	0	0	0	0	464	63	
12	0	0	0	0	463	63	
13	0	0	0	0	463	63	
14	0	0	0	0	462	62	
15	0	0	0	0	463	63	
0	0	0	0	0	463	63	
1	0	0	0	0	462	62	
2	0	0	0	0	462	62	
3	0	0	0	0	462	63	
4	0	0	0	0	463	63	
5	0	0	0	0	463	62	
6	0	0	0	0	462	63	
7	0	0	0	0	462	63	
8	0	0	0	0	462	63	
9	0	0	0	0	462	62	
10	0	0	0	0	463	62	
11	0	0	0	0	463	63	
12	0	0	0	0	464	63	
13	0	0	0	0	464	63	
14	0	0	0	0	464	62	
15	0	0	0	0	465	62	
0	0	0	0	0	465	62	
1	0	0	0	0	465	63	
2	0	0	0	0	465	63	
3	0	0	0	0	466	62	
4	0	0	0	0	467	62	
5	0	0	0	0	467	63	
6	0	0	0	0	468	63	
7	0	0	0	0	468	63	
8	0	0	0	0	467	63	
9	0	0	0	0	467	62	
10	0	0	0	0	467	62	
11	0	0	0	0	467	63	
12	0	0	0	0	467	63	
13	0	0	0	0	467	63	
14	0	0	0	0	467	62	
15	0	0	0	0	468	62	
0	0	0	0	0	469	63	
1	0	0	0	0	470	63	
2	0	0	0	0	470	62	
3	0	0	0	0	471	62	
4	0	0	0	0	472	63	
5	0	0	0	0	474	63	
6	0	0	0	0	473	62	
7	0	0	0	0	472	63	
8	0	0	0	0	472	63	
9	0	0	0	0	472	63	
10	0	0	0	0	472	63	
11	0	0	0	0	472	62	
12	0	0	0	0	472	63	
13	0	0	0	0	473	63	
14	0	0	0	0	473	62	
15	0	0	0	0	474	62	
0	0	0	0	0	474	63	
1	0	0	0	0	474	63	
2	0	0	0	0	475	62	
3	0	0	0	0	474	62	
4	0	0	0	0	475	62	
5	0	0	0	0	475	63	
6	0	0	0	0	476	63	
7	0	0	0	0	475	62	
8	0	0	0	0	475	63	
9	0	0	0	0	475	63	
10	0	0	0	0	475	62	
11	0	0	0	0	474	62	
12	0	0	0	0	475	63	
13	0	0	0	0	475	63	
14	0	0	0	0	476	62	
15	0	0	0	0	478	62	
0	0	0	0	0	478	63	
1	0	0	0	0	479	63	
2	0	0	0	0	479	63	
3	0	0	0	0	480	62	
4	0	0	0	0	480	62	
5	0	0	0	0	480	63	
6	0	0	0	0	479	63	
7	0	0	0	0	479	62	
8	0	0	0	0	479	62	
9	0	0	0	0	479	63	
10	0	0	0	0	479	63	
11	0	0	0	0	478	63	
12	0	0	0	0	476	62	
13	0	0	0	0	476	62	
14	0	0	0	0	476	63	
15	0	0	0	0	474	63	
0	0	0	0	0	473	62	
1	0	0	0	0	475	63	
2	0	0	0	0	476	63	
3	0	0	0	0	476	62	
4	0	0	0	0	476	62	
5	0	0	0	0	476	62	
6	0	0	0	0	476	63	
7	0	0	0	0	477	63	
8	0	0	0	0	476	63	
9	0	0	0	0	476	63	
10	0	0	0	0	475	62	
11	0	0	0	0	475	62	
12	0	0	0	0	475	63	
13	0	0	0	0	476	63	
14	0	0	0	0	476	63	
15	0	0	0	0	475	62	
0	0	0	0	0	474	63	
1	0	0	0	0	475	63	
2	0	0	0	0	475	62	
3	0	0	0	0	475	62	
4	0	0	0	0	475	63	
5	0	0	0	0	475	63	
6	0	0	0	0	475	63	
7	0	0	0	0	475	62	
8	0	0	0	0	475	62	
9	0	0	0	0	474	62	
10	0	0	0	0	472	63	
11	0	0	0	0	473	63	
12	0	0	0	0	473	63	
13	0	0	0	0	473	62	
14	0	0	0	0	473	63	
15	0	0	0	0	473	63	
0	0	0	0	0	473	62	
1	0	0	0	0	473	62	
2	0	0	0	0	473	63	
3	0	0	0	0	474	63	
4	0	0	0	0	474	62	
5	0	0	0	0	475	63	
6	0	0	0	0	477	63	
7	0	0	0	0	477	62	
8	0	0	0	0	479	63	
9	0	0	0	0	479	63	
10	0	0	0	0	480	62	
11	0	0	0	0	479	62	
12	0	0	0	0	479	63	
13	0	0	0	0	480	63	
14	0	0	0	0	480	63	
15	0	0	0	0	479	62	
0	0	0	0	0	480	62	
1	0	0	0	0	480	63	
2	0	0	0	0	480	63	
3	0	0	0	0	478	63	
4	0	0	0	0	479	62	
5	0	0	0	0	478	63	
6	0	0	0	0	479	63	
7	0	0	0	0	479	63	
8	0	0	0	0	480	62	
9	0	0	0	0	480	63	
10	0	0	0	0	479	63	
11	0	0	0	0	479	62	
12	0	0	0	0	478	63	
13	0	0	0	0	478	63	
14	0	0	0	0	478	62	
15	0	0	0	0	478	63	
0	0	0	0	0	478	63	
1	0	0	0	0	478	62	
2	0	0	0	0	478	62	
3	0	0	0	0	479	62	
4	0	0	0	0	479	63	
5	0	0	0	0	480	63	
6	0	0	0	0	480	63	
7	0	0	0	0	480	62	
8	0	0	0	0	479	62	
9	0	0	0	0	479	62	
10	0	0	0	0	479	63	
11	0	0	0	0	480	63	
12	0	0	0	0	480	63	
13	0	0	0	0	481	63	
14	0	0	0	0	480	62	
15	0	0	0	0	480	62	
0	0	0	0	0	479	63	
1	0	0	0	0	478	63	
2	0	0	0	0	478	62	
3	0	0	0	0	479	63	
4	0	0	0	0	480	63	
5	0	0	0	0	480	62	
6	0	0	0	0	480	62	
7	0	0	0	0	480	63	
8	0	0	0	0	479	63	
9	0	0	0	0	479	63	
10	0	0	0	0	479	62	
11	0	0	0	0	480	62	
12	0	0	0	0	480	63	
13	0	0	0	0	480	63	
14	0	0	0	0	481	62	
15	0	0	0	0	481	62	
0	0	0	0	0	480	63	
1	0	0	0	0	481	63	
2	0	0	0	0	481	62	
3	0	0	0	0	481	62	
4	0	0	0	0	481	63	
5	0	0	0	0	480	62	
6	0	0	0	0	480	62	
7	0	0	0	0	480	62	
8	0	0	0	0	481	63	
9	0	0	0	0	481	63	
10	0	0	0	0	481	62	
11	0	0	0	0	481	62	
12	0	0	0	0	481	63	
13	0	0	0	0	481	63	
14	0	0	0	0	481	63	
15	0	0	0	0	480	63	
0	0	0	0	0	480	62	
1	0	0	0	0	479	63	
2	0	0	0	0	479	63	
3	0	0	0	0	479	63	
4	0	0	0	0	480	63	
5	0	0	0	0	480	62	
6	0	0	0	0	481	63	
7	0	0	0	0	481	63	
8	0	0	0	0	481	63	
9	0	0	0	0	482	62	
10	0	0	0	0	483	63	
11	0	0	0	0	483	63	
12	0	0	0	0	484	62	
13	0	0	0	0	484	63	
14	0	0	0	0	484	63	
15	0	0	0	0	483	62	
0	0	0	0	0	483	63	
1	0	0	0	0	482	63	
2	0	0	0	0	482	62	
3	0	0	0	0	481	62	
4	0	0	0	0	480	63	
5	0	0	0	0	480	63	
6	0	0	0	0	479	63	
7	0	0	0	0	479	62	
8	0	0	0	0	479	62	
9	0	0	0	0	479	63	
10	0	0	0	0	479	63	
11	0	0	0	0	478	62	
12	0	0	0	0	477	62	
13	0	0	0	0	477	62	
14	0	0	0	0	477	63	
15	0	0	0	0	477	63	
0	0	0	0	0	477	62	
1	0	0	0	0	477	62	
2	0	0	0	0	478	63	
3	0	0	0	0	478	63	
4	0	0	0	0	478	62	
5	0	0	0	0	478	63	
6	0	0	0	0	477	63	
7	0	0	0	0	477	63	
8	0	0	0	0	478	63	
9	0	0	0	0	479	63	
10	0	0	0	0	480	62	
11	0	0	0	0	482	63	
12	0	0	0	0	483	63	
13	0	0	0	0	484	62	
14	0	0	0	0	484	63	
15	0	0	0	0	483	63	
0	0	0	0	0	483	62	
1	0	0	0	0	482	62	
2	0	0	0	0	483	63	
3	0	0	0	0	482	63	
4	0	0	0	0	482	63	
5	0	0	0	0	482	62	
6	0	0	0	0	484	62	
7	0	0	0	0	485	63	
8	0	0	0	0	486	63	
9	0	0	0	0	487	62	
10	0	0	0	0	486	62	
11	0	0	0	0	486	63	
12	0	0	0	0	487	63	
13	0	0	0	0	487	62	
14	0	0	0	0	487	62	
15	0	0	0	0	487	63	
0	0	0	0	0	487	63	
1	0	0	0	0	487	62	
2	0	0	0	0	486	62	
3	0	0	0	0	484	63	
4	0	0	0	0	484	63	
5	0	0	0	0	483	62	
6	0	0	0	0	484	62	
7	0	0	0	0	484	63	
8	0	0	0	0	485	63	
9	0	0	0	0	485	63	
10	0	0	0	0	485	63	
11	0	0	0	0	486	62	
12	0	0	0	0	487	62	
13	0	0	0	0	488	63	
14	0	0	0	0	489	63	
15	0	0	0	0	488	63	
0	0	0	0	0	489	62	
1	0	0	0	0	488	62	
2	0	0	0	0	488	63	
3	0	0	0	0	488	63	
4	0	0	0	0	488	62	
5	0	0	0	0	488	62	
6	0	0	0	0	487	63	
7	0	0	0	0	487	63	
8	0	0	0	0	489	62	
9	0	0	0	0	489	63	
10	0	0	0	0	489	63	
11	0	0	0	0	489	63	
12	0	0	0	0	489	62	
13	0	0	0	0	490	62	
14	0	0	0	0	489	63	
15	0	0	0	0	491	63	
0	0	0	0	0	490	62	
1	0	0	0	0	489	62	
2	0	0	0	0	489	63	
3	0	0	0	0	488	63	
4	0	0	0	0	489	62	
5	0	0	0	0	488	63	
6	0	0	0	0	487	63	
7	0	0	0	0	487	63	
8	0	0	0	0	487	62	
9	0	0	0	0	489	62	
10	0	0	0	0	490	63	
11	0	0	0	0	489	63	
12	0	0	0	0	490	62	
13	0	0	0	0	491	62	
14	0	0	0	0	492	63	
15	0	0	0	0	491	63	
0	0	0	0	0	491	62	
1	0	0	0	0	491	63	
2	0	0	0	0	490	63	
3	0	0	0	0	490	62	
4	0	0	0	0	491	63	
5	0	0	0	0	491	63	
6	0	0	0	0	490	63	
7	0	0	0	0	489	62	
8	0	0	0	0	488	62	
9	0	0	0	0	487	63	
10	0	0	0	0	488	63	
11	0	0	0	0	489	62	
12	0	0	0	0	488	62	
13	0	0	0	0	487	63	
14	0	0	0	0	487	63	
15	0	0	0	0	487	63	
0	0	0	0	0	487	62	
1	0	0	0	0	487	63	
2	0	0	0	0	487	63	
3	0	0	0	0	487	63	
4	0	0	0	0	486	62	
5	0	0	0	0	485	63	
6	0	0	0	0	484	63	
7	0	0	0	0	483	62	
8	0	0	0	0	482	63	
9	0	0	0	0	482	63	
10	0	0	0	0	484	63	
11	0	0	0	0	484	62	
12	0	0	0	0	485	62	
13	0	0	0	0	486	63	
14	0	0	0	0	486	63	
15	0	0	0	0	487	62	
0	0	0	0	0	487	63	
1	0	0	0	0	488	63	
2	0	0	0	0	489	63	
3	0	0	0	0	490	62	
4	0	0	0	0	488	63	
5	0	0	0	0	487	63	
6	0	0	0	0	487	63	
7	0	0	0	0	487	62	
8	0	0	0	0	488	63	
9	0	0	0	0	491	63	
10	0	0	0	0	491	63	
11	0	0	0	0	491	62	
12	0	0	0	0	491	63	
13	0	0	0	0	492	63	
14	0	0	0	0	492	63	
15	0	0	0	0	493	62	
0	0	0	0	0	494	62	
1	0	0	0	0	494	62	
2	0	0	0	0	495	63	
3	0	0	0	0	495	63	
4	0	0	0	0	496	63	
5	0	0	0	0	496	62	
6	0	0	0	0	497	63	
7	0	0	0	0	498	63	
8	0	0	0	0	499	63	
9	0	0	0	0	500	62	
10	0	0	0	0	502	62	
11	0	0	0	0	502	63	
12	0	0	0	0	504	63	
13	0	0	0	0	505	63	
14	0	0	0	0	506	62	
15	0	0	0	0	507	62	
0	0	0	0	0	506	63	
1	0	0	0	0	506	63	
2	0	0	0	0	504	62	
3	0	0	0	0	503	63	
4	0	0	0	0	501	63	
5	0	0	0	0	499	63	
6	0	0	0	0	497	63	
7	0	0	0	0	494	62	
8	0	0	0	0	491	63	
9	0	0	0	0	489	63	
10	0	0	0	0	486	62	
11	0	0	0	0	485	62	
12	0	0	0	0	484	63	
13	0	0	0	0	484	63	
14	0	0	0	0	482	62	
15	0	0	0	0	480	62	
0	0	0	0	0	479	63	
1	0	0	0	0	477	63	
2	0	0	0	0	476	62	
3	0	0	0	0	476	63	
4	0	0	0	0	478	63	
5	0	0	0	0	479	63	
6	0	0	0	0	480	62	
7	0	0	0	0	481	62	
8	0	0	0	0	483	63	
9	0	0	0	0	484	63	
10	0	0	0	0	486	62	
11	0	0	0	0	486	63	
12	0	0	0	0	489	63	
13	0	0	0	0	491	63	
14	0	0	0	0	491	62	
15	0	0	0	0	490	63	
0	0	0	0	0	489	63	
1	0	0	0	0	489	62	
2	0	0	0	0	490	62	
3	0	0	0	0	490	63	
4	0	0	0	0	492	63	
5	0	0	0	0	494	62	
6	0	0	0	0	496	62	
7	0	0	0	0	499	63	
8	0	0	0	0	499	63	
9	0	0	0	0	502	62	
10	0	0	0	0	504	63	
11	0	0	0	0	507	63	
12	0	0	0	0	510	63	
13	0	0	0	0	512	62	
14	0	0	0	0	513	62	
15	0	0	0	0	513	62	
0	0	0	0	0	513	63	
1	0	0	0	0	515	63	
2	0	0	0	0	518	63	
3	0	0	0	0	520	63	
4	0	0	0	0	521	62	
5	0	0	0	0	522	62	
6	0	0	0	0	524	63	
7	0	0	0	0	523	63	
8	0	0	0	0	523	62	
9	0	0	0	0	521	62	
10	0	0	0	0	519	63	
11	0	0	0	0	518	63	
12	0	0	0	0	518	62	
13	0	0	0	0	518	63	
14	0	0	0	0	517	63	
15	0	0	0	0	516	63	
0	0	0	0	0	515	62	
1	0	0	0	0	515	62	
2	0	0	0	0	515	63	
3	0	0	0	0	513	63	
4	0	0	0	0	513	62	
5	0	0	0	0	513	62	
6	0	0	0	0	511	63	
7	0	0	0	0	509	63	
8	0	0	0	0	507	63	
9	0	0	0	0	504	63	
10	0	0	0	0	504	62	
11	0	0	0	0	504	62	
12	0	0	0	0	503	63	
13	0	0	0	0	503	63	
14	0	0	0	0	503	62	
15	0	0	0	0	503	63	
0	0	0	0	0	504	63	
1	0	0	0	0	504	63	
2	0	0	0	0	504	62	
3	0	0	0	0	501	63	
4	0	0	0	0	500	63	
5	0	0	0	0	500	63	
6	0	0	0	0	500	63	
7	0	0	0	0	500	62	
8	0	0	0	0	499	63	
9	0	0	0	0	498	63	
10	0	0	0	0	496	63	
11	0	0	0	0	496	62	
12	0	0	0	0	497	63	
13	0	0	0	0	497	63	
14	0	0	0	0	498	62	
15	0	0	0	0	498	63	
0	0	0	0	0	499	63	
1	0	0	0	0	499	63	
2	0	0	0	0	499	62	
3	0	0	0	0	500	63	
4	0	0	0	0	500	63	
5	0	0	0	0	500	62	
6	0	0	0	0	499	62	
7	0	0	0	0	498	63	
8	0	0	0	0	498	63	
9	0	0	0	0	496	63	
10	0	0	0	0	496	62	
11	0	0	0	0	496	62	
12	0	0	0	0	496	63	
13	0	0	0	0	496	63	
14	0	0	0	0	495	63	
15	0	0	0	0	495	62	
0	0	0	0	0	496	63	
1	0	0	0	0	497	63	
2	0	0	0	0	498	63	
3	0	0	0	0	499	63	
4	0	0	0	0	499	62	
5	0	0	0	0	498	63	
6	0	0	0	0	498	63	
7	0	0	0	0	499	62	
8	0	0	0	0	498	63	
9	0	0	0	0	500	63	
10	0	0	0	0	501	63	
11	0	0	0	0	499	62	
12	0	0	0	0	499	63	
13	0	0	0	0	499	63	
14	0	0	0	0	498	63	
15	0	0	0	0	498	63	
0	0	0	0	0	498	62	
1	0	0	0	0	499	63	
2	0	0	0	0	499	63	
3	0	0	0	0	500	62	
4	0	0	0	0	502	63	
5	0	0	0	0	502	63	
6	0	0	0	0	502	63	
7	0	0	0	0	502	62	
8	0	0	0	0	502	62	
9	0	0	0	0	500	63	
10	0	0	0	0	500	63	
11	0	0	0	0	499	63	
12	0	0	0	0	499	62	
13	0	0	0	0	498	62	
14	0	0	0	0	497	63	
15	0	0	0	0	498	63	
0	0	0	0	0	499	62	
1	0	0	0	0	499	63	
2	0	0	0	0	498	63	
3	0	0	0	0	497	63	
4	0	0	0	0	497	62	
5	0	0	0	0	499	63	
6	0	0	0	0	500	63	
7	0	0	0	0	500	62	
8	0	0	0	0	499	63	
9	0	0	0	0	500	63	
10	0	0	0	0	499	63	
11	0	0	0	0	498	63	
12	0	0	0	0	497	62	
13	0	0	0	0	496	63	
14	0	0	0	0	495	63	
15	0	0	0	0	496	62	
0	0	0	0	0	497	62	
1	0	0	0	0	497	63	
2	0	0	0	0	497	63	
3	0	0	0	0	497	63	
4	0	0	0	0	498	62	
5	0	0	0	0	498	63	
6	0	0	0	0	498	63	
7	0	0	0	0	498	63	
8	0	0	0	0	498	62	
9	0	0	0	0	498	63	
10	0	0	0	0	498	63	
11	0	0	0	0	498	63	
12	0	0	0	0	499	62	
13	0	0	0	0	498	63	
14	0	0	0	0	497	63	
15	0	0	0	0	496	63	
0	0	0	0	0	496	62	
1	0	0	0	0	497	63	
2	0	0	0	0	498	63	
3	0	0	0	0	498	62	
4	0	0	0	0	497	62	
5	0	0	0	0	497	63	
6	0	0	0	0	497	63	
7	0	0	0	0	498	62	
8	0	0	0	0	498	63	
9	0	0	0	0	499	63	
10	0	0	0	0	499	62	
11	0	0	0	0	499	62	
12	0	0	0	0	499	63	
13	0	0	0	0	499	63	
14	0	0	0	0	499	62	
15	0	0	0	0	499	63	
0	0	0	0	0	499	63	
1	0	0	0	0	499	63	
2	0	0	0	0	501	62	
3	0	0	0	0	500	63	
4	0	0	0	0	501	63	
5	0	0	0	0	500	62	
6	0	0	0	0	500	63	
7	0	0	0	0	500	63	
8	0	0	0	0	500	62	
9	0	0	0	0	501	63	
10	0	0	0	0	501	63	
11	0	0	0	0	500	63	
12	0	0	0	0	499	63	
13	0	0	0	0	498	62	
14	0	0	0	0	497	63	
15	0	0	0	0	496	63	
0	0	0	0	0	495	62	
1	0	0	0	0	495	63	
2	0	0	0	0	494	63	
3	0	0	0	0	495	62	
4	0	0	0	0	496	63	
5	0	0	0	0	496	63	
6	0	0	0	0	496	63	
7	0	0	0	0	497	62	
8	0	0	0	0	497	63	
9	0	0	0	0	497	63	
10	0	0	0	0	497	63	
11	0	0	0	0	497	63	
12	0	0	0	0	498	63	
13	0	0	0	0	497	63	
14	0	0	0	0	496	63	
15	0	0	0	0	494	62	
0	0	0	0	0	494	63	
1	0	0	0	0	495	63	
2	0	0	0	0	495	62	
3	0	0	0	0	495	63	
4	0	0	0	0	495	63	
5	0	0	0	0	495	63	
6	0	0	0	0	496	62	
7	0	0	0	0	496	63	
8	0	0	0	0	495	63	
9	0	0	0	0	495	63	
10	0	0	0	0	496	62	
11	0	0	0	0	497	63	
12	0	0	0	0	496	63	
13	0	0	0	0	496	62	
14	0	0	0	0	496	63	
15	0	0	0	0	495	63	
0	0	0	0	0	493	63	
1	0	0	0	0	493	62	
2	0	0	0	0	494	63	
3	0	0	0	0	493	63	
4	0	0	0	0	492	63	
5	0	0	0	0	492	62	
6	0	0	0	0	493	63	
7	0	0	0	0	493	63	
8	0	0	0	0	493	63	
9	0	0	0	0	493	63	
10	0	0	0	0	494	63	
11	0	0	0	0	495	63	
12	0	0	0	0	495	63	
13	0	0	0	0	495	63	
14	0	0	0	0	496	62	
15	0	0	0	0	496	63	
0	0	0	0	0	496	63	
1	0	0	0	0	495	63	
2	0	0	0	0	493	62	
3	0	0	0	0	492	63	
4	0	0	0	0	491	63	
5	0	0	0	0	491	63	
6	0	0	0	0	492	62	
7	0	0	0	0	493	63	
8	0	0	0	0	494	63	
9	0	0	0	0	495	63	
10	0	0	0	0	497	63	
11	0	0	0	0	497	63	
12	0	0	0	0	498	63	
13	0	0	0	0	497	62	
14	0	0	0	0	496	63	
15	0	0	0	0	496	63	
0	0	0	0	0	497	63	
1	0	0	0	0	497	62	
2	0	0	0	0	497	63	
3	0	0	0	0	498	63	
4	0	0	0	0	498	63	
5	0	0	0	0	498	62	
6	0	0	0	0	497	63	
7	0	0	0	0	497	63	
8	0	0	0	0	497	63	
9	0	0	0	0	498	62	
10	0	0	0	0	498	63	
11	0	0	0	0	498	63	
12	0	0	0	0	498	63	
13	0	0	0	0	499	63	
14	0	0	0	0	499	63	
15	0	0	0	0	500	63	
0	0	0	0	0	500	63	
1	0	0	0	0	501	63	
2	0	0	0	0	500	63	
3	0	0	0	0	501	63	
4	0	0	0	0	502	62	
5	0	0	0	0	502	63	
6	0	0	0	0	504	63	
7	0	0	0	0	506	63	
8	0	0	0	0	506	62	
9	0	0	0	0	508	63	
10	0	0	0	0	509	63	
11	0	0	0	0	511	63	
12	0	0	0	0	511	63	
13	0	0	0	0	511	63	
14	0	0	0	0	511	62	
15	0	0	0	0	511	63	
0	0	0	0	0	512	63	
1	0	0	0	0	512	63	
2	0	0	0	0	511	63	
3	0	0	0	0	510	63	
4	0	0	0	0	511	63	
5	0	0	0	0	513	63	
6	0	0	0	0	513	62	
7	0	0	0	0	515	63	
8	0	0	0	0	515	63	
9	0	0	0	0	517	63	
10	0	0	0	0	518	63	
11	0	0	0	0	519	62	
12	0	0	0	0	520	63	
13	0	0	0	0	520	63	
14	0	0	0	0	521	63	
15	0	0	0	0	522	63	
0	0	0	0	0	522	63	
1	0	0	0	0	522	62	
2	0	0	0	0	523	62	
3	0	0	0	0	522	62	
4	0	0	0	0	522	63	
5	0	0	0	0	521	63	
6	0	0	0	0	521	63	
7	0	0	0	0	522	63	
8	0	0	0	0	522	62	
9	0	0	0	0	523	62	
10	0	0	0	0	523	62	
11	0	0	0	0	523	63	
12	0	0	0	0	523	63	
13	0	0	0	0	523	63	
14	0	0	0	0	524	63	
15	0	0	0	0	523	63	
0	0	0	0	0	524	63	
1	0	0	0	0	525	63	
2	0	0	0	0	523	63	
3	0	0	0	0	521	62	
4	0	0	0	0	520	63	
5	0	0	0	0	520	63	
6	0	0	0	0	519	63	
7	0	0	0	0	519	63	
8	0	0	0	0	519	62	
9	0	0	0	0	519	63	
10	0	0	0	0	519	63	
11	0	0	0	0	519	63	
12	0	0	0	0	519	63	
13	0	0	0	0	519	63	
14	0	0	0	0	519	63	
15	0	0	0	0	518	63	
0	0	0	0	0	517	63	
1	0	0	0	0	517	63	
2	0	0	0	0	519	63	
3	0	0	0	0	519	63	
4	0	0	0	0	519	63	
5	0	0	0	0	519	63	
6	0	0	0	0	520	63	
7	0	0	0	0	521	62	
8	0	0	0	0	521	63	
9	0	0	0	0	521	63	
10	0	0	0	0	521	63	
11	0	0	0	0	520	63	
12	0	0	0	0	521	63	
13	0	0	0	0	522	62	
14	0	0	0	0	521	62	
15	0	0	0	0	521	62	
0	0	0	0	0	520	63	
1	0	0	0	0	521	63	
2	0	0	0	0	520	63	
3	0	0	0	0	520	63	
4	0	0	0	0	519	63	
5	0	0	0	0	519	62	
6	0	0	0	0	519	63	
7	0	0	0	0	519	63	
8	0	0	0	0	518	63	
9	0	0	0	0	517	63	
10	0	0	0	0	516	62	
11	0	0	0	0	516	63	
12	0	0	0	0	514	63	
13	0	0	0	0	514	63	
14	0	0	0	0	514	63	
15	0	0	0	0	513	63	
0	0	0	0	0	512	63	
1	0	0	0	0	512	63	
2	0	0	0	0	511	63	
3	0	0	0	0	511	63	
4	0	0	0	0	510	63	
5	0	0	0	0	510	63	
6	0	0	0	0	509	63	
7	0	0	0	0	508	63	
8	0	0	0	0	507	63	
9	0	0	0	0	506	63	
10	0	0	0	0	506	63	
11	0	0	0	0	505	62	
12	0	0	0	0	505	63	
13	0	0	0	0	504	63	
14	0	0	0	0	504	63	
15	0	0	0	0	504	63	
0	0	0	0	0	504	63	
1	0	0	0	0	504	63	
2	0	0	0	0	503	63	
3	0	0	0	0	500	63	
4	0	0	0	0	500	63	
5	0	0	0	0	499	63	
6	0	0	0	0	498	63	
7	0	0	0	0	498	63	
8	0	0	0	0	498	63	
9	0	0	0	0	498	63	
10	0	0	0	0	497	63	
11	0	0	0	0	496	63	
12	0	0	0	0	497	63	
13	0	0	0	0	496	63	
14	0	0	0	0	497	63	
15	0	0	0	0	496	63	
0	0	0	0	0	495	63	
1	0	0	0	0	495	63	
2	0	0	0	0	494	63	
3	0	0	0	0	494	63	
4	0	0	0	0	493	63	
5	0	0	0	0	491	63	
6	0	0	0	0	491	63	
7	0	0	0	0	491	63	
8	0	0	0	0	492	63	
9	0	0	0	0	491	63	
10	0	0	0	0	490	63	
11	0	0	0	0	491	63	
12	0	0	0	0	491	63	
13	0	0	0	0	489	63	
14	0	0	0	0	489	63	
15	0	0	0	0	489	63	
0	0	0	0	0	489	63	
1	0	0	0	0	488	63	
2	0	0	0	0	488	63	
3	0	0	0	0	487	63	
4	0	0	0	0	488	63	
5	0	0	0	0	487	64	
6	0	0	0	0	487	63	
7	0	0	0	0	486	63	
8	0	0	0	0	485	63	
9	0	0	0	0	484	63	
10	0	0	0	0	485	63	
11	0	0	0	0	486	63	
12	0	0	0	0	487	63	
13	0	0	0	0	487	63	
14	0	0	0	0	487	63	
15	0	0	0	0	488	63	
0	0	0	0	0	488	63	
1	0	0	0	0	488	63	
2	0	0	0	0	487	63	
3	0	0	0	0	488	63	
4	0	0	0	0	488	63	
5	0	0	0	0	488	63	
6	0	0	0	0	488	63	
7	0	0	0	0	488	63	
8	0	0	0	0	488	63	
9	0	0	0	0	488	63	
10	0	0	0	0	488	63	
11	0	0	0	0	488	63	
12	0	0	0	0	488	63	
13	0	0	0	0	488	63	
14	0	0	0	0	489	63	
15	0	0	0	0	489	63	
0	0	0	0	0	489	63	
1	0	0	0	0	490	63	
2	0	0	0	0	493	63	
3	0	0	0	0	493	63	
4	0	0	0	0	492	63	
5	0	0	0	0	492	63	
6	0	0	0	0	491	63	
7	0	0	0	0	491	63	
8	0	0	0	0	492	63	
9	0	0	0	0	491	63	
10	0	0	0	0	490	63	
11	0	0	0	0	488	63	
12	0	0	0	0	488	63	
13	0	0	0	0	487	63	
14	0	0	0	0	487	63	
15	0	0	0	0	486	63	
0	0	0	0	0	486	63	
1	0	0	0	0	487	63	
2	0	0	0	0	486	63	
3	0	0	0	0	486	63	
4	0	0	0	0	485	63	
5	0	0	0	0	486	63	
6	0	0	0	0	486	63	
7	0	0	0	0	487	63	
8	0	0	0	0	486	63	
9	0	0	0	0	486	63	
10	0	0	0	0	485	63	
11	0	0	0	0	484	63	
12	0	0	0	0	484	63	
13	0	0	0	0	485	63	
14	0	0	0	0	486	63	
15	0	0	0	0	487	63	
0	0	0	0	0	487	63	
1	0	0	0	0	487	63	
2	0	0	0	0	487	63	
3	0	0	0	0	487	63	
4	0	0	0	0	487	63	
5	0	0	0	0	487	63	
6	0	0	0	0	487	63	
7	0	0	0	0	487	63	
8	0	0	0	0	488	63	
9	0	0	0	0	487	63	
10	0	0	0	0	487	63	
11	0	0	0	0	487	63	
12	0	0	0	0	488	63	
13	0	0	0	0	489	63	
14	0	0	0	0	488	63	
15	0	0	0	0	488	63	
0	0	0	0	0	490	63	
1	0	0	0	0	490	63	
2	0	0	0	0	490	63	
3	0	0	0	0	491	63	
4	0	0	0	0	492	63	
5	0	0	0	0	492	63	
6	0	0	0	0	492	63	
7	0	0	0	0	493	63	
8	0	0	0	0	493	63	
9	0	0	0	0	493	63	
10	0	0	0	0	492	63	
11	0	0	0	0	492	63	
12	0	0	0	0	492	63	
13	0	0	0	0	492	63	
14	0	0	0	0	492	63	
15	0	0	0	0	493	63	
0	0	0	0	0	494	63	
1	0	0	0	0	497	63	
2	0	0	0	0	497	63	
3	0	0	0	0	499	63	
4	0	0	0	0	500	63	
5	0	0	0	0	501	63	
6	0	0	0	0	502	63	
7	0	0	0	0	501	63	
8	0	0	0	0	500	63	
9	0	0	0	0	500	63	
10	0	0	0	0	500	63	
11	0	0	0	0	501	63	
12	0	0	0	0	500	63	
13	0	0	0	0	499	63	
14	0	0	0	0	500	63	
15	0	0	0	0	499	63	
0	0	0	0	0	500	63	
1	0	0	0	0	502	63	
2	0	0	0	0	502	63	
3	0	0	0	0	503	63	
4	0	0	0	0	503	63	
5	0	0	0	0	503	63	
6	0	0	0	0	502	63	
7	0	0	0	0	502	63	
8	0	0	0	0	501	63	
9	0	0	0	0	502	63	
10	0	0	0	0	502	63	
11	0	0	0	0	502	63	
12	0	0	0	0	502	63	
13	0	0	0	0	501	63	
14	0	0	0	0	500	63	
15	0	0	0	0	501	63	
0	0	0	0	0	500	63	
1	0	0	0	0	500	63	
2	0	0	0	0	499	63	
3	0	0	0	0	499	63	
4	0	0	0	0	499	63	
5	0	0	0	0	499	63	
6	0	0	0	0	499	63	
7	0	0	0	0	499	63	
8	0	0	0	0	499	63	
9	0	0	0	0	499	63	
10	0	0	0	0	498	63	
11	0	0	0	0	497	63	
12	0	0	0	0	495	63	
13	0	0	0	0	494	63	
14	0	0	0	0	494	63	
15	0	0	0	0	493	63	
0	0	0	0	0	492	63	
1	0	0	0	0	492	63	
2	0	0	0	0	492	63	
3	0	0	0	0	494	63	
4	0	0	0	0	494	63	
5	0	0	0	0	492	63	
6	0	0	0	0	492	63	
7	0	0	0	0	493	63	
8	0	0	0	0	493	63	
9	0	0	0	0	494	63	
10	0	0	0	0	494	63	
11	0	0	0	0	495	63	
12	0	0	0	0	493	63	
13	0	0	0	0	493	63	
14	0	0	0	0	492	63	
15	0	0	0	0	492	63	
0	0	0	0	0	492	63	
1	0	0	0	0	492	63	
2	0	0	0	0	493	63	
3	0	0	0	0	493	63	
4	0	0	0	0	492	63	
5	0	0	0	0	492	63	
6	0	0	0	0	492	63	
7	0	0	0	0	492	63	
8	0	0	0	0	492	64	
9	0	0	0	0	493	63	
10	0	0	0	0	493	63	
11	0	0	0	0	492	63	
12	0	0	0	0	492	63	
13	0	0	0	0	492	63	
14	0	0	0	0	492	63	
15	0	0	0	0	492	63	
0	0	0	0	0	491	63	
1	0	0	0	0	491	63	
2	0	0	0	0	491	63	
3	0	0	0	0	492	63	
4	0	0	0	0	492	63	
5	0	0	0	0	491	63	
6	0	0	0	0	493	63	
7	0	0	0	0	492	63	
8	0	0	0	0	492	63	
9	0	0	0	0	492	63	
10	0	0	0	0	491	63	
11	0	0	0	0	492	63	
12	0	0	0	0	492	63	
13	0	0	0	0	491	63	
14	0	0	0	0	492	63	
15	0	0	0	0	492	63	
0	0	0	0	0	492	63	
1	0	0	0	0	492	63	
2	0	0	0	0	491	63	
3	0	0	0	0	490	63	
4	0	0	0	0	490	63	
5	0	0	0	0	491	63	
6	0	0	0	0	491	63	
7	0	0	0	0	490	63	
8	0	0	0	0	490	63	
9	0	0	0	0	489	63	
10	0	0	0	0	489	63	
11	0	0	0	0	489	63	
12	0	0	0	0	491	63	
13	0	0	0	0	492	63	
14	0	0	0	0	491	63	
15	0	0	0	0	491	63	
0	0	0	0	0	491	63	
1	0	0	0	0	491	63	
2	0	0	0	0	492	63	
3	0	0	0	0	491	63	
4	0	0	0	0	490	63	
5	0	0	0	0	491	63	
6	0	0	0	0	491	63	
7	0	0	0	0	491	63	
8	0	0	0	0	491	63	
9	0	0	0	0	491	63	
10	0	0	0	0	491	63	
11	0	0	0	0	492	63	
12	0	0	0	0	491	63	
13	0	0	0	0	490	63	
14	0	0	0	0	491	63	
15	0	0	0	0	492	63	
0	0	0	0	0	491	63	
1	0	0	0	0	490	63	
2	0	0	0	0	489	63	
3	0	0	0	0	489	63	
4	0	0	0	0	488	63	
5	0	0	0	0	489	63	
6	0	0	0	0	491	63	
7	0	0	0	0	491	63	
8	0	0	0	0	491	63	
9	0	0	0	0	491	63	
10	0	0	0	0	491	63	
11	0	0	0	0	491	63	
12	0	0	0	0	491	63	
13	0	0	0	0	492	63	
14	0	0	0	0	493	63	
15	0	0	0	0	494	63	
0	0	0	0	0	494	63	
1	0	0	0	0	493	63	
2	0	0	0	0	494	63	
3	0	0	0	0	494	63	
4	0	0	0	0	494	64	
5	0	0	0	0	494	63	
6	0	0	0	0	494	63	
7	0	0	0	0	495	63	
8	0	0	0	0	494	63	
9	0	0	0	0	494	63	
10	0	0	0	0	496	63	
11	0	0	0	0	496	63	
12	0	0	0	0	496	64	
13	0	0	0	0	496	63	
14	0	0	0	0	496	63	
15	0	0	0	0	494	63	
0	0	0	0	0	494	63	
1	0	0	0	0	495	63	
2	0	0	0	0	494	63	
3	0	0	0	0	493	63	
4	0	0	0	0	492	63	
5	0	0	0	0	491	63	
6	0	0	0	0	490	63	
7	0	0	0	0	491	63	
8	0	0	0	0	491	63	
9	0	0	0	0	490	63	
10	0	0	0	0	489	63	
11	0	0	0	0	488	63	
12	0	0	0	0	487	63	
13	0	0	0	0	487	63	
14	0	0	0	0	487	63	
15	0	0	0	0	488	63	
0	0	0	0	0	489	63	
1	0	0	0	0	489	63	
2	0	0	0	0	489	63	
3	0	0	0	0	488	63	
4	0	0	0	0	486	63	
5	0	0	0	0	484	63	
6	0	0	0	0	485	63	
7	0	0	0	0	486	63	
8	0	0	0	0	486	63	
9	0	0	0	0	487	63	
10	0	0	0	0	487	63	
11	0	0	0	0	487	63	
12	0	0	0	0	488	63	
13	0	0	0	0	489	63	
14	0	0	0	0	489	63	
15	0	0	0	0	490	63	
0	0	0	0	0	490	63	
1	0	0	0	0	490	63	
2	0	0	0	0	489	63	
3	0	0	0	0	488	63	
4	0	0	0	0	488	63	
5	0	0	0	0	487	63	
6	0	0	0	0	486	63	
7	0	0	0	0	486	63	
8	0	0	0	0	487	63	
9	0	0	0	0	487	63	
10	0	0	0	0	487	63	
11	0	0	0	0	489	63	
12	0	0	0	0	490	63	
13	0	0	0	0	489	63	
14	0	0	0	0	489	63	
15	0	0	0	0	491	63	
0	0	0	0	0	491	63	
1	0	0	0	0	491	63	
2	0	0	0	0	491	64	
3	0	0	0	0	491	63	
4	0	0	0	0	490	63	
5	0	0	0	0	489	63	
6	0	0	0	0	489	63	
7	0	0	0	0	489	63	
8	0	0	0	0	490	63	
9	0	0	0	0	492	63	
10	0	0	0	0	493	63	
11	0	0	0	0	493	63	
12	0	0	0	0	494	63	
13	0	0	0	0	495	63	
14	0	0	0	0	495	63	
15	0	0	0	0	495	63	
0	0	0	0	0	496	63	
1	0	0	0	0	497	63	
2	0	0	0	0	497	63	
3	0	0	0	0	497	63	
4	0	0	0	0	496	63	
5	0	0	0	0	495	63	
6	0	0	0	0	494	63	
7	0	0	0	0	494	63	
8	0	0	0	0	494	63	
9	0	0	0	0	495	63	
10	0	0	0	0	496	63	
11	0	0	0	0	496	63	
12	0	0	0	0	496	63	
13	0	0	0	0	496	63	
14	0	0	0	0	496	63	
15	0	0	0	0	497	63	
0	0	0	0	0	496	63	
1	0	0	0	0	497	63	
2	0	0	0	0	496	63	
3	0	0	0	0	496	63	
4	0	0	0	0	495	63	
5	0	0	0	0	495	63	
6	0	0	0	0	495	63	
7	0	0	0	0	494	63	
8	0	0	0	0	494	63	
9	0	0	0	0	494	63	
10	0	0	0	0	495	63	
11	0	0	0	0	496	63	
12	0	0	0	0	496	63	
13	0	0	0	0	496	63	
14	0	0	0	0	497	63	
15	0	0	0	0	496	63	
0	0	0	0	0	497	63	
1	0	0	0	0	496	63	
2	0	0	0	0	497	63	
3	0	0	0	0	497	63	
4	0	0	0	0	497	63	
5	0	0	0	0	497	64	
6	0	0	0	0	497	63	
7	0	0	0	0	497	63	
8	0	0	0	0	497	63	
9	0	0	0	0	496	63	
10	0	0	0	0	496	63	
11	0	0	0	0	495	63	
12	0	0	0	0	495	63	
13	0	0	0	0	495	63	
14	0	0	0	0	496	63	
15	0	0	0	0	497	63	
0	0	0	0	0	498	63	
1	0	0	0	0	499	63	
2	0	0	0	0	498	63	
3	0	0	0	0	498	63	
4	0	0	0	0	499	63	
5	0	0	0	0	499	63	
6	0	0	0	0	498	63	
7	0	0	0	0	497	63	
8	0	0	0	0	496	63	
9	0	0	0	0	497	63	
10	0	0	0	0	495	63	
11	0	0	0	0	494	63	
12	0	0	0	0	494	63	
13	0	0	0	0	494	63	
14	0	0	0	0	494	63	
15	0	0	0	0	496	63	
0	0	0	0	0	495	63	
1	0	0	0	0	495	63	
2	0	0	0	0	496	63	
3	0	0	0	0	496	64	
4	0	0	0	0	495	63	
5	0	0	0	0	496	63	
6	0	0	0	0	495	63	
7	0	0	0	0	494	64	
8	0	0	0	0	495	63	
9	0	0	0	0	493	63	
10	0	0	0	0	492	63	
11	0	0	0	0	491	63	
12	0	0	0	0	492	63	
13	0	0	0	0	493	63	
14	0	0	0	0	493	63	
15	0	0	0	0	493	63	
0	0	0	0	0	493	63	
1	0	0	0	0	493	63	
2	0	0	0	0	493	63	
3	0	0	0	0	494	63	
4	0	0	0	0	494	64	
5	0	0	0	0	495	63	
6	0	0	0	0	494	63	
7	0	0	0	0	493	63	
8	0	0	0	0	492	63	
9	0	0	0	0	491	63	
10	0	0	0	0	490	63	
11	0	0	0	0	491	63	
12	0	0	0	0	491	63	
13	0	0	0	0	492	63	
14	0	0	0	0	492	63	
15	0	0	0	0	492	63	
0	0	0	0	0	493	63	
1	0	0	0	0	493	63	
2	0	0	0	0	493	63	
3	0	0	0	0	494	63	
4	0	0	0	0	494	63	
5	0	0	0	0	493	63	
6	0	0	0	0	493	63	
7	0	0	0	0	493	63	
8	0	0	0	0	492	63	
9	0	0	0	0	490	63	
10	0	0	0	0	489	63	
11	0	0	0	0	489	63	
12	0	0	0	0	489	63	
13	0	0	0	0	488	63	
14	0	0	0	0	487	63	
15	0	0	0	0	487	63	
0	0	0	0	0	488	63	
1	0	0	0	0	488	63	
2	0	0	0	0	488	63	
3	0	0	0	0	489	63	
4	0	0	0	0	489	63	
5	0	0	0	0	488	63	
6	0	0	0	0	487	63	
7	0	0	0	0	487	63	
8	0	0	0	0	486	63	
9	0	0	0	0	485	63	
10	0	0	0	0	486	63	
11	0	0	0	0	485	63	
12	0	0	0	0	484	63	
13	0	0	0	0	485	63	
14	0	0	0	0	484	63	
15	0	0	0	0	484	63	
0	0	0	0	0	485	63	
1	0	0	0	0	486	63	
2	0	0	0	0	487	63	
3	0	0	0	0	487	63	
4	0	0	0	0	488	63	
5	0	0	0	0	489	63	
6	0	0	0	0	489	63	
7	0	0	0	0	489	63	
8	0	0	0	0	490	63	
9	0	0	0	0	490	63	
10	0	0	0	0	490	64	
11	0	0	0	0	489	63	
12	0	0	0	0	488	63	
13	0	0	0	0	488	63	
14	0	0	0	0	490	63	
15	0	0	0	0	492	63	
0	0	0	0	0	494	63	
1	0	0	0	0	494	63	
2	0	0	0	0	494	63	
3	0	0	0	0	494	63	
4	0	0	0	0	495	63	
5	0	0	0	0	496	63	
6	0	0	0	0	496	63	
7	0	0	0	0	496	63	
8	0	0	0	0	497	63	
9	0	0	0	0	496	64	
10	0	0	0	0	496	63	
11	0	0	0	0	496	63	
12	0	0	0	0	495	63	
13	0	0	0	0	495	63	
14	0	0	0	0	495	63	
15	0	0	0	0	496	63	
0	0	0	0	0	496	63	
1	0	0	0	0	496	63	
2	0	0	0	0	495	63	
3	0	0	0	0	496	63	
4	0	0	0	0	496	63	
5	0	0	0	0	498	63	
6	0	0	0	0	499	63	
7	0	0	0	0	500	63	
8	0	0	0	0	502	63	
9	0	0	0	0	503	63	
10	0	0	0	0	503	63	
11	0	0	0	0	502	63	
12	0	0	0	0	502	63	
13	0	0	0	0	501	63	
14	0	0	0	0	500	63	
15	0	0	0	0	500	63	
0	0	0	0	0	499	63	
1	0	0	0	0	500	63	
2	0	0	0	0	500	63	
3	0	0	0	0	501	63	
4	0	0	0	0	501	63	
5	0	0	0	0	500	63	
6	0	0	0	0	500	63	
7	0	0	0	0	499	63	
8	0	0	0	0	499	63	
9	0	0	0	0	499	63	
10	0	0	0	0	499	63	
11	0	0	0	0	499	63	
12	0	0	0	0	499	63	
13	0	0	0	0	499	63	
14	0	0	0	0	499	63	
15	0	0	0	0	498	63	
0	0	0	0	0	498	63	
1	0	0	0	0	498	63	
2	0	0	0	0	498	63	
3	0	0	0	0	497	63	
4	0	0	0	0	497	63	
5	0	0	0	0	498	63	
6	0	0	0	0	497	63	
7	0	0	0	0	498	63	
8	0	0	0	0	499	63	
9	0	0	0	0	499	63	
10	0	0	0	0	499	63	
11	0	0	0	0	498	63	
12	0	0	0	0	498	63	
13	0	0	0	0	496	63	
14	0	0	0	0	496	63	
15	0	0	0	0	496	63	
0	0	0	0	0	496	63	
1	0	0	0	0	496	63	
2	0	0	0	0	496	63	
3	0	0	0	0	495	63	
4	0	0	0	0	495	63	
5	0	0	0	0	494	63	
6	0	0	0	0	495	63	
7	0	0	0	0	495	63	
8	0	0	0	0	495	63	
9	0	0	0	0	496	64	
10	0	0	0	0	496	63	
11	0	0	0	0	497	63	
12	0	0	0	0	496	63	
13	0	0	0	0	496	63	
14	0	0	0	0	496	63	
15	0	0	0	0	495	63	
0	0	0	0	0	495	63	
1	0	0	0	0	495	63	
2	0	0	0	0	495	64	
3	0	0	0	0	496	63	
4	0	0	0	0	495	63	
5	0	0	0	0	495	63	
6	0	0	0	0	495	63	
7	0	0	0	0	495	63	
8	0	0	0	0	496	63	
9	0	0	0	0	497	63	
10	0	0	0	0	496	64	
11	0	0	0	0	496	63	
12	0	0	0	0	495	63	
13	0	0	0	0	495	63	
14	0	0	0	0	495	63	
15	0	0	0	0	496	63	
0	0	0	0	0	496	63	
1	0	0	0	0	496	63	
2	0	0	0	0	496	63	
3	0	0	0	0	496	63	
4	0	0	0	0	496	63	
5	0	0	0	0	496	63	
6	0	0	0	0	496	63	
7	0	0	0	0	497	63	
8	0	0	0	0	496	63	
9	0	0	0	0	496	63	
10	0	0	0	0	496	63	
11	0	0	0	0	496	63	
12	0	0	0	0	497	63	
13	0	0	0	0	496	63	
14	0	0	0	0	496	63	
15	0	0	0	0	496	63	
0	0	0	0	0	496	63	
1	0	0	0	0	495	63	
2	0	0	0	0	494	64	
3	0	0	0	0	493	63	
4	0	0	0	0	492	63	
5	0	0	0	0	490	63	
6	0	0	0	0	488	63	
7	0	0	0	0	486	63	
8	0	0	0	0	485	63	
9	0	0	0	0	482	63	
10	0	0	0	0	479	63	
11	0	0	0	0	477	63	
12	0	0	0	0	476	64	
13	0	0	0	0	473	63	
14	0	0	0	0	470	63	
15	0	0	0	0	467	63	
0	0	0	0	0	464	63	
1	0	0	0	0	461	64	
2	0	0	0	0	459	63	
3	0	0	0	0	459	63	
4	0	0	0	0	459	63	
5	0	0	0	0	459	64	
6	0	0	0	0	461	63	
7	0	0	0	0	463	63	
8	0	0	0	0	467	63	
9	0	0	0	0	469	63	
10	0	0	0	0	472	63	
11	0	0	0	0	473	63	
12	0	0	0	0	475	63	
13	0	0	0	0	476	64	
14	0	0	0	0	475	63	
15	0	0	0	0	475	63	
0	0	0	0	0	473	63	
1	0	0	0	0	473	63	
2	0	0	0	0	473	63	
3	0	0	0	0	474	63	
4	0	0	0	0	475	63	
5	0	0	0	0	477	63	
6	0	0	0	0	480	63	
7	0	0	0	0	483	63	
8	0	0	0	0	484	63	
9	0	0	0	0	486	63	
10	0	0	0	0	489	63	
11	0	0	0	0	492	63	
12	0	0	0	0	495	63	
13	0	0	0	0	497	63	
14	0	0	0	0	500	63	
15	0	0	0	0	504	63	
0	0	0	0	0	504	63	
1	0	0	0	0	505	63	
2	0	0	0	0	505	63	
3	0	0	0	0	505	63	
4	0	0	0	0	505	63	
5	0	0	0	0	508	63	
6	0	0	0	0	510	63	
7	0	0	0	0	511	63	
8	0	0	0	0	512	63	
9	0	0	0	0	512	63	
10	0	0	0	0	511	63	
11	0	0	0	0	509	63	
12	0	0	0	0	509	63	
13	0	0	0	0	510	63	
14	0	0	0	0	510	63	
15	0	0	0	0	510	63	
0	0	0	0	0	509	63	
1	0	0	0	0	508	63	
2	0	0	0	0	506	63	
3	0	0	0	0	504	64	
4	0	0	0	0	503	63	
5	0	0	0	0	503	63	
6	0	0	0	0	502	63	
7	0	0	0	0	502	63	
8	0	0	0	0	500	63	
9	0	0	0	0	500	63	
10	0	0	0	0	499	63	
11	0	0	0	0	499	63	
12	0	0	0	0	499	63	
13	0	0	0	0	498	63	
14	0	0	0	0	497	63	
15	0	0	0	0	499	64	
0	0	0	0	0	498	63	
1	0	0	0	0	497	63	
2	0	0	0	0	495	63	
3	0	0	0	0	493	63	
4	0	0	0	0	493	63	
5	0	0	0	0	491	63	
6	0	0	0	0	492	63	
7	0	0	0	0	491	63	
8	0	0	0	0	491	63	
9	0	0	0	0	489	63	
10	0	0	0	0	489	63	
11	0	0	0	0	490	64	
12	0	0	0	0	490	63	
13	0	0	0	0	490	63	
14	0	0	0	0	490	63	
15	0	0	0	0	489	63	
0	0	0	0	0	490	63	
1	0	0	0	0	489	63	
2	0	0	0	0	489	63	
3	0	0	0	0	489	63	
4	0	0	0	0	488	63	
5	0	0	0	0	488	63	
6	0	0	0	0	488	63	
7	0	0	0	0	489	63	
8	0	0	0	0	491	63	
9	0	0	0	0	492	63	
10	0	0	0	0	492	64	
11	0	0	0	0	492	63	
12	0	0	0	0	492	63	
13	0	0	0	0	492	63	
14	0	0	0	0	491	63	
15	0	0	0	0	492	63	
0	0	0	0	0	492	63	
1	0	0	0	0	492	63	
2	0	0	0	0	492	63	
3	0	0	0	0	490	63	
4	0	0	0	0	490	63	
5	0	0	0	0	490	63	
6	0	0	0	0	491	63	
7	0	0	0	0	491	63	
8	0	0	0	0	491	63	
9	0	0	0	0	492	64	
10	0	0	0	0	491	63	
11	0	0	0	0	491	63	
12	0	0	0	0	490	63	
13	0	0	0	0	490	63	
14	0	0	0	0	492	63	
15	0	0	0	0	492	63	
0	0	0	0	0	492	63	
1	0	0	0	0	493	64	
2	0	0	0	0	493	63	
3	0	0	0	0	493	63	
4	0	0	0	0	493	63	
5	0	0	0	0	493	63	
6	0	0	0	0	493	63	
7	0	0	0	0	493	63	
8	0	0	0	0	493	63	
9	0	0	0	0	493	63	
10	0	0	0	0	493	63	
11	0	0	0	0	494	63	
12	0	0	0	0	494	63	
13	0	0	0	0	494	63	
14	0	0	0	0	493	63	
15	0	0	0	0	493	63	
0	0	0	0	0	493	63	
1	0	0	0	0	492	63	
2	0	0	0	0	491	63	
3	0	0	0	0	492	63	
4	0	0	0	0	492	63	
5	0	0	0	0	492	63	
6	0	0	0	0	491	63	
7	0	0	0	0	491	63	
8	0	0	0	0	490	63	
9	0	0	0	0	489	63	
10	0	0	0	0	489	63	
11	0	0	0	0	489	63	
12	0	0	0	0	490	63	
13	0	0	0	0	491	63	
14	0	0	0	0	491	63	
15	0	0	0	0	492	63	
0	0	0	0	0	491	63	
1	0	0	0	0	491	63	
2	0	0	0	0	491	64	
3	0	0	0	0	492	63	
4	0	0	0	0	491	63	
5	0	0	0	0	491	63	
6	0	0	0	0	492	63	
7	0	0	0	0	491	63	
8	0	0	0	0	490	63	
9	0	0	0	0	489	63	
10	0	0	0	0	489	63	
11	0	0	0	0	491	63	
12	0	0	0	0	491	63	
13	0	0	0	0	492	63	
14	0	0	0	0	492	64	
15	0	0	0	0	492	63	
0	0	0	0	0	492	63	
1	0	0	0	0	492	63	
2	0	0	0	0	492	64	
3	0	0	0	0	492	63	
4	0	0	0	0	492	63	
5	0	0	0	0	491	63	
6	0	0	0	0	491	63	
7	0	0	0	0	491	63	
8	0	0	0	0	490	63	
9	0	0	0	0	490	63	
10	0	0	0	0	491	63	
11	0	0	0	0	491	63	
12	0	0	0	0	491	63	
13	0	0	0	0	493	63	
14	0	0	0	0	493	63	
15	0	0	0	0	493	63	
0	0	0	0	0	494	63	
1	0	0	0	0	493	63	
2	0	0	0	0	493	63	
3	0	0	0	0	492	63	
4	0	0	0	0	493	63	
5	0	0	0	0	492	63	
6	0	0	0	0	491	63	
7	0	0	0	0	490	63	
8	0	0	0	0	488	63	
9	0	0	0	0	489	63	
10	0	0	0	0	488	63	
11	0	0	0	0	488	63	
12	0	0	0	0	487	63	
13	0	0	0	0	486	63	
14	0	0	0	0	486	63	
15	0	0	0	0	486	63	
0	0	0	0	0	486	63	
1	0	0	0	0	487	63	
2	0	0	0	0	487	63	
3	0	0	0	0	487	63	
4	0	0	0	0	486	63	
5	0	0	0	0	487	63	
6	0	0	0	0	485	63	
7	0	0	0	0	484	63	
8	0	0	0	0	484	64	
9	0	0	0	0	483	63	
10	0	0	0	0	483	63	
11	0	0	0	0	482	63	
12	0	0	0	0	481	63	
13	0	0	0	0	480	63	
14	0	0	0	0	481	63	
15	0	0	0	0	481	63	
0	0	0	0	0	482	63	
1	0	0	0	0	481	63	
2	0	0	0	0	482	63	
3	0	0	0	0	482	63	
4	0	0	0	0	482	63	
5	0	0	0	0	483	64	
6	0	0	0	0	483	63	
7	0	0	0	0	483	63	
8	0	0	0	0	482	63	
9	0	0	0	0	480	63	
10	0	0	0	0	481	64	
11	0	0	0	0	480	63	
12	0	0	0	0	482	63	
13	0	0	0	0	482	63	
14	0	0	0	0	483	63	
15	0	0	0	0	484	63	
0	0	0	0	0	485	63	
1	0	0	0	0	486	63	
2	0	0	0	0	487	63	
3	0	0	0	0	487	63	
4	0	0	0	0	487	63	
5	0	0	0	0	486	63	
6	0	0	0	0	486	63	
7	0	0	0	0	486	63	
8	0	0	0	0	486	64	
9	0	0	0	0	485	63	
10	0	0	0	0	484	63	
11	0	0	0	0	484	63	
12	0	0	0	0	483	64	
13	0	0	0	0	483	63	
14	0	0	0	0	483	63	
15	0	0	0	0	484	63	
0	0	0	0	0	486	63	
1	0	0	0	0	486	64	
2	0	0	0	0	485	64	
3	0	0	0	0	486	63	
4	0	0	0	0	485	63	
5	0	0	0	0	486	63	
6	0	0	0	0	487	64	
7	0	0	0	0	487	63	
8	0	0	0	0	487	63	
9	0	0	0	0	486	63	
10	0	0	0	0	487	63	
11	0	0	0	0	486	63	
12	0	0	0	0	486	63	
13	0	0	0	0	486	63	
14	0	0	0	0	486	63	
15	0	0	0	0	487	63	
0	0	0	0	0	489	63	
1	0	0	0	0	491	63	
2	0	0	0	0	492	63	
3	0	0	0	0	492	63	
4	0	0	0	0	493	63	
5	0	0	0	0	493	63	
6	0	0	0	0	493	63	
7	0	0	0	0	494	63	
8	0	0	0	0	495	63	
9	0	0	0	0	494	63	
10	0	0	0	0	494	63	
11	0	0	0	0	494	63	
12	0	0	0	0	493	63	
13	0	0	0	0	493	63	
14	0	0	0	0	493	63	
15	0	0	0	0	494	63	
0	0	0	0	0	495	63	
1	0	0	0	0	496	63	
2	0	0	0	0	497	63	
3	0	0	0	0	499	63	
4	0	0	0	0	500	63	
5	0	0	0	0	502	63	
6	0	0	0	0	501	63	
7	0	0	0	0	502	63	
8	0	0	0	0	502	63	
9	0	0	0	0	503	63	
10	0	0	0	0	504	63	
11	0	0	0	0	504	63	
12	0	0	0	0	503	63	
13	0	0	0	0	504	63	
14	0	0	0	0	504	63	
15	0	0	0	0	505	63	
0	0	0	0	0	505	63	
1	0	0	0	0	507	63	
2	0	0	0	0	509	63	
3	0	0	0	0	511	63	
4	0	0	0	0	512	63	
5	0	0	0	0	513	63	
6	0	0	0	0	513	63	
7	0	0	0	0	514	63	
8	0	0	0	0	513	63	
9	0	0	0	0	514	63	
10	0	0	0	0	513	63	
11	0	0	0	0	513	63	
12	0	0	0	0	514	63	
13	0	0	0	0	514	63	
14	0	0	0	0	514	63	
15	0	0	0	0	515	63	
0	0	0	0	0	515	63	
1	0	0	0	0	516	63	
2	0	0	0	0	517	63	
3	0	0	0	0	518	63	
4	0	0	0	0	518	63	
5	0	0	0	0	519	63	
6	0	0	0	0	520	64	
7	0	0	0	0	520	63	
8	0	0	0	0	521	63	
9	0	0	0	0	522	63	
10	0	0	0	0	522	63	
11	0	0	0	0	523	63	
12	0	0	0	0	521	63	
13	0	0	0	0	521	63	
14	0	0	0	0	521	63	
15	0	0	0	0	521	63	
0	0	0	0	0	522	63	
1	0	0	0	0	522	63	
2	0	0	0	0	522	63	
3	0	0	0	0	523	63	
4	0	0	0	0	523	63	
5	0	0	0	0	523	63	
6	0	0	0	0	524	63	
7	0	0	0	0	524	63	
8	0	0	0	0	524	63	
9	0	0	0	0	525	63	
10	0	0	0	0	526	63	
11	0	0	0	0	525	63	
12	0	0	0	0	525	63	
13	0	0	0	0	524	63	
14	0	0	0	0	524	63	
15	0	0	0	0	524	63	
0	0	0	0	0	523	63	
1	0	0	0	0	523	63	
2	0	0	0	0	523	63	
3	0	0	0	0	523	63	
4	0	0	0	0	523	63	
5	0	0	0	0	524	63	
6	0	0	0	0	524	63	
7	0	0	0	0	524	63	
8	0	0	0	0	523	63	
9	0	0	0	0	522	63	
10	0	0	0	0	521	63	
11	0	0	0	0	522	63	
12	0	0	0	0	522	63	
13	0	0	0	0	521	63	
14	0	0	0	0	521	63	
15	0	0	0	0	521	63	
0	0	0	0	0	521	63	
1	0	0	0	0	521	63	
2	0	0	0	0	520	63	
3	0	0	0	0	520	63	
4	0	0	0	0	519	63	
5	0	0	0	0	520	63	
6	0	0	0	0	521	63	
7	0	0	0	0	522	63	
8	0	0	0	0	523	63	
9	0	0	0	0	523	63	
10	0	0	0	0	522	63	
11	0	0	0	0	522	63	
12	0	0	0	0	523	63	
13	0	0	0	0	523	63	
14	0	0	0	0	523	63	
15	0	0	0	0	522	63	
0	0	0	0	0	522	63	
1	0	0	0	0	522	63	
2	0	0	0	0	522	63	
3	0	0	0	0	522	63	
4	0	0	0	0	522	63	
5	0	0	0	0	521	63	
6	0	0	0	0	522	63	
7	0	0	0	0	522	63	
8	0	0	0	0	523	63	
9	0	0	0	0	524	63	
10	0	0	0	0	524	63	
11	0	0	0	0	524	63	
12	0	0	0	0	525	63	
13	0	0	0	0	526	63	
14	0	0	0	0	526	63	
15	0	0	0	0	526	63	
0	0	0	0	0	527	63	
1	0	0	0	0	527	63	
2	0	0	0	0	527	63	
3	0	0	0	0	528	63	
4	0	0	0	0	528	63	
5	0	0	0	0	528	63	
6	0	0	0	0	528	63	
7	0	0	0	0	528	63	
8	0	0	0	0	529	63	
9	0	0	0	0	529	63	
10	0	0	0	0	530	63	
11	0	0	0	0	532	63	
12	0	0	0	0	532	63	
13	0	0	0	0	531	63	
14	0	0	0	0	531	63	
15	0	0	0	0	530	63	
0	0	0	0	0	529	63	
1	0	0	0	0	529	63	
2	0	0	0	0	530	63	
3	0	0	0	0	530	63	
4	0	0	0	0	528	63	
5	0	0	0	0	528	63	
6	0	0	0	0	529	63	
7	0	0	0	0	528	63	
8	0	0	0	0	528	63	
9	0	0	0	0	528	63	
10	0	0	0	0	529	63	
11	0	0	0	0	528	63	
12	0	0	0	0	527	63	
13	0	0	0	0	527	63	
14	0	0	0	0	526	63	
15	0	0	0	0	525	63	
0	0	0	0	0	524	63	
1	0	0	0	0	524	63	
2	0	0	0	0	524	63	
3	0	0	0	0	522	63	
4	0	0	0	0	522	63	
5	0	0	0	0	522	63	
6	0	0	0	0	522	63	
7	0	0	0	0	523	63	
8	0	0	0	0	522	63	
9	0	0	0	0	522	63	
10	0	0	0	0	522	63	
11	0	0	0	0	521	63	
12	0	0	0	0	521	63	
13	0	0	0	0	521	63	
14	0	0	0	0	522	63	
15	0	0	0	0	521	63	
0	0	0	0	0	520	63	
1	0	0	0	0	519	63	
2	0	0	0	0	518	63	
3	0	0	0	0	517	63	
4	0	0	0	0	517	63	
5	0	0	0	0	517	63	
6	0	0	0	0	518	63	
7	0	0	0	0	517	63	
8	0	0	0	0	517	63	
9	0	0	0	0	517	63	
10	0	0	0	0	516	63	
11	0	0	0	0	516	63	
12	0	0	0	0	516	63	
13	0	0	0	0	515	63	
14	0	0	0	0	516	63	
15	0	0	0	0	516	64	
0	0	0	0	0	515	63	
1	0	0	0	0	515	63	
2	0	0	0	0	515	63	
3	0	0	0	0	514	63	
4	0	0	0	0	514	63	
5	0	0	0	0	514	63	
6	0	0	0	0	513	63	
7	0	0	0	0	514	63	
8	0	0	0	0	514	63	
9	0	0	0	0	514	63	
10	0	0	0	0	514	63	
11	0	0	0	0	515	63	
12	0	0	0	0	514	63	
13	0	0	0	0	514	63	
14	0	0	0	0	513	63	
15	0	0	0	0	513	63	
0	0	0	0	0	512	63	
1	0	0	0	0	513	63	
2	0	0	0	0	513	63	
3	0	0	0	0	513	63	
4	0	0	0	0	513	63	
5	0	0	0	0	512	63	
6	0	0	0	0	513	63	
7	0	0	0	0	514	63	
8	0	0	0	0	513	63	
9	0	0	0	0	512	63	
10	0	0	0	0	512	63	
11	0	0	0	0	512	63	
12	0	0	0	0	512	63	
13	0	0	0	0	512	63	
14	0	0	0	0	512	63	
15	0	0	0	0	511	63	
0	0	0	0	0	511	63	
1	0	0	0	0	511	64	
2	0	0	0	0	510	63	
3	0	0	0	0	510	63	
4	0	0	0	0	511	63	
5	0	0	0	0	511	63	
6	0	0	0	0	511	63	
7	0	0	0	0	510	63	
8	0	0	0	0	511	63	
9	0	0	0	0	510	63	
10	0	0	0	0	510	63	
11	0	0	0	0	511	63	
12	0	0	0	0	511	63	
13	0	0	0	0	511	63	
14	0	0	0	0	511	63	
15	0	0	0	0	511	63	
0	0	0	0	0	511	63	
1	0	0	0	0	510	63	
2	0	0	0	0	510	63	
3	0	0	0	0	509	63	
4	0	0	0	0	509	63	
5	0	0	0	0	508	63	
6	0	0	0	0	508	63	
7	0	0	0	0	507	63	
8	0	0	0	0	505	63	
9	0	0	0	0	504	63	
10	0	0	0	0	504	63	
11	0	0	0	0	504	63	
12	0	0	0	0	503	63	
13	0	0	0	0	502	63	
14	0	0	0	0	502	63	
15	0	0	0	0	501	63	
0	0	0	0	0	501	63	
1	0	0	0	0	501	63	
2	0	0	0	0	500	63	
3	0	0	0	0	500	64	
4	0	0	0	0	499	63	
5	0	0	0	0	499	63	
6	0	0	0	0	499	63	
7	0	0	0	0	498	63	
8	0	0	0	0	498	63	
9	0	0	0	0	498	64	
10	0	0	0	0	499	63	
11	0	0	0	0	499	63	
12	0	0	0	0	500	63	
13	0	0	0	0	500	63	
14	0	0	0	0	500	63	
15	0	0	0	0	499	63	
0	0	0	0	0	499	63	
1	0	0	0	0	499	63	
2	0	0	0	0	500	63	
3	0	0	0	0	501	64	
4	0	0	0	0	500	63	
5	0	0	0	0	499	63	
6	0	0	0	0	499	63	
7	0	0	0	0	498	63	
8	0	0	0	0	498	63	
9	0	0	0	0	499	63	
10	0	0	0	0	499	63	
11	0	0	0	0	500	63	
12	0	0	0	0	501	63	
13	0	0	0	0	501	63	
14	0	0	0	0	502	63	
15	0	0	0	0	502	63	
0	0	0	0	0	504	63	
1	0	0	0	0	504	63	
2	0	0	0	0	504	64	
3	0	0	0	0	503	63	
4	0	0	0	0	503	63	
5	0	0	0	0	502	63	
6	0	0	0	0	502	63	
7	0	0	0	0	502	63	
8	0	0	0	0	501	63	
9	0	0	0	0	500	63	
10	0	0	0	0	499	63	
11	0	0	0	0	500	63	
12	0	0	0	0	499	63	
13	0	0	0	0	499	63	
14	0	0	0	0	500	63	
15	0	0	0	0	500	63	
0	0	0	0	0	501	63	
1	0	0	0	0	502	63	
2	0	0	0	0	502	63	
3	0	0	0	0	500	64	
4	0	0	0	0	499	63	
5	0	0	0	0	499	63	
6	0	0	0	0	497	63	
7	0	0	0	0	496	63	
8	0	0	0	0	496	63	
9	0	0	0	0	496	63	
10	0	0	0	0	496	63	
11	0	0	0	0	497	63	
12	0	0	0	0	497	63	
13	0	0	0	0	496	63	
14	0	0	0	0	496	63	
15	0	0	0	0	496	63	
0	0	0	0	0	495	63	
1	0	0	0	0	496	63	
2	0	0	0	0	496	63	
3	0	0	0	0	497	63	
4	0	0	0	0	497	63	
5	0	0	0	0	497	64	
6	0	0	0	0	497	63	
7	0	0	0	0	496	63	
8	0	0	0	0	496	63	
9	0	0	0	0	496	63	
10	0	0	0	0	496	64	
11	0	0	0	0	495	63	
12	0	0	0	0	495	63	
13	0	0	0	0	496	63	
14	0	0	0	0	496	63	
15	0	0	0	0	496	63	
0	0	0	0	0	497	63	
1	0	0	0	0	497	63	
2	0	0	0	0	497	64	
3	0	0	0	0	498	63	
4	0	0	0	0	497	63	
5	0	0	0	0	496	63	
6	0	0	0	0	496	63	
7	0	0	0	0	497	63	
8	0	0	0	0	497	63	
9	0	0	0	0	498	63	
10	0	0	0	0	497	63	
11	0	0	0	0	497	63	
12	0	0	0	0	498	63	
13	0	0	0	0	499	63	
14	0	0	0	0	500	63	
15	0	0	0	0	501	63	
0	0	0	0	0	500	63	
1	0	0	0	0	500	63	
2	0	0	0	0	501	63	
3	0	0	0	0	502	63	
4	0	0	0	0	502	63	
5	0	0	0	0	502	63	
6	0	0	0	0	500	63	
7	0	0	0	0	500	63	
8	0	0	0	0	499	63	
9	0	0	0	0	498	63	
10	0	0	0	0	498	63	
11	0	0	0	0	497	63	
12	0	0	0	0	499	63	
13	0	0	0	0	499	63	
14	0	0	0	0	500	63	
15	0	0	0	0	500	63	
0	0	0	0	0	501	63	
1	0	0	0	0	502	63	
2	0	0	0	0	502	63	
3	0	0	0	0	504	63	
4	0	0	0	0	504	64	
5	0	0	0	0	504	63	
6	0	0	0	0	504	63	
7	0	0	0	0	505	63	
8	0	0	0	0	505	63	
9	0	0	0	0	505	63	
10	0	0	0	0	505	63	
11	0	0	0	0	505	63	
12	0	0	0	0	504	63	
13	0	0	0	0	505	63	
14	0	0	0	0	504	63	
15	0	0	0	0	504	63	
0	0	0	0	0	505	63	
1	0	0	0	0	505	63	
2	0	0	0	0	506	63	
3	0	0	0	0	506	63	
4	0	0	0	0	506	63	
5	0	0	0	0	507	63	
6	0	0	0	0	507	63	
7	0	0	0	0	508	63	
8	0	0	0	0	507	64	
9	0	0	0	0	507	63	
10	0	0	0	0	507	63	
11	0	0	0	0	506	63	
12	0	0	0	0	505	63	
13	0	0	0	0	506	63	
14	0	0	0	0	506	63	
15	0	0	0	0	507	63	
0	0	0	0	0	507	63	
1	0	0	0	0	508	63	
2	0	0	0	0	508	63	
3	0	0	0	0	509	63	
4	0	0	0	0	511	63	
5	0	0	0	0	512	63	
6	0	0	0	0	512	63	
7	0	0	0	0	511	63	
8	0	0	0	0	510	63	
9	0	0	0	0	510	63	
10	0	0	0	0	509	63	
11	0	0	0	0	508	63	
12	0	0	0	0	507	63	
13	0	0	0	0	507	63	
14	0	0	0	0	508	63	
15	0	0	0	0	508	63	
0	0	0	0	0	510	63	
1	0	0	0	0	511	63	
2	0	0	0	0	512	63	
3	0	0	0	0	512	63	
4	0	0	0	0	512	63	
5	0	0	0	0	512	63	
6	0	0	0	0	512	63	
7	0	0	0	0	512	63	
8	0	0	0	0	512	63	
9	0	0	0	0	511	64	
10	0	0	0	0	511	63	
11	0	0	0	0	511	63	
12	0	0	0	0	511	63	
13	0	0	0	0	510	64	
14	0	0	0	0	509	63	
15	0	0	0	0	508	63	
0	0	0	0	0	509	63	
1	0	0	0	0	510	63	
2	0	0	0	0	510	63	
3	0	0	0	0	510	63	
4	0	0	0	0	512	63	
5	0	0	0	0	513	63	
6	0	0	0	0	514	63	
7	0	0	0	0	516	63	
8	0	0	0	0	516	63	
9	0	0	0	0	517	64	
10	0	0	0	0	518	63	
11	0	0	0	0	516	63	
12	0	0	0	0	515	63	
13	0	0	0	0	514	63	
14	0	0	0	0	514	63	
15	0	0	0	0	514	63	
0	0	0	0	0	514	63	
1	0	0	0	0	515	63	
2	0	0	0	0	515	63	
3	0	0	0	0	516	63	
4	0	0	0	0	516	63	
5	0	0	0	0	516	63	
6	0	0	0	0	517	63	
7	0	0	0	0	515	63	
8	0	0	0	0	515	63	
9	0	0	0	0	514	63	
10	0	0	0	0	514	63	
11	0	0	0	0	514	63	
12	0	0	0	0	513	63	
13	0	0	0	0	512	64	
14	0	0	0	0	512	63	
15	0	0	0	0	511	63	
0	0	0	0	0	511	63	
1	0	0	0	0	512	63	
2	0	0	0	0	512	63	
3	0	0	0	0	511	63	
4	0	0	0	0	512	63	
5	0	0	0	0	512	63	
6	0	0	0	0	513	63	
7	0	0	0	0	513	63	
8	0	0	0	0	512	63	
9	0	0	0	0	512	63	
10	0	0	0	0	512	64	
11	0	0	0	0	512	63	
12	0	0	0	0	512	63	
13	0	0	0	0	511	63	
14	0	0	0	0	510	63	
15	0	0	0	0	511	63	
0	0	0	0	0	510	63	
1	0	0	0	0	510	63	
2	0	0	0	0	511	63	
3	0	0	0	0	510	63	
4	0	0	0	0	511	63	
5	0	0	0	0	511	63	
6	0	0	0	0	511	63	
7	0	0	0	0	511	63	
8	0	0	0	0	512	63	
9	0	0	0	0	512	63	
10	0	0	0	0	512	63	
11	0	0	0	0	512	63	
12	0	0	0	0	512	63	
13	0	0	0	0	512	63	
14	0	0	0	0	512	63	
15	0	0	0	0	511	63	
0	0	0	0	0	510	63	
1	0	0	0	0	509	63	
2	0	0	0	0	508	63	
3	0	0	0	0	508	63	
4	0	0	0	0	507	63	
5	0	0	0	0	507	63	
6	0	0	0	0	507	63	
7	0	0	0	0	507	63	
8	0	0	0	0	507	63	
9	0	0	0	0	506	63	
10	0	0	0	0	507	63	
11	0	0	0	0	507	63	
12	0	0	0	0	507	64	
13	0	0	0	0	506	63	
14	0	0	0	0	505	63	
15	0	0	0	0	505	63	
0	0	0	0	0	504	63	
1	0	0	0	0	504	63	
2	0	0	0	0	504	63	
3	0	0	0	0	504	63	
4	0	0	0	0	504	63	
5	0	0	0	0	504	63	
6	0	0	0	0	504	63	
7	0	0	0	0	503	63	
8	0	0	0	0	500	63	
9	0	0	0	0	500	63	
10	0	0	0	0	500	63	
11	0	0	0	0	500	63	
12	0	0	0	0	499	63	
13	0	0	0	0	499	64	
14	0	0	0	0	499	63	
15	0	0	0	0	498	63	
0	0	0	0	0	497	63	
1	0	0	0	0	496	63	
2	0	0	0	0	497	63	
3	0	0	0	0	497	63	
4	0	0	0	0	498	63	
5	0	0	0	0	499	63	
6	0	0	0	0	500	63	
7	0	0	0	0	500	63	
8	0	0	0	0	500	63	
9	0	0	0	0	501	63	
10	0	0	0	0	500	63	
11	0	0	0	0	500	63	
12	0	0	0	0	500	63	
13	0	0	0	0	499	63	
14	0	0	0	0	499	63	
15	0	0	0	0	498	63	
0	0	0	0	0	498	63	
1	0	0	0	0	498	63	
2	0	0	0	0	499	63	
3	0	0	0	0	499	63	
4	0	0	0	0	498	63	
5	0	0	0	0	499	63	
6	0	0	0	0	499	63	
7	0	0	0	0	499	63	
8	0	0	0	0	499	63	
9	0	0	0	0	499	63	
10	0	0	0	0	498	63	
11	0	0	0	0	499	63	
12	0	0	0	0	499	63	
13	0	0	0	0	500	63	
14	0	0	0	0	500	63	
15	0	0	0	0	500	63	
0	0	0	0	0	499	63	
1	0	0	0	0	498	63	
2	0	0	0	0	498	63	
3	0	0	0	0	497	63	
4	0	0	0	0	498	63	
5	0	0	0	0	499	63	
6	0	0	0	0	500	63	
7	0	0	0	0	499	63	
8	0	0	0	0	499	63	
9	0	0	0	0	499	63	
10	0	0	0	0	500	63	
11	0	0	0	0	500	63	
12	0	0	0	0	499	63	
13	0	0	0	0	499	63	
14	0	0	0	0	498	63	
15	0	0	0	0	497	63	
0	0	0	0	0	497	63	
1	0	0	0	0	496	63	
2	0	0	0	0	495	63	
3	0	0	0	0	494	63	
4	0	0	0	0	491	63	
5	0	0	0	0	489	63	
6	0	0	0	0	489	63	
7	0	0	0	0	489	63	
8	0	0	0	0	489	63	
9	0	0	0	0	489	63	
10	0	0	0	0	491	63	
11	0	0	0	0	492	63	
12	0	0	0	0	493	63	
13	0	0	0	0	494	63	
14	0	0	0	0	495	63	
15	0	0	0	0	495	63	
0	0	0	0	0	495	63	
1	0	0	0	0	494	64	
2	0	0	0	0	495	63	
3	0	0	0	0	495	63	
4	0	0	0	0	495	63	
5	0	0	0	0	495	63	
6	0	0	0	0	495	63	
7	0	0	0	0	497	63	
8	0	0	0	0	497	63	
9	0	0	0	0	497	63	
10	0	0	0	0	498	63	
11	0	0	0	0	498	64	
12	0	0	0	0	499	63	
13	0	0	0	0	499	63	
14	0	0	0	0	499	63	
15	0	0	0	0	499	63	
0	0	0	0	0	499	63	
1	0	0	0	0	499	63	
2	0	0	0	0	498	63	
3	0	0	0	0	497	63	
4	0	0	0	0	497	64	
5	0	0	0	0	497	63	
6	0	0	0	0	498	63	
7	0	0	0	0	497	63	
8	0	0	0	0	497	63	
9	0	0	0	0	498	63	
10	0	0	0	0	499	63	
11	0	0	0	0	500	63	
12	0	0	0	0	502	63	
13	0	0	0	0	502	63	
14	0	0	0	0	503	63	
15	0	0	0	0	504	63	
0	0	0	0	0	504	63	
1	0	0	0	0	504	63	
2	0	0	0	0	504	63	
3	0	0	0	0	503	63	
4	0	0	0	0	503	63	
5	0	0	0	0	503	63	
6	0	0	0	0	503	63	
7	0	0	0	0	504	63	
8	0	0	0	0	503	63	
9	0	0	0	0	503	63	
10	0	0	0	0	503	63	
11	0	0	0	0	503	63	
12	0	0	0	0	504	63	
13	0	0	0	0	504	63	
14	0	0	0	0	505	63	
15	0	0	0	0	505	63	
0	0	0	0	0	506	63	
1	0	0	0	0	507	63	
2	0	0	0	0	508	63	
3	0	0	0	0	509	63	
4	0	0	0	0	509	63	
5	0	0	0	0	508	63	
6	0	0	0	0	508	63	
7	0	0	0	0	508	63	
8	0	0	0	0	508	63	
9	0	0	0	0	508	63	
10	0	0	0	0	509	63	
11	0	0	0	0	509	63	
12	0	0	0	0	510	63	
13	0	0	0	0	510	63	
14	0	0	0	0	510	63	
15	0	0	0	0	510	63	
0	0	0	0	0	509	63	
1	0	0	0	0	509	63	
2	0	0	0	0	509	63	
3	0	0	0	0	510	63	
4	0	0	0	0	509	63	
5	0	0	0	0	508	63	
6	0	0	0	0	508	63	
7	0	0	0	0	508	63	
8	0	0	0	0	508	63	
9	0	0	0	0	508	63	
10	0	0	0	0	508	63	
11	0	0	0	0	508	63	
12	0	0	0	0	508	63	
13	0	0	0	0	509	63	
14	0	0	0	0	509	63	
15	0	0	0	0	510	63	
0	0	0	0	0	510	63	
1	0	0	0	0	510	64	
2	0	0	0	0	510	63	
3	0	0	0	0	510	63	
4	0	0	0	0	510	63	
5	0	0	0	0	509	63	
6	0	0	0	0	508	63	
7	0	0	0	0	509	63	
8	0	0	0	0	508	63	
9	0	0	0	0	508	63	
10	0	0	0	0	509	63	
11	0	0	0	0	510	63	
12	0	0	0	0	510	63	
13	0	0	0	0	510	63	
14	0	0	0	0	511	63	
15	0	0	0	0	511	63	
0	0	0	0	0	512	63	
1	0	0	0	0	512	63	
2	0	0	0	0	513	63	
3	0	0	0	0	513	63	
4	0	0	0	0	513	63	
5	0	0	0	0	511	63	
6	0	0	0	0	512	63	
7	0	0	0	0	512	63	
8	0	0	0	0	510	63	
9	0	0	0	0	509	63	
10	0	0	0	0	508	63	
11	0	0	0	0	509	63	
12	0	0	0	0	509	63	
13	0	0	0	0	509	63	
14	0	0	0	0	510	63	
15	0	0	0	0	510	63	
0	0	0	0	0	510	63	
1	0	0	0	0	508	63	
2	0	0	0	0	508	63	
3	0	0	0	0	509	63	
4	0	0	0	0	508	63	
5	0	0	0	0	509	63	
6	0	0	0	0	510	63	
7	0	0	0	0	510	63	
8	0	0	0	0	509	63	
9	0	0	0	0	508	63	
10	0	0	0	0	509	63	
11	0	0	0	0	509	63	
12	0	0	0	0	510	63	
13	0	0	0	0	510	63	
14	0	0	0	0	511	63	
15	0	0	0	0	511	63	
0	0	0	0	0	511	63	
1	0	0	0	0	510	64	
2	0	0	0	0	508	63	
3	0	0	0	0	505	63	
4	0	0	0	0	503	63	
5	0	0	0	0	501	63	
6	0	0	0	0	499	63	
7	0	0	0	0	496	63	
8	0	0	0	0	492	63	
9	0	0	0	0	490	63	
10	0	0	0	0	489	63	
11	0	0	0	0	489	63	
12	0	0	0	0	488	63	
13	0	0	0	0	487	63	
14	0	0	0	0	487	63	
15	0	0	0	0	484	63	
0	0	0	0	0	483	63	
1	0	0	0	0	482	63	
2	0	0	0	0	480	63	
3	0	0	0	0	481	63	
4	0	0	0	0	482	63	
5	0	0	0	0	483	63	
6	0	0	0	0	484	63	
7	0	0	0	0	486	63	
8	0	0	0	0	487	63	
9	0	0	0	0	489	64	
10	0	0	0	0	489	63	
11	0	0	0	0	491	63	
12	0	0	0	0	492	63	
13	0	0	0	0	492	63	
14	0	0	0	0	492	63	
15	0	0	0	0	491	63	
0	0	0	0	0	491	63	
1	0	0	0	0	490	63	
2	0	0	0	0	490	63	
3	0	0	0	0	490	63	
4	0	0	0	0	492	63	
5	0	0	0	0	495	63	
6	0	0	0	0	497	63	
7	0	0	0	0	500	63	
8	0	0	0	0	501	63	
9	0	0	0	0	504	63	
10	0	0	0	0	507	63	
11	0	0	0	0	509	63	
12	0	0	0	0	511	63	
13	0	0	0	0	513	63	
14	0	0	0	0	515	63	
15	0	0	0	0	518	63	
0	0	0	0	0	519	63	
1	0	0	0	0	521	63	
2	0	0	0	0	523	63	
3	0	0	0	0	524	63	
4	0	0	0	0	526	63	
5	0	0	0	0	526	63	
6	0	0	0	0	526	63	
7	0	0	0	0	526	63	
8	0	0	0	0	527	63	
9	0	0	0	0	527	63	
10	0	0	0	0	527	63	
11	0	0	0	0	527	63	
12	0	0	0	0	525	63	
13	0	0	0	0	526	63	
14	0	0	0	0	526	63	
15	0	0	0	0	526	63	
0	0	0	0	0	525	63	
1	0	0	0	0	524	63	
2	0	0	0	0	524	63	
3	0	0	0	0	523	63	
4	0	0	0	0	524	63	
5	0	0	0	0	523	63	
6	0	0	0	0	522	63	
7	0	0	0	0	522	63	
8	0	0	0	0	520	63	
9	0	0	0	0	519	63	
10	0	0	0	0	519	63	
11	0	0	0	0	518	63	
12	0	0	0	0	516	63	
13	0	0	0	0	516	63	
14	0	0	0	0	516	63	
15	0	0	0	0	517	63	
0	0	0	0	0	516	63	
1	0	0	0	0	515	63	
2	0	0	0	0	515	63	
3	0	0	0	0	514	63	
4	0	0	0	0	515	63	
5	0	0	0	0	514	63	
6	0	0	0	0	514	63	
7	0	0	0	0	514	63	
8	0	0	0	0	514	63	
9	0	0	0	0	513	63	
10	0	0	0	0	513	63	
11	0	0	0	0	512	63	
12	0	0	0	0	512	63	
13	0	0	0	0	512	63	
14	0	0	0	0	512	63	
15	0	0	0	0	512	63	
0	0	0	0	0	511	63	
1	0	0	0	0	512	63	
2	0	0	0	0	512	63	
3	0	0	0	0	512	63	
4	0	0	0	0	513	63	
5	0	0	0	0	513	63	
6	0	0	0	0	514	63	
7	0	0	0	0	514	63	
8	0	0	0	0	513	63	
9	0	0	0	0	514	63	
10	0	0	0	0	513	63	
11	0	0	0	0	512	63	
12	0	0	0	0	511	63	
13	0	0	0	0	511	63	
14	0	0	0	0	511	63	
15	0	0	0	0	511	63	
0	0	0	0	0	511	63	
1	0	0	0	0	511	63	
2	0	0	0	0	512	63	
3	0	0	0	0	512	63	
4	0	0	0	0	513	63	
5	0	0	0	0	513	63	
6	0	0	0	0	512	63	
7	0	0	0	0	512	63	
8	0	0	0	0	512	63	
9	0	0	0	0	513	63	
10	0	0	0	0	512	63	
11	0	0	0	0	512	63	
12	0	0	0	0	511	63	
13	0	0	0	0	510	63	
14	0	0	0	0	510	63	
15	0	0	0	0	511	63	
0	0	0	0	0	511	63	
1	0	0	0	0	512	63	
2	0	0	0	0	512	63	
3	0	0	0	0	511	63	
4	0	0	0	0	511	63	
5	0	0	0	0	512	63	
6	0	0	0	0	512	63	
7	0	0	0	0	512	63	
8	0	0	0	0	511	63	
9	0	0	0	0	511	63	
10	0	0	0	0	511	63	
11	0	0	0	0	510	63	
12	0	0	0	0	509	63	
13	0	0	0	0	508	63	
14	0	0	0	0	507	63	
15	0	0	0	0	508	63	
0	0	0	0	0	508	63	
1	0	0	0	0	508	63	
2	0	0	0	0	509	63	
3	0	0	0	0	509	63	
4	0	0	0	0	509	63	
5	0	0	0	0	509	63	
6	0	0	0	0	510	63	
7	0	0	0	0	509	63	
8	0	0	0	0	509	63	
9	0	0	0	0	508	63	
10	0	0	0	0	508	63	
11	0	0	0	0	509	63	
12	0	0	0	0	510	63	
13	0	0	0	0	509	63	
14	0	0	0	0	508	63	
15	0	0	0	0	508	63	
0	0	0	0	0	508	63	
1	0	0	0	0	508	63	
2	0	0	0	0	508	63	
3	0	0	0	0	509	63	
4	0	0	0	0	509	63	
5	0	0	0	0	508	63	
6	0	0	0	0	510	63	
7	0	0	0	0	510	63	
8	0	0	0	0	510	63	
9	0	0	0	0	510	63	
10	0	0	0	0	510	63	
11	0	0	0	0	510	63	
12	0	0	0	0	510	63	
13	0	0	0	0	508	63	
14	0	0	0	0	509	63	
15	0	0	0	0	508	63	
0	0	0	0	0	508	63	
1	0	0	0	0	507	63	
2	0	0	0	0	507	63	
3	0	0	0	0	508	63	
4	0	0	0	0	508	63	
5	0	0	0	0	508	63	
6	0	0	0	0	508	63	
7	0	0	0	0	508	63	
8	0	0	0	0	508	63	
9	0	0	0	0	508	63	
10	0	0	0	0	508	63	
11	0	0	0	0	508	63	
12	0	0	0	0	508	63	
13	0	0	0	0	508	63	
14	0	0	0	0	508	63	
15	0	0	0	0	508	63	
0	0	0	0	0	507	63	
1	0	0	0	0	505	63	
2	0	0	0	0	505	63	
3	0	0	0	0	504	63	
4	0	0	0	0	504	63	
5	0	0	0	0	504	63	
6	0	0	0	0	504	63	
7	0	0	0	0	505	63	
8	0	0	0	0	504	63	
9	0	0	0	0	504	63	
10	0	0	0	0	503	63	
11	0	0	0	0	502	63	
12	0	0	0	0	502	63	
13	0	0	0	0	502	63	
14	0	0	0	0	500	63	
15	0	0	0	0	499	63	
0	0	0	0	0	498	63	
1	0	0	0	0	497	63	
2	0	0	0	0	497	63	
3	0	0	0	0	496	63	
4	0	0	0	0	496	63	
5	0	0	0	0	496	63	
6	0	0	0	0	496	63	
7	0	0	0	0	496	63	
8	0	0	0	0	496	63	
9	0	0	0	0	497	63	
10	0	0	0	0	497	63	
11	0	0	0	0	498	63	
12	0	0	0	0	498	63	
13	0	0	0	0	497	63	
14	0	0	0	0	496	63	
15	0	0	0	0	496	63	
0	0	0	0	0	496	63	
1	0	0	0	0	495	63	
2	0	0	0	0	495	63	
3	0	0	0	0	495	63	
4	0	0	0	0	495	63	
5	0	0	0	0	494	63	
6	0	0	0	0	494	63	
7	0	0	0	0	494	63	
8	0	0	0	0	493	63	
9	0	0	0	0	493	63	
10	0	0	0	0	493	63	
11	0	0	0	0	492	63	
12	0	0	0	0	491	64	
13	0	0	0	0	491	63	
14	0	0	0	0	490	63	
15	0	0	0	0	491	63	
0	0	0	0	0	490	63	
1	0	0	0	0	489	63	
2	0	0	0	0	488	63	
3	0	0	0	0	487	63	
4	0	0	0	0	488	63	
5	0	0	0	0	488	63	
6	0	0	0	0	488	63	
7	0	0	0	0	489	63	
8	0	0	0	0	488	63	
9	0	0	0	0	488	63	
10	0	0	0	0	487	63	
11	0	0	0	0	487	63	
12	0	0	0	0	487	63	
13	0	0	0	0	486	63	
14	0	0	0	0	487	63	
15	0	0	0	0	486	63	
0	0	0	0	0	487	63	
1	0	0	0	0	486	63	
2	0	0	0	0	486	63	
3	0	0	0	0	486	63	
4	0	0	0	0	486	63	
5	0	0	0	0	486	63	
6	0	0	0	0	487	63	
7	0	0	0	0	487	63	
8	0	0	0	0	487	63	
9	0	0	0	0	487	63	
10	0	0	0	0	487	63	
11	0	0	0	0	488	63	
12	0	0	0	0	488	63	
13	0	0	0	0	489	63	
14	0	0	0	0	489	63	
15	0	0	0	0	488	63	
0	0	0	0	0	488	64	
1	0	0	0	0	487	63	
2	0	0	0	0	490	63	
3	0	0	0	0	489	63	
4	0	0	0	0	490	63	
5	0	0	0	0	489	63	
6	0	0	0	0	489	63	
7	0	0	0	0	490	63	
8	0	0	0	0	491	63	
9	0	0	0	0	492	63	
10	0	0	0	0	493	63	
11	0	0	0	0	494	63	
12	0	0	0	0	495	63	
13	0	0	0	0	497	63	
14	0	0	0	0	497	63	
15	0	0	0	0	499	63	
0	0	0	0	0	499	63	
1	0	0	0	0	500	63	
2	0	0	0	0	500	63	
3	0	0	0	0	500	63	
4	0	0	0	0	501	63	
5	0	0	0	0	501	63	
6	0	0	0	0	502	63	
7	0	0	0	0	502	63	
8	0	0	0	0	503	63	
9	0	0	0	0	504	63	
10	0	0	0	0	506	63	
11	0	0	0	0	508	63	
12	0	0	0	0	508	63	
13	0	0	0	0	509	63	
14	0	0	0	0	511	63	
15	0	0	0	0	512	63	
0	0	0	0	0	514	63	
1	0	0	0	0	515	63	
2	0	0	0	0	514	63	
3	0	0	0	0	514	63	
4	0	0	0	0	515	63	
5	0	0	0	0	515	63	
6	0	0	0	0	516	63	
7	0	0	0	0	517	63	
8	0	0	0	0	519	63	
9	0	0	0	0	519	63	
10	0	0	0	0	519	63	
11	0	0	0	0	519	63	
12	0	0	0	0	519	63	
13	0	0	0	0	520	63	
14	0	0	0	0	520	63	
15	0	0	0	0	521	63	
0	0	0	0	0	522	63	
1	0	0	0	0	522	63	
2	0	0	0	0	522	63	
3	0	0	0	0	522	63	
4	0	0	0	0	523	63	
5	0	0	0	0	523	63	
6	0	0	0	0	524	63	
7	0	0	0	0	524	63	
8	0	0	0	0	524	63	
9	0	0	0	0	524	63	
10	0	0	0	0	524	63	
11	0	0	0	0	524	63	
12	0	0	0	0	525	63	
13	0	0	0	0	524	63	
14	0	0	0	0	524	63	
15	0	0	0	0	524	63	
0	0	0	0	0	526	63	
1	0	0	0	0	526	63	
2	0	0	0	0	525	63	
3	0	0	0	0	526	62	
4	0	0	0	0	525	63	
5	0	0	0	0	524	63	
6	0	0	0	0	523	63	
7	0	0	0	0	521	63	
8	0	0	0	0	520	62	
9	0	0	0	0	519	63	
10	0	0	0	0	520	63	
11	0	0	0	0	519	63	
12	0	0	0	0	519	63	
13	0	0	0	0	519	63	
14	0	0	0	0	519	63	
15	0	0	0	0	518	63	
0	0	0	0	0	518	63	
1	0	0	0	0	517	63	
2	0	0	0	0	517	63	
3	0	0	0	0	516	63	
4	0	0	0	0	515	63	
5	0	0	0	0	513	63	
6	0	0	0	0	512	63	
7	0	0	0	0	512	63	
8	0	0	0	0	511	63	
9	0	0	0	0	511	63	
10	0	0	0	0	512	63	
11	0	0	0	0	512	63	
12	0	0	0	0	512	63	
13	0	0	0	0	512	63	
14	0	0	0	0	512	63	
15	0	0	0	0	513	63	
0	0	0	0	0	515	63	
1	0	0	0	0	516	63	
2	0	0	0	0	515	63	
3	0	0	0	0	516	63	
4	0	0	0	0	515	63	
5	0	0	0	0	514	63	
6	0	0	0	0	513	63	
7	0	0	0	0	512	63	
8	0	0	0	0	511	63	
9	0	0	0	0	511	63	
10	0	0	0	0	510	63	
11	0	0	0	0	510	63	
12	0	0	0	0	510	63	
13	0	0	0	0	510	63	
14	0	0	0	0	510	63	
15	0	0	0	0	510	63	
0	0	0	0	0	510	63	
1	0	0	0	0	509	63	
2	0	0	0	0	509	63	
3	0	0	0	0	509	63	
4	0	0	0	0	510	63	
5	0	0	0	0	510	63	
6	0	0	0	0	508	63	
7	0	0	0	0	507	63	
8	0	0	0	0	507	63	
9	0	0	0	0	507	63	
10	0	0	0	0	507	63	
11	0	0	0	0	507	63	
12	0	0	0	0	507	63	
13	0	0	0	0	508	63	
14	0	0	0	0	508	63	
15	0	0	0	0	508	63	
0	0	0	0	0	509	63	
1	0	0	0	0	509	63	
2	0	0	0	0	509	63	
3	0	0	0	0	508	64	
4	0	0	0	0	509	63	
5	0	0	0	0	509	63	
6	0	0	0	0	510	63	
7	0	0	0	0	509	63	
8	0	0	0	0	508	63	
9	0	0	0	0	508	63	
10	0	0	0	0	508	63	
11	0	0	0	0	508	63	
12	0	0	0	0	509	63	
13	0	0	0	0	510	63	
14	0	0	0	0	511	63	
15	0	0	0	0	513	63	
0	0	0	0	0	514	63	
1	0	0	0	0	513	63	
2	0	0	0	0	513	63	
3	0	0	0	0	515	63	
4	0	0	0	0	516	63	
5	0	0	0	0	517	63	
6	0	0	0	0	517	63	
7	0	0	0	0	516	63	
8	0	0	0	0	515	63	
9	0	0	0	0	514	63	
10	0	0	0	0	514	63	
11	0	0	0	0	513	62	
12	0	0	0	0	513	63	
13	0	0	0	0	513	63	
14	0	0	0	0	514	63	
15	0	0	0	0	515	63	
0	0	0	0	0	515	63	
1	0	0	0	0	515	63	
2	0	0	0	0	515	63	
3	0	0	0	0	515	63	
4	0	0	0	0	515	63	
5	0	0	0	0	516	63	
6	0	0	0	0	516	63	
7	0	0	0	0	515	63	
8	0	0	0	0	514	63	
9	0	0	0	0	513	63	
10	0	0	0	0	513	63	
11	0	0	0	0	512	63	
12	0	0	0	0	512	63	
13	0	0	0	0	512	63	
14	0	0	0	0	512	63	
15	0	0	0	0	512	63	
0	0	0	0	0	512	63	
1	0	0	0	0	513	63	
2	0	0	0	0	512	63	
3	0	0	0	0	513	63	
4	0	0	0	0	514	63	
5	0	0	0	0	514	63	
6	0	0	0	0	514	63	
7	0	0	0	0	514	63	
8	0	0	0	0	513	63	
9	0	0	0	0	513	63	
10	0	0	0	0	512	63	
11	0	0	0	0	512	63	
12	0	0	0	0	512	63	
13	0	0	0	0	512	63	
14	0	0	0	0	513	63	
15	0	0	0	0	514	63	
0	0	0	0	0	515	63	
1	0	0	0	0	515	63	
2	0	0	0	0	515	63	
3	0	0	0	0	516	63	
4	0	0	0	0	515	63	
5	0	0	0	0	515	63	
6	0	0	0	0	515	63	
7	0	0	0	0	515	63	
8	0	0	0	0	514	63	
9	0	0	0	0	512	63	
10	0	0	0	0	512	63	
11	0	0	0	0	512	63	
12	0	0	0	0	511	63	
13	0	0	0	0	510	63	
14	0	0	0	0	511	63	
15	0	0	0	0	511	63	
0	0	0	0	0	511	63	
1	0	0	0	0	512	63	
2	0	0	0	0	512	63	
3	0	0	0	0	511	63	
4	0	0	0	0	511	63	
5	0	0	0	0	511	63	
6	0	0	0	0	512	63	
7	0	0	0	0	511	63	
8	0	0	0	0	512	63	
9	0	0	0	0	512	63	
10	0	0	0	0	512	63	
11	0	0	0	0	513	63	
12	0	0	0	0	512	63	
13	0	0	0	0	513	63	
14	0	0	0	0	513	63	
15	0	0	0	0	513	63	
0	0	0	0	0	513	63	
1	0	0	0	0	513	63	
2	0	0	0	0	513	63	
3	0	0	0	0	513	63	
4	0	0	0	0	513	63	
5	0	0	0	0	513	63	
6	0	0	0	0	513	63	
7	0	0	0	0	513	63	
8	0	0	0	0	513	63	
9	0	0	0	0	513	63	
10	0	0	0	0	514	63	
11	0	0	0	0	514	63	
12	0	0	0	0	513	63	
13	0	0	0	0	513	63	
14	0	0	0	0	512	63	
15	0	0	0	0	513	63	
0	0	0	0	0	513	63	
1	0	0	0	0	514	63	
2	0	0	0	0	515	63	
3	0	0	0	0	514	63	
4	0	0	0	0	515	63	
5	0	0	0	0	515	63	
6	0	0	0	0	516	63	
7	0	0	0	0	517	63	
8	0	0	0	0	516	63	
9	0	0	0	0	516	63	
10	0	0	0	0	515	63	
11	0	0	0	0	515	63	
12	0	0	0	0	515	63	
13	0	0	0	0	515	63	
14	0	0	0	0	515	63	
15	0	0	0	0	514	63	
0	0	0	0	0	513	63	
1	0	0	0	0	513	63	
2	0	0	0	0	513	63	
3	0	0	0	0	514	63	
4	0	0	0	0	514	63	
5	0	0	0	0	514	63	
6	0	0	0	0	514	63	
7	0	0	0	0	513	63	
8	0	0	0	0	514	63	
9	0	0	0	0	515	63	
10	0	0	0	0	514	63	
11	0	0	0	0	514	63	
12	0	0	0	0	513	63	
13	0	0	0	0	512	63	
14	0	0	0	0	512	63	
15	0	0	0	0	511	63	
0	0	0	0	0	512	63	
1	0	0	0	0	512	63	
2	0	0	0	0	513	63	
3	0	0	0	0	513	63	
4	0	0	0	0	514	63	
5	0	0	0	0	515	63	
6	0	0	0	0	515	63	
7	0	0	0	0	515	63	
8	0	0	0	0	516	63	
9	0	0	0	0	515	63	
10	0	0	0	0	516	63	
11	0	0	0	0	516	63	
12	0	0	0	0	515	63	
13	0	0	0	0	515	63	
14	0	0	0	0	514	63	
15	0	0	0	0	514	63	
0	0	0	0	0	515	63	
1	0	0	0	0	515	63	
2	0	0	0	0	515	63	
3	0	0	0	0	516	63	
4	0	0	0	0	518	63	
5	0	0	0	0	518	63	
6	0	0	0	0	518	63	
7	0	0	0	0	519	63	
8	0	0	0	0	519	63	
9	0	0	0	0	520	63	
10	0	0	0	0	519	63	
11	0	0	0	0	519	63	
12	0	0	0	0	518	63	
13	0	0	0	0	518	63	
14	0	0	0	0	518	63	
15	0	0	0	0	517	63	
0	0	0	0	0	516	63	
1	0	0	0	0	516	63	
2	0	0	0	0	516	63	
3	0	0	0	0	517	63	
4	0	0	0	0	517	63	
5	0	0	0	0	517	63	
6	0	0	0	0	517	63	
7	0	0	0	0	516	63	
8	0	0	0	0	516	63	
9	0	0	0	0	516	63	
10	0	0	0	0	517	63	
11	0	0	0	0	518	63	
12	0	0	0	0	518	63	
13	0	0	0	0	518	63	
14	0	0	0	0	517	63	
15	0	0	0	0	517	63	
0	0	0	0	0	517	63	
1	0	0	0	0	516	63	
2	0	0	0	0	517	63	
3	0	0	0	0	515	63	
4	0	0	0	0	515	63	
5	0	0	0	0	515	63	
6	0	0	0	0	515	63	
7	0	0	0	0	514	63	
8	0	0	0	0	514	63	
9	0	0	0	0	514	63	
10	0	0	0	0	515	63	
11	0	0	0	0	515	63	
12	0	0	0	0	515	63	
13	0	0	0	0	514	63	
14	0	0	0	0	513	63	
15	0	0	0	0	513	63	
0	0	0	0	0	512	63	
1	0	0	0	0	512	63	
2	0	0	0	0	512	63	
3	0	0	0	0	513	63	
4	0	0	0	0	512	63	
5	0	0	0	0	512	63	
6	0	0	0	0	512	63	
7	0	0	0	0	511	63	
8	0	0	0	0	511	63	
9	0	0	0	0	510	63	
10	0	0	0	0	511	63	
11	0	0	0	0	511	63	
12	0	0	0	0	510	63	
13	0	0	0	0	510	63	
14	0	0	0	0	510	63	
15	0	0	0	0	508	63	
0	0	0	0	0	508	63	
1	0	0	0	0	507	63	
2	0	0	0	0	508	63	
3	0	0	0	0	508	63	
4	0	0	0	0	508	63	
5	0	0	0	0	508	63	
6	0	0	0	0	508	63	
7	0	0	0	0	508	63	
8	0	0	0	0	508	63	
9	0	0	0	0	508	63	
10	0	0	0	0	509	63	
11	0	0	0	0	508	63	
12	0	0	0	0	508	63	
13	0	0	0	0	509	63	
14	0	0	0	0	510	63	
15	0	0	0	0	509	63	
0	0	0	0	0	508	63	
1	0	0	0	0	507	63	
2	0	0	0	0	507	63	
3	0	0	0	0	505	63	
4	0	0	0	0	506	63	
5	0	0	0	0	505	63	
6	0	0	0	0	506	63	
7	0	0	0	0	507	63	
8	0	0	0	0	507	63	
9	0	0	0	0	507	63	
10	0	0	0	0	506	63	
11	0	0	0	0	506	63	
12	0	0	0	0	506	63	
13	0	0	0	0	506	63	
14	0	0	0	0	506	63	
15	0	0	0	0	506	63	
0	0	0	0	0	505	63	
1	0	0	0	0	504	63	
2	0	0	0	0	503	63	
3	0	0	0	0	503	63	
4	0	0	0	0	502	63	
5	0	0	0	0	503	63	
6	0	0	0	0	503	63	
7	0	0	0	0	503	63	
8	0	0	0	0	504	63	
9	0	0	0	0	503	63	
10	0	0	0	0	503	63	
11	0	0	0	0	502	63	
12	0	0	0	0	500	63	
13	0	0	0	0	500	63	
14	0	0	0	0	500	63	
15	0	0	0	0	501	63	
0	0	0	0	0	499	63	
1	0	0	0	0	498	63	
2	0	0	0	0	499	63	
3	0	0	0	0	498	63	
4	0	0	0	0	499	63	
5	0	0	0	0	498	63	
6	0	0	0	0	498	63	
7	0	0	0	0	499	63	
8	0	0	0	0	499	63	
9	0	0	0	0	500	63	
10	0	0	0	0	500	63	
11	0	0	0	0	502	63	
12	0	0	0	0	503	63	
13	0	0	0	0	504	63	
14	0	0	0	0	504	63	
15	0	0	0	0	504	63	
0	0	0	0	0	504	63	
1	0	0	0	0	504	63	
2	0	0	0	0	504	63	
3	0	0	0	0	503	63	
4	0	0	0	0	502	63	
5	0	0	0	0	502	63	
6	0	0	0	0	501	63	
7	0	0	0	0	501	63	
8	0	0	0	0	501	63	
9	0	0	0	0	501	63	
10	0	0	0	0	502	63	
11	0	0	0	0	502	63	
12	0	0	0	0	503	63	
13	0	0	0	0	504	63	
14	0	0	0	0	504	63	
15	0	0	0	0	505	63	
0	0	0	0	0	505	63	
1	0	0	0	0	504	63	
2	0	0	0	0	505	63	
3	0	0	0	0	505	63	
4	0	0	0	0	505	63	
5	0	0	0	0	505	63	
6	0	0	0	0	504	63	
7	0	0	0	0	504	63	
8	0	0	0	0	504	63	
9	0	0	0	0	503	63	
10	0	0	0	0	503	63	
11	0	0	0	0	503	63	
12	0	0	0	0	504	63	
13	0	0	0	0	504	63	
14	0	0	0	0	505	63	
15	0	0	0	0	506	63	
0	0	0	0	0	506	63	
1	0	0	0	0	507	63	
2	0	0	0	0	508	63	
3	0	0	0	0	507	63	
4	0	0	0	0	507	63	
5	0	0	0	0	506	63	
6	0	0	0	0	505	63	
7	0	0	0	0	505	63	
8	0	0	0	0	504	63	
9	0	0	0	0	504	63	
10	0	0	0	0	504	63	
11	0	0	0	0	505	63	
12	0	0	0	0	505	63	
13	0	0	0	0	505	63	
14	0	0	0	0	505	63	
15	0	0	0	0	505	63	
0	0	0	0	0	505	63	
1	0	0	0	0	504	63	
2	0	0	0	0	503	63	
3	0	0	0	0	504	63	
4	0	0	0	0	503	63	
5	0	0	0	0	503	63	
6	0	0	0	0	503	63	
7	0	0	0	0	502	63	
8	0	0	0	0	502	63	
9	0	0	0	0	502	63	
10	0	0	0	0	503	63	
11	0	0	0	0	503	63	
12	0	0	0	0	503	63	
13	0	0	0	0	503	63	
14	0	0	0	0	502	63	
15	0	0	0	0	502	63	
0	0	0	0	0	502	63	
1	0	0	0	0	503	63	
2	0	0	0	0	502	63	
3	0	0	0	0	501	63	
4	0	0	0	0	500	63	
5	0	0	0	0	500	63	
6	0	0	0	0	498	63	
7	0	0	0	0	497	63	
8	0	0	0	0	497	63	
9	0	0	0	0	498	63	
10	0	0	0	0	498	63	
11	0	0	0	0	499	63	
12	0	0	0	0	500	63	
13	0	0	0	0	501	63	
14	0	0	0	0	502	63	
15	0	0	0	0	503	63	
0	0	0	0	0	503	63	
1	0	0	0	0	504	63	
2	0	0	0	0	504	63	
3	0	0	0	0	504	63	
4	0	0	0	0	504	63	
5	0	0	0	0	504	63	
6	0	0	0	0	503	63	
7	0	0	0	0	504	63	
8	0	0	0	0	504	63	
9	0	0	0	0	504	63	
10	0	0	0	0	505	63	
11	0	0	0	0	507	63	
12	0	0	0	0	507	63	
13	0	0	0	0	507	63	
14	0	0	0	0	507	63	
15	0	0	0	0	506	63	
0	0	0	0	0	507	63	
1	0	0	0	0	507	63	
2	0	0	0	0	507	63	
3	0	0	0	0	507	63	
4	0	0	0	0	507	63	
5	0	0	0	0	506	63	
6	0	0	0	0	505	63	
7	0	0	0	0	504	63	
8	0	0	0	0	504	63	
9	0	0	0	0	502	63	
10	0	0	0	0	502	63	
11	0	0	0	0	501	63	
12	0	0	0	0	502	63	
13	0	0	0	0	502	63	
14	0	0	0	0	502	63	
15	0	0	0	0	503	63	
0	0	0	0	0	502	63	
1	0	0	0	0	502	63	
2	0	0	0	0	502	63	
3	0	0	0	0	501	63	
4	0	0	0	0	501	63	
5	0	0	0	0	500	63	
6	0	0	0	0	499	63	
7	0	0	0	0	498	63	
8	0	0	0	0	498	63	
9	0	0	0	0	498	63	
10	0	0	0	0	498	63	
11	0	0	0	0	498	63	
12	0	0	0	0	498	63	
13	0	0	0	0	498	63	
14	0	0	0	0	498	63	
15	0	0	0	0	498	63	
0	0	0	0	0	498	63	
1	0	0	0	0	498	63	
2	0	0	0	0	499	63	
3	0	0	0	0	499	63	
4	0	0	0	0	499	63	
5	0	0	0	0	498	63	
6	0	0	0	0	498	63	
7	0	0	0	0	499	63	
8	0	0	0	0	499	63	
9	0	0	0	0	499	63	
10	0	0	0	0	499	63	
11	0	0	0	0	498	63	
12	0	0	0	0	498	63	
13	0	0	0	0	498	63	
14	0	0	0	0	498	63	
15	0	0	0	0	499	63	
0	0	0	0	0	499	63	
1	0	0	0	0	500	63	
2	0	0	0	0	500	63	
3	0	0	0	0	499	64	
4	0	0	0	0	499	63	
5	0	0	0	0	497	63	
6	0	0	0	0	498	63	
7	0	0	0	0	497	63	
8	0	0	0	0	495	63	
9	0	0	0	0	494	63	
10	0	0	0	0	495	63	
11	0	0	0	0	495	63	
12	0	0	0	0	496	63	
13	0	0	0	0	496	63	
14	0	0	0	0	496	63	
15	0	0	0	0	497	63	
0	0	0	0	0	496	63	
1	0	0	0	0	497	63	
2	0	0	0	0	497	63	
3	0	0	0	0	496	63	
4	0	0	0	0	496	63	
5	0	0	0	0	496	63	
6	0	0	0	0	495	63	
7	0	0	0	0	495	63	
8	0	0	0	0	493	63	
9	0	0	0	0	492	63	
10	0	0	0	0	492	63	
11	0	0	0	0	492	63	
12	0	0	0	0	491	63	
13	0	0	0	0	491	63	
14	0	0	0	0	491	63	
15	0	0	0	0	490	63	
0	0	0	0	0	491	63	
1	0	0	0	0	492	63	
2	0	0	0	0	492	63	
3	0	0	0	0	492	63	
4	0	0	0	0	492	63	
5	0	0	0	0	492	63	
6	0	0	0	0	492	63	
7	0	0	0	0	493	63	
8	0	0	0	0	493	63	
9	0	0	0	0	492	63	
10	0	0	0	0	493	64	
11	0	0	0	0	493	63	
12	0	0	0	0	493	63	
13	0	0	0	0	494	63	
14	0	0	0	0	494	63	
15	0	0	0	0	494	63	
0	0	0	0	0	494	63	
1	0	0	0	0	494	63	
2	0	0	0	0	495	63	
3	0	0	0	0	496	63	
4	0	0	0	0	497	63	
5	0	0	0	0	496	63	
6	0	0	0	0	497	63	
7	0	0	0	0	497	63	
8	0	0	0	0	496	63	
9	0	0	0	0	496	63	
10	0	0	0	0	496	63	
11	0	0	0	0	496	63	
12	0	0	0	0	496	63	
13	0	0	0	0	496	63	
14	0	0	0	0	496	63	
15	0	0	0	0	497	63	
0	0	0	0	0	497	63	
1	0	0	0	0	498	63	
2	0	0	0	0	498	63	
3	0	0	0	0	499	63	
4	0	0	0	0	499	63	
5	0	0	0	0	500	63	
6	0	0	0	0	501	63	
7	0	0	0	0	502	63	
8	0	0	0	0	503	63	
9	0	0	0	0	502	63	
10	0	0	0	0	502	64	
11	0	0	0	0	502	63	
12	0	0	0	0	502	63	
13	0	0	0	0	502	63	
14	0	0	0	0	502	63	
15	0	0	0	0	503	64	
0	0	0	0	0	504	63	
1	0	0	0	0	504	63	
2	0	0	0	0	504	63	
3	0	0	0	0	504	63	
4	0	0	0	0	505	63	
5	0	0	0	0	505	63	
6	0	0	0	0	504	63	
7	0	0	0	0	504	63	
8	0	0	0	0	504	64	
9	0	0	0	0	504	63	
10	0	0	0	0	504	63	
11	0	0	0	0	503	63	
12	0	0	0	0	503	63	
13	0	0	0	0	503	63	
14	0	0	0	0	501	63	
15	0	0	0	0	500	63	
0	0	0	0	0	499	63	
1	0	0	0	0	500	63	
2	0	0	0	0	501	63	
3	0	0	0	0	501	63	
4	0	0	0	0	502	63	
5	0	0	0	0	501	63	
6	0	0	0	0	502	63	
7	0	0	0	0	502	63	
8	0	0	0	0	503	63	
9	0	0	0	0	503	64	
10	0	0	0	0	500	63	
11	0	0	0	0	500	63	
12	0	0	0	0	499	63	
13	0	0	0	0	498	63	
14	0	0	0	0	498	63	
15	0	0	0	0	498	63	
0	0	0	0	0	497	64	
1	0	0	0	0	497	63	
2	0	0	0	0	497	63	
3	0	0	0	0	497	63	
4	0	0	0	0	498	64	
5	0	0	0	0	498	63	
6	0	0	0	0	497	63	
7	0	0	0	0	497	63	
8	0	0	0	0	497	64	
9	0	0	0	0	496	63	
10	0	0	0	0	496	63	
11	0	0	0	0	496	63	
12	0	0	0	0	495	63	
13	0	0	0	0	494	63	
14	0	0	0	0	494	63	
15	0	0	0	0	494	63	
0	0	0	0	0	494	63	
1	0	0	0	0	494	63	
2	0	0	0	0	494	63	
3	0	0	0	0	494	63	
4	0	0	0	0	493	63	
5	0	0	0	0	494	63	
6	0	0	0	0	494	63	
7	0	0	0	0	495	63	
8	0	0	0	0	496	63	
9	0	0	0	0	496	63	
10	0	0	0	0	496	63	
11	0	0	0	0	495	63	
12	0	0	0	0	495	64	
13	0	0	0	0	495	63	
14	0	0	0	0	494	63	
15	0	0	0	0	494	63	
0	0	0	0	0	495	63	
1	0	0	0	0	494	63	
2	0	0	0	0	494	64	
3	0	0	0	0	495	63	
4	0	0	0	0	496	63	
5	0	0	0	0	496	63	
6	0	0	0	0	497	63	
7	0	0	0	0	497	63	
8	0	0	0	0	498	63	
9	0	0	0	0	497	63	
10	0	0	0	0	497	63	
11	0	0	0	0	497	63	
12	0	0	0	0	497	63	
13	0	0	0	0	498	63	
14	0	0	0	0	497	63	
15	0	0	0	0	498	63	
0	0	0	0	0	499	63	
1	0	0	0	0	499	63	
2	0	0	0	0	500	63	
3	0	0	0	0	502	63	
4	0	0	0	0	502	63	
5	0	0	0	0	502	63	
6	0	0	0	0	500	63	
7	0	0	0	0	498	63	
8	0	0	0	0	497	64	
9	0	0	0	0	495	63	
10	0	0	0	0	494	63	
11	0	0	0	0	492	63	
12	0	0	0	0	489	63	
13	0	0	0	0	486	64	
14	0	0	0	0	483	63	
15	0	0	0	0	481	63	
0	0	0	0	0	480	63	
1	0	0	0	0	479	63	
2	0	0	0	0	477	63	
3	0	0	0	0	474	63	
4	0	0	0	0	472	64	
5	0	0	0	0	470	63	
6	0	0	0	0	470	63	
7	0	0	0	0	470	63	
8	0	0	0	0	470	64	
9	0	0	0	0	472	63	
10	0	0	0	0	474	63	
11	0	0	0	0	476	63	
12	0	0	0	0	478	63	
13	0	0	0	0	479	63	
14	0	0	0	0	480	63	
15	0	0	0	0	482	64	
0	0	0	0	0	483	63	
1	0	0	0	0	482	63	
2	0	0	0	0	482	63	
3	0	0	0	0	481	63	
4	0	0	0	0	480	63	
5	0	0	0	0	481	63	
6	0	0	0	0	480	63	
7	0	0	0	0	481	63	
8	0	0	0	0	483	63	
9	0	0	0	0	486	63	
10	0	0	0	0	488	63	
11	0	0	0	0	491	64	
12	0	0	0	0	493	63	
13	0	0	0	0	496	63	
14	0	0	0	0	498	63	
15	0	0	0	0	500	63	
0	0	0	0	0	503	63	
1	0	0	0	0	505	63	
2	0	0	0	0	507	63	
3	0	0	0	0	509	63	
4	0	0	0	0	512	63	
5	0	0	0	0	513	63	
6	0	0	0	0	515	63	
7	0	0	0	0	518	63	
8	0	0	0	0	519	63	
9	0	0	0	0	520	63	
10	0	0	0	0	521	63	
11	0	0	0	0	521	63	
12	0	0	0	0	521	63	
13	0	0	0	0	520	63	
14	0	0	0	0	520	63	
15	0	0	0	0	519	63	
0	0	0	0	0	518	63	
1	0	0	0	0	516	63	
2	0	0	0	0	515	63	
3	0	0	0	0	515	63	
4	0	0	0	0	512	63	
5	0	0	0	0	511	63	
6	0	0	0	0	510	63	
7	0	0	0	0	509	63	
8	0	0	0	0	508	63	
9	0	0	0	0	507	63	
10	0	0	0	0	505	63	
11	0	0	0	0	504	64	
12	0	0	0	0	503	63	
13	0	0	0	0	502	63	
14	0	0	0	0	501	63	
15	0	0	0	0	500	63	
0	0	0	0	0	500	63	
1	0	0	0	0	499	63	
2	0	0	0	0	497	63	
3	0	0	0	0	496	64	
4	0	0	0	0	494	63	
5	0	0	0	0	494	63	
6	0	0	0	0	494	63	
7	0	0	0	0	494	63	
8	0	0	0	0	494	63	
9	0	0	0	0	494	64	
10	0	0	0	0	494	63	
11	0	0	0	0	495	63	
12	0	0	0	0	496	63	
13	0	0	0	0	496	63	
14	0	0	0	0	496	63	
15	0	0	0	0	497	63	
0	0	0	0	0	496	63	
1	0	0	0	0	496	63	
2	0	0	0	0	496	64	
3	0	0	0	0	496	63	
4	0	0	0	0	495	63	
5	0	0	0	0	496	63	
6	0	0	0	0	496	63	
7	0	0	0	0	495	63	
8	0	0	0	0	495	63	
9	0	0	0	0	494	63	
10	0	0	0	0	495	63	
11	0	0	0	0	497	63	
12	0	0	0	0	498	63	
13	0	0	0	0	499	63	
14	0	0	0	0	499	63	
15	0	0	0	0	498	63	
0	0	0	0	0	498	63	
1	0	0	0	0	498	63	
2	0	0	0	0	498	64	
3	0	0	0	0	498	63	
4	0	0	0	0	498	63	
5	0	0	0	0	498	63	
6	0	0	0	0	497	63	
7	0	0	0	0	497	63	
8	0	0	0	0	496	63	
9	0	0	0	0	496	63	
10	0	0	0	0	496	63	
11	0	0	0	0	497	64	
12	0	0	0	0	497	63	
13	0	0	0	0	498	63	
14	0	0	0	0	497	63	
15	0	0	0	0	498	63	
0	0	0	0	0	497	63	
1	0	0	0	0	497	63	
2	0	0	0	0	498	63	
3	0	0	0	0	497	63	
4	0	0	0	0	497	63	
5	0	0	0	0	496	63	
6	0	0	0	0	496	63	
7	0	0	0	0	494	63	
8	0	0	0	0	494	63	
9	0	0	0	0	494	63	
10	0	0	0	0	495	63	
11	0	0	0	0	495	63	
12	0	0	0	0	494	63	
13	0	0	0	0	495	63	
14	0	0	0	0	494	63	
15	0	0	0	0	494	64	
0	0	0	0	0	494	63	
1	0	0	0	0	494	63	
2	0	0	0	0	493	63	
3	0	0	0	0	494	63	
4	0	0	0	0	493	63	
5	0	0	0	0	492	63	
6	0	0	0	0	492	63	
7	0	0	0	0	491	63	
8	0	0	0	0	490	63	
9	0	0	0	0	491	63	
10	0	0	0	0	492	63	
11	0	0	0	0	492	63	
12	0	0	0	0	494	63	
13	0	0	0	0	495	63	
14	0	0	0	0	495	63	
15	0	0	0	0	495	63	
0	0	0	0	0	496	64	
1	0	0	0	0	496	63	
2	0	0	0	0	496	63	
3	0	0	0	0	496	63	
4	0	0	0	0	496	64	
5	0	0	0	0	495	63	
6	0	0	0	0	494	63	
7	0	0	0	0	494	63	
8	0	0	0	0	494	63	
9	0	0	0	0	494	63	
10	0	0	0	0	493	63	
11	0	0	0	0	493	63	
12	0	0	0	0	493	63	
13	0	0	0	0	493	63	
14	0	0	0	0	494	63	
15	0	0	0	0	493	63	
0	0	0	0	0	493	63	
1	0	0	0	0	494	63	
2	0	0	0	0	494	64	
3	0	0	0	0	494	63	
4	0	0	0	0	493	63	
5	0	0	0	0	492	63	
6	0	0	0	0	492	63	
7	0	0	0	0	491	63	
8	0	0	0	0	491	63	
9	0	0	0	0	492	63	
10	0	0	0	0	492	63	
11	0	0	0	0	493	63	
12	0	0	0	0	494	63	
13	0	0	0	0	495	63	
14	0	0	0	0	496	63	
15	0	0	0	0	496	64	
0	0	0	0	0	497	63	
1	0	0	0	0	497	63	
2	0	0	0	0	496	63	
3	0	0	0	0	497	64	
4	0	0	0	0	497	63	
5	0	0	0	0	497	63	
6	0	0	0	0	496	63	
7	0	0	0	0	496	63	
8	0	0	0	0	495	63	
9	0	0	0	0	494	63	
10	0	0	0	0	494	63	
11	0	0	0	0	493	63	
12	0	0	0	0	492	63	
13	0	0	0	0	491	63	
14	0	0	0	0	492	63	
15	0	0	0	0	493	63	
0	0	0	0	0	494	64	
1	0	0	0	0	494	63	
2	0	0	0	0	495	63	
3	0	0	0	0	494	63	
4	0	0	0	0	494	63	
5	0	0	0	0	493	63	
6	0	0	0	0	492	63	
7	0	0	0	0	492	63	
8	0	0	0	0	492	63	
9	0	0	0	0	492	63	
10	0	0	0	0	493	63	
11	0	0	0	0	494	63	
12	0	0	0	0	494	63	
13	0	0	0	0	495	63	
14	0	0	0	0	495	63	
15	0	0	0	0	494	63	
0	0	0	0	0	494	63	
1	0	0	0	0	493	63	
2	0	0	0	0	493	63	
3	0	0	0	0	492	63	
4	0	0	0	0	492	63	
5	0	0	0	0	492	63	
6	0	0	0	0	493	63	
7	0	0	0	0	493	63	
8	0	0	0	0	493	63	
9	0	0	0	0	493	63	
10	0	0	0	0	492	63	
11	0	0	0	0	492	63	
12	0	0	0	0	491	63	
13	0	0	0	0	491	63	
14	0	0	0	0	491	63	
15	0	0	0	0	492	63	
0	0	0	0	0	492	63	
1	0	0	0	0	493	63	
2	0	0	0	0	493	63	
3	0	0	0	0	494	63	
4	0	0	0	0	495	63	
5	0	0	0	0	495	63	
6	0	0	0	0	495	63	
7	0	0	0	0	494	63	
8	0	0	0	0	494	63	
9	0	0	0	0	494	64	
10	0	0	0	0	495	63	
11	0	0	0	0	494	63	
12	0	0	0	0	494	63	
13	0	0	0	0	495	63	
14	0	0	0	0	495	63	
15	0	0	0	0	494	63	
0	0	0	0	0	495	64	
1	0	0	0	0	495	63	
2	0	0	0	0	495	63	
3	0	0	0	0	495	63	
4	0	0	0	0	494	63	
5	0	0	0	0	494	63	
6	0	0	0	0	493	63	
7	0	0	0	0	493	63	
8	0	0	0	0	492	63	
9	0	0	0	0	491	63	
10	0	0	0	0	492	63	
11	0	0	0	0	492	63	
12	0	0	0	0	492	64	
13	0	0	0	0	492	63	
14	0	0	0	0	492	63	
15	0	0	0	0	493	63	
0	0	0	0	0	494	63	
1	0	0	0	0	495	63	
2	0	0	0	0	495	63	
3	0	0	0	0	495	63	
4	0	0	0	0	495	64	
5	0	0	0	0	495	63	
6	0	0	0	0	495	63	
7	0	0	0	0	495	63	
8	0	0	0	0	494	63	
9	0	0	0	0	495	63	
10	0	0	0	0	495	63	
11	0	0	0	0	496	63	
12	0	0	0	0	496	63	
13	0	0	0	0	495	63	
14	0	0	0	0	496	63	
15	0	0	0	0	497	63	
0	0	0	0	0	498	63	
1	0	0	0	0	499	63	
2	0	0	0	0	500	63	
3	0	0	0	0	500	63	
4	0	0	0	0	501	63	
5	0	0	0	0	502	63	
6	0	0	0	0	504	63	
7	0	0	0	0	505	63	
8	0	0	0	0	506	63	
9	0	0	0	0	507	64	
10	0	0	0	0	507	63	
11	0	0	0	0	507	63	
12	0	0	0	0	507	63	
13	0	0	0	0	507	64	
14	0	0	0	0	508	63	
15	0	0	0	0	508	63	
0	0	0	0	0	509	63	
1	0	0	0	0	510	63	
2	0	0	0	0	511	63	
3	0	0	0	0	513	63	
4	0	0	0	0	513	63	
5	0	0	0	0	514	63	
6	0	0	0	0	514	63	
7	0	0	0	0	515	63	
8	0	0	0	0	515	63	
9	0	0	0	0	516	63	
10	0	0	0	0	517	63	
11	0	0	0	0	517	63	
12	0	0	0	0	517	63	
13	0	0	0	0	519	63	
14	0	0	0	0	520	63	
15	0	0	0	0	521	63	
0	0	0	0	0	522	63	
1	0	0	0	0	524	63	
2	0	0	0	0	524	63	
3	0	0	0	0	525	63	
4	0	0	0	0	525	63	
5	0	0	0	0	527	63	
6	0	0	0	0	528	63	
7	0	0	0	0	530	63	
8	0	0	0	0	530	63	
9	0	0	0	0	531	63	
10	0	0	0	0	531	63	
11	0	0	0	0	531	63	
12	0	0	0	0	531	63	
13	0	0	0	0	529	63	
14	0	0	0	0	528	63	
15	0	0	0	0	527	63	
0	0	0	0	0	528	63	
1	0	0	0	0	528	63	
2	0	0	0	0	528	63	
3	0	0	0	0	527	63	
4	0	0	0	0	527	63	
5	0	0	0	0	527	63	
6	0	0	0	0	527	63	
7	0	0	0	0	527	63	
8	0	0	0	0	527	63	
9	0	0	0	0	526	63	
10	0	0	0	0	526	63	
11	0	0	0	0	526	63	
12	0	0	0	0	525	63	
13	0	0	0	0	524	63	
14	0	0	0	0	524	63	
15	0	0	0	0	523	63	
0	0	0	0	0	523	63	
1	0	0	0	0	524	63	
2	0	0	0	0	524	63	
3	0	0	0	0	526	63	
4	0	0	0	0	525	63	
